Data from test_V78500241_1478.txt Node
Date: Fri Mar 25 15:20:08 CST 2022
User: usil
Spectrometer: V785-0024
Trigger mode: 0
Integration Time (sec): 4.000000E-1
Scans to average: 1
Nonlinearity correction enabled: false
Boxcar width: 0
Storing dark spectrum: false
XAxis mode: Wavelengths
Number of Pixels in Spectrum: 1024
>>>>>Begin Spectral Data<<<<<
801.071	27953
801.214	27987
801.356	27720
801.499	27663
801.641	27477
801.783	27622
801.926	27622
802.068	27587
802.211	27469
802.353	27488
802.496	27279
802.638	27135
802.78	27256
802.923	27127
803.065	26956
803.208	27188
803.35	27249
803.492	27382
803.635	27435
803.777	27252
803.919	27496
804.061	27850
804.204	27504
804.346	27348
804.488	27458
804.63	27408
804.773	27340
804.915	27595
805.057	27538
805.199	27496
805.341	27401
805.483	27519
805.626	27492
805.768	27500
805.91	27641
806.052	27538
806.194	27538
806.336	27774
806.478	27641
806.62	27557
806.762	27633
806.904	27800
807.046	28082
807.188	27945
807.33	27922
807.472	28078
807.614	27907
807.756	28036
807.898	27739
808.04	27774
808.182	27766
808.324	27842
808.465	27854
808.607	28162
808.749	28280
808.891	28268
809.033	28249
809.174	28249
809.316	28120
809.458	28299
809.6	28268
809.741	28318
809.883	28356
810.025	28417
810.166	28508
810.308	28584
810.45	28417
810.591	28398
810.733	28276
810.875	28272
811.016	28021
811.158	28044
811.299	28371
811.441	28386
811.582	28375
811.724	28177
811.865	28211
812.007	28150
812.148	28162
812.29	28318
812.431	28466
812.573	28691
812.714	28774
812.855	28839
812.997	28786
813.138	28854
813.279	28888
813.421	28759
813.562	28801
813.703	28401
813.845	28360
813.986	28249
814.127	27922
814.268	27964
814.41	27975
814.551	27911
814.692	27934
814.833	27850
814.974	27842
815.115	27987
815.256	27835
815.397	27751
815.539	27755
815.68	27694
815.821	27610
815.962	27838
816.103	27690
816.244	27599
816.385	27443
816.526	27443
816.666	27408
816.807	27272
816.948	27294
817.089	27348
817.23	27245
817.371	27268
817.512	27173
817.653	27218
817.793	27173
817.934	27252
818.075	27131
818.216	27165
818.356	27192
818.497	27119
818.638	26944
818.778	27066
818.919	26967
819.06	26975
819.2	27032
819.341	27294
819.481	27150
819.622	27306
819.762	27420
819.903	27583
820.043	27420
820.184	27370
820.324	27466
820.465	27317
820.605	27355
820.746	27203
820.886	27104
821.026	27321
821.167	27207
821.307	27363
821.447	27032
821.588	26994
821.728	26929
821.868	26842
822.008	26609
822.149	26655
822.289	26564
822.429	26412
822.569	26317
822.709	26263
822.849	26187
822.99	26157
823.13	26172
823.27	26122
823.41	26046
823.55	25883
823.69	25890
823.83	26096
823.97	25963
824.11	25788
824.25	25734
824.389	25906
824.529	25894
824.669	25841
824.809	25868
824.949	25978
825.089	25837
825.228	25864
825.368	25586
825.508	25685
825.648	25681
825.787	25753
825.927	25791
826.067	25586
826.206	25533
826.346	25681
826.485	25666
826.625	25681
826.765	25723
826.904	25590
827.044	25426
827.183	25438
827.323	25430
827.462	25506
827.601	25434
827.741	25270
827.88	25464
828.02	25263
828.159	25259
828.298	25358
828.437	25499
828.577	25270
828.716	25346
828.855	25285
828.994	25114
829.134	25046
829.273	25053
829.412	25012
829.551	25084
829.69	24939
829.829	25137
829.968	25027
830.107	25103
830.246	25080
830.385	25076
830.524	24852
830.663	24844
830.802	24829
830.941	24779
831.08	24658
831.219	24734
831.357	24726
831.496	24958
831.635	24719
831.774	24730
831.913	24536
832.051	24532
832.19	24525
832.329	24445
832.467	24300
832.606	24258
832.744	24365
832.883	24403
833.022	24384
833.16	24296
833.299	24384
833.437	24369
833.576	24441
833.714	24502
833.852	24467
833.991	24513
834.129	24585
834.267	24464
834.406	24410
834.544	24490
834.682	24369
834.821	24342
834.959	24547
835.097	24369
835.235	24418
835.373	24361
835.511	24350
835.65	24254
835.788	24220
835.926	24140
836.064	24034
836.202	24102
836.34	24239
836.478	24163
836.615	24114
836.753	24182
836.891	24273
837.029	24342
837.167	24117
837.305	24201
837.443	24235
837.58	24068
837.718	24266
837.856	24053
837.993	24018
838.131	23973
838.269	23920
838.406	23973
838.544	23893
838.681	23748
838.819	23661
838.956	23501
839.094	23535
839.231	23619
839.369	23638
839.506	23950
839.643	23805
839.781	23520
839.918	23452
840.055	23368
840.193	23493
840.33	23410
840.467	23410
840.604	23497
840.742	23665
840.879	23307
841.016	23307
841.153	23345
841.29	23623
841.427	23433
841.564	23501
841.701	23501
841.838	23505
841.975	23433
842.112	23353
842.249	23311
842.385	23246
842.522	23288
842.659	23288
842.796	23094
842.933	23231
843.069	23140
843.206	23216
843.343	23200
843.479	23121
843.616	23189
843.752	23006
843.889	23124
844.025	23197
844.162	22896
844.298	23098
844.435	23064
844.571	22869
844.708	23083
844.844	23079
844.98	23162
845.117	23170
845.253	22854
845.389	22793
845.525	22790
845.661	22713
845.798	22725
845.934	22744
846.07	22596
846.206	22744
846.342	22904
846.478	22767
846.614	22615
846.75	22341
846.886	22440
847.022	22413
847.158	22447
847.294	22516
847.429	22402
847.565	22409
847.701	22535
847.837	22234
847.972	22226
848.108	22230
848.244	22196
848.379	22158
848.515	22105
848.65	21975
848.786	22109
848.921	22128
849.057	22192
849.192	22086
849.328	22112
849.463	21964
849.598	22032
849.734	21964
849.869	21774
850.004	21732
850.14	21751
850.275	21690
850.41	21671
850.545	21804
850.68	21698
850.815	21804
850.95	21720
851.085	21975
851.22	21819
851.355	21865
851.49	21709
851.625	21728
851.76	21724
851.895	21667
852.03	21724
852.165	21766
852.299	21720
852.434	21755
852.569	21895
852.703	21831
852.838	21835
852.973	21915
853.107	21865
853.242	21701
853.376	21629
853.511	21507
853.645	21439
853.78	21701
853.914	21557
854.048	21507
854.183	21500
854.317	21625
854.451	21732
854.585	21656
854.72	21644
854.854	21751
854.988	21526
855.122	21618
855.256	21405
855.39	21553
855.524	21663
855.658	21610
855.792	21652
855.926	21641
856.06	21542
856.194	21660
856.327	21458
856.461	21568
856.595	21477
856.729	21534
856.862	21789
856.996	21591
857.13	21800
857.263	21762
857.397	21591
857.53	21507
857.664	21690
857.797	21614
857.931	21793
858.064	21728
858.197	21682
858.331	21473
858.464	21561
858.597	21488
858.731	21542
858.864	21530
858.997	21564
859.13	21606
859.263	21663
859.396	21701
859.529	21534
859.662	21568
859.795	21523
859.928	21698
860.061	21751
860.194	21766
860.327	21648
860.46	21488
860.592	21614
860.725	21827
860.858	21679
860.99	21656
861.123	21583
861.256	21530
861.388	21564
861.521	22105
861.653	21580
861.786	21268
861.918	21386
862.05	21610
862.183	21580
862.315	21561
862.447	21671
862.58	21557
862.712	21325
862.844	21207
862.976	21382
863.108	21450
863.24	21781
863.372	21214
863.504	21348
863.636	21287
863.768	21291
863.9	21241
864.032	21142
864.164	21195
864.296	21389
864.428	21367
864.559	21340
864.691	21359
864.823	21340
864.954	21306
865.086	21310
865.217	21256
865.349	21123
865.48	21222
865.612	21100
865.743	21424
865.875	21218
866.006	21142
866.137	21176
866.269	21127
866.4	21119
866.531	21036
866.662	21135
866.793	21081
866.924	21085
867.055	21100
867.186	21123
867.317	21127
867.448	21024
867.579	21009
867.71	20979
867.841	21070
867.972	21157
868.103	21131
868.233	21135
868.364	21135
868.495	21150
868.625	21435
868.756	21420
868.886	21272
869.017	21348
869.147	21496
869.278	21450
869.408	21367
869.539	21359
869.669	21408
869.799	21515
869.929	21359
870.06	21553
870.19	21808
870.32	21724
870.45	21660
870.58	21861
870.71	21835
870.84	21762
870.97	21774
871.1	21698
871.23	21922
871.36	22029
871.489	21869
871.619	21964
871.749	22013
871.879	22006
872.008	22059
872.138	21998
872.267	22025
872.397	21816
872.526	21732
872.656	21823
872.785	21663
872.915	21991
873.044	22036
873.173	21892
873.303	21903
873.432	21991
873.561	21972
873.69	22070
873.819	21994
873.948	21983
874.077	22051
874.206	21899
874.335	22040
874.464	22101
874.593	22272
874.722	22181
874.851	22158
874.979	22337
875.108	22375
875.237	22147
875.365	22139
875.494	22120
875.623	22219
875.751	22211
875.88	22169
876.008	22314
876.136	22363
876.265	22538
876.393	22687
876.521	22565
876.65	22584
876.778	22577
876.906	22440
877.034	22470
877.162	22577
877.29	22561
877.418	22565
877.546	22618
877.674	22538
877.802	22462
877.93	22546
878.058	22675
878.185	22432
878.313	22489
878.441	22451
878.568	22291
878.696	22466
878.824	22500
878.951	22504
879.079	22675
879.206	22881
879.333	22740
879.461	22580
879.588	22710
879.715	22752
879.842	22729
879.97	22645
880.097	22318
880.224	22432
880.351	22379
880.478	22379
880.605	22421
880.732	22276
880.859	22535
880.986	22417
881.112	22284
881.239	22284
881.366	22032
881.493	22002
881.619	22010
881.746	21983
881.872	21926
881.999	21884
882.125	21903
882.252	21987
882.378	21778
882.505	22006
882.631	21694
882.757	21850
882.883	21766
883.01	21644
883.136	21526
883.262	21507
883.388	21450
883.514	21747
883.64	21694
883.766	21682
883.892	21272
884.018	21416
884.143	21644
884.269	21663
884.395	21351
884.52	21184
884.646	21252
884.772	21211
884.897	21211
885.023	21165
885.148	21382
885.274	21500
885.399	21348
885.524	21332
885.65	21135
885.775	21378
885.9	21325
886.025	21370
886.15	21245
886.275	21268
886.4	21131
886.525	21268
886.65	21184
886.775	21207
886.9	21332
887.025	21454
887.149	21241
887.274	21154
887.399	20982
887.523	21081
887.648	21146
887.773	20998
887.897	21119
888.021	21047
888.146	21074
888.27	21142
888.395	21142
888.519	21074
888.643	21032
888.767	21047
888.891	20933
889.015	20807
889.139	20963
889.263	20883
889.387	20933
889.511	21036
889.635	21036
889.759	20823
889.883	20838
890.006	20982
890.13	21058
890.254	20834
890.377	20762
890.501	20765
890.624	20663
890.748	20648
890.871	20514
890.995	20427
891.118	20370
891.241	20488
891.364	20415
891.488	20431
891.611	20484
891.734	20545
891.857	20438
891.98	20427
892.103	20476
892.226	20457
892.349	20442
892.471	20149
892.594	20374
892.717	20362
892.839	20317
892.962	20366
893.085	20328
893.207	20400
893.33	20233
893.452	20206
893.575	20377
893.697	20233
893.819	20480
893.941	20621
894.064	20476
894.186	20229
894.308	20336
894.43	20275
894.552	20431
894.674	20537
894.796	20142
894.918	20244
895.04	20252
895.161	20275
895.283	20336
895.405	20210
895.526	20332
895.648	20393
895.769	20328
895.891	20377
896.012	20423
896.134	20366
896.255	20275
896.376	20290
896.498	20214
896.619	20381
896.74	20366
896.861	20412
896.982	20663
897.103	20720
897.224	20632
897.345	20549
897.466	20473
897.587	20625
897.708	20648
897.828	20533
897.949	20541
898.07	20393
898.19	20442
898.311	20556
898.431	20484
898.552	20571
898.672	20602
898.792	20583
898.913	20518
899.033	20404
899.153	20259
899.273	20233
899.393	20267
899.513	20351
899.633	20419
899.753	20404
899.873	20149
899.993	20218
900.113	20153
900.232	20248
900.352	20244
900.472	20119
900.591	19993
900.711	20035
900.83	20005
900.95	20244
901.069	20119
901.189	19993
901.308	19784
901.427	19651
901.546	19594
901.665	19563
901.784	19788
901.904	19609
902.023	19457
902.141	19244
902.26	19198
902.379	19194
902.498	19225
902.617	19072
902.735	19240
902.854	19103
902.973	19129
903.091	18856
903.21	18856
903.328	18920
903.446	18673
903.565	18601
903.683	18650
903.801	18555
903.919	18620
904.038	18525
904.156	18433
904.274	18475
904.392	18418
904.51	18445
904.627	18308
904.745	18445
904.863	18403
904.981	18209
905.098	18098
905.216	18015
905.334	18197
905.451	18079
905.569	17988
905.686	18117
905.803	18110
905.921	17790
906.038	17988
906.155	17798
906.272	17764
906.389	17847
906.506	17600
906.623	17634
906.74	17611
906.857	17463
906.974	17425
907.091	17604
907.208	17748
907.324	17642
907.441	17547
907.557	17402
907.674	17311
907.79	17212
907.907	17345
908.023	17288
908.139	17235
908.256	17277
908.372	17227
908.488	17189
908.604	16892
908.72	16946
908.836	17006
908.952	17052
909.068	17094
909.184	17060
909.3	17010
909.415	16976
909.531	17022
909.647	16744
909.762	16805
909.878	16596
909.993	16668
910.108	16664
910.224	16634
910.339	16706
910.454	16535
910.57	16516
910.685	16470
910.8	16713
910.915	16664
911.03	16577
911.145	16344
911.259	16375
911.374	16261
911.489	16238
911.604	16200
911.718	16021
911.833	16032
911.947	15861
912.062	15930
912.176	16097
912.291	16059
912.405	15979
912.519	16200
912.633	16223
912.748	16093
912.862	15994
912.976	15937
913.09	15736
913.204	15865
913.318	15873
913.431	16074
913.545	15876
913.659	15949
913.772	15793
913.886	15720
914	15633
914.113	15762
914.226	15759
914.34	15675
914.453	15641
914.566	15637
914.68	15473
914.793	15507
914.906	15340
915.019	15279
915.132	15199
915.245	15336
915.358	15344
915.47	15321
915.583	15374
915.696	15428
915.809	15397
915.921	15294
916.034	15192
916.146	15218
916.259	15203
916.371	15260
916.483	15203
916.595	15119
916.708	15150
916.82	15047
916.932	15138
917.044	15085
917.156	14975
917.268	14921
917.38	14944
917.491	14982
917.603	14994
917.715	14986
917.826	15028
917.938	14891
918.049	14800
918.161	14891
918.272	14982
918.384	14902
918.495	14781
918.606	14769
918.717	14636
918.828	14667
918.939	14834
919.05	14640
919.161	14651
919.272	14549
919.383	14564
919.494	14720
919.604	14834
919.715	14716
919.826	14545
919.936	14571
920.047	14640
920.157	14644
920.267	14785
920.378	14701
920.488	14632
920.598	14777
920.708	14887
920.818	14788
920.928	14785
921.038	14891
921.148	14864
921.258	14556
921.368	14533
921.477	14415
921.587	14339
921.697	14294
921.806	14324
921.916	14210
922.025	14001
922.134	13997
922.244	13925
922.353	13913
922.462	13883
922.571	13704
922.68	13613
922.789	13636
922.898	13719
923.007	13540
923.116	13658
923.224	13628
923.333	13590
923.442	13453
923.55	13487
923.659	13510
923.767	13518
923.876	13377
923.984	13582
924.092	13358
924.201	13381
924.309	13434
924.417	13335
924.525	13198
924.633	13354
924.741	14107
924.849	13095
924.956	13213
925.064	13107
925.172	12970
925.279	13050
925.387	13107
925.494	13088
925.602	13251
925.709	13084
925.816	12954
925.924	12951
926.031	13076
926.138	12962
926.245	13053
926.352	12989
926.459	13103
926.566	13088
926.673	12939
926.779	12878
926.886	12783
926.993	12738
927.099	12673
927.206	12566
927.312	12547
927.419	12589
927.525	12658
927.631	12650
927.737	12437
927.843	12544
927.95	12403
928.056	12509
928.162	12372
928.267	12471
928.373	12977
928.479	12471
928.585	12273
928.69	12452
928.796	12441
928.901	12338
929.007	12175
929.112	12304
929.218	12251
929.323	12186
929.428	12068
929.533	12311
929.638	12114
929.743	12083
929.848	12117
929.953	12121
930.058	11965
930.163	11813
930.267	11851
930.372	11954
930.477	11805
930.581	12106
930.685	11878
930.79	11707
930.894	11627
930.998	11710
931.103	11828
931.207	11539
931.311	11417
931.415	11303
931.519	11121
931.623	11090
