Data from test_V78500241_723.txt Node
Date: Fri Mar 25 15:14:53 CST 2022
User: usil
Spectrometer: V785-0024
Trigger mode: 0
Integration Time (sec): 4.000000E-1
Scans to average: 1
Nonlinearity correction enabled: false
Boxcar width: 0
Storing dark spectrum: false
XAxis mode: Wavelengths
Number of Pixels in Spectrum: 1024
>>>>>Begin Spectral Data<<<<<
801.071	28143
801.214	28063
801.356	27751
801.499	27732
801.641	27667
801.783	27728
801.926	27622
802.068	27622
802.211	27618
802.353	27447
802.496	27397
802.638	27332
802.78	27256
802.923	27214
803.065	27496
803.208	27458
803.35	27370
803.492	27466
803.635	27485
803.777	27313
803.919	27561
804.061	27736
804.204	27663
804.346	27523
804.488	27408
804.63	27610
804.773	27526
804.915	27519
805.057	27557
805.199	27469
805.341	27686
805.483	27785
805.626	27679
805.768	27519
805.91	27610
806.052	27549
806.194	27622
806.336	27888
806.478	27762
806.62	27728
806.762	27865
806.904	27956
807.046	28211
807.188	28109
807.33	28006
807.472	28166
807.614	28048
807.756	28082
807.898	28036
808.04	27926
808.182	27979
808.324	27979
808.465	27998
808.607	28139
808.749	28265
808.891	28470
809.033	28500
809.174	28306
809.316	28306
809.458	28443
809.6	28310
809.741	28455
809.883	28398
810.025	28538
810.166	28592
810.308	28717
810.45	28615
810.591	28535
810.733	28462
810.875	28405
811.016	28287
811.158	28230
811.299	28462
811.441	28459
811.582	28478
811.724	28322
811.865	28299
812.007	28318
812.148	28253
812.29	28382
812.431	28466
812.573	28797
812.714	28752
812.855	29041
812.997	29003
813.138	29212
813.279	29109
813.421	28793
813.562	28965
813.703	28812
813.845	28634
813.986	28280
814.127	28249
814.268	28055
814.41	28158
814.551	27987
814.692	28086
814.833	27949
814.974	27914
815.115	27994
815.256	27983
815.397	28044
815.539	27922
815.68	27930
815.821	27641
815.962	27781
816.103	27876
816.244	27835
816.385	27751
816.526	27705
816.666	27405
816.807	27214
816.948	27405
817.089	27450
817.23	27363
817.371	27370
817.512	27355
817.653	27393
817.793	27272
817.934	27313
818.075	27401
818.216	27416
818.356	27214
818.497	27306
818.638	27108
818.778	27218
818.919	27089
819.06	27119
819.2	27195
819.341	27348
819.481	27313
819.622	27492
819.762	27793
819.903	27656
820.043	27553
820.184	27477
820.324	27321
820.465	27462
820.605	27504
820.746	27629
820.886	27329
821.026	27397
821.167	27420
821.307	27534
821.447	27363
821.588	27313
821.728	27070
821.868	26857
822.008	26773
822.149	26830
822.289	26777
822.429	26594
822.569	26552
822.709	26366
822.849	26290
822.99	26336
823.13	26263
823.27	26142
823.41	26054
823.55	26031
823.69	26126
823.83	26088
823.97	26161
824.11	25947
824.25	25887
824.389	25986
824.529	25925
824.669	25974
824.809	26084
824.949	25986
825.089	26084
825.228	26031
825.368	25902
825.508	25803
825.648	25780
825.787	25780
825.927	25875
826.067	25746
826.206	25750
826.346	25887
826.485	25814
826.625	25769
826.765	25909
826.904	25951
827.044	25647
827.183	25628
827.323	25514
827.462	25601
827.601	25468
827.741	25609
827.88	25624
828.02	25422
828.159	25586
828.298	25403
828.437	25586
828.577	25460
828.716	25624
828.855	25476
828.994	25316
829.134	25278
829.273	25301
829.412	25270
829.551	25365
829.69	25236
829.829	25244
829.968	25282
830.107	25350
830.246	25312
830.385	25301
830.524	25118
830.663	25038
830.802	25057
830.941	24787
831.08	24760
831.219	24859
831.357	24905
831.496	25053
831.635	24829
831.774	24719
831.913	24798
832.051	24688
832.19	24677
832.329	24631
832.467	24502
832.606	24551
832.744	24486
832.883	24631
833.022	24532
833.16	24559
833.299	24688
833.437	24517
833.576	24715
833.714	24585
833.852	24665
833.991	24635
834.129	24734
834.267	24795
834.406	24536
834.544	24620
834.682	24639
834.821	24620
834.959	24559
835.097	24433
835.235	24639
835.373	24471
835.511	24494
835.65	24422
835.788	24422
835.926	24315
836.064	24315
836.202	24285
836.34	24266
836.478	24525
836.615	24384
836.753	24433
836.891	24513
837.029	24437
837.167	24464
837.305	24266
837.443	24216
837.58	24174
837.718	24346
837.856	24315
837.993	24072
838.131	24144
838.269	24041
838.406	24076
838.544	24057
838.681	23870
838.819	23783
838.956	23764
839.094	23710
839.231	23832
839.369	23927
839.506	24171
839.643	23901
839.781	23668
839.918	23573
840.055	23687
840.193	23672
840.33	23592
840.467	23539
840.604	23585
840.742	23859
840.879	23516
841.016	23539
841.153	23448
841.29	23604
841.427	23596
841.564	23608
841.701	23600
841.838	23493
841.975	23474
842.112	23592
842.249	23330
842.385	23330
842.522	23653
842.659	23364
842.796	23337
842.933	23417
843.069	23296
843.206	23326
843.343	23303
843.479	23429
843.616	23258
843.752	23140
843.889	23109
844.025	23402
844.162	23048
844.298	23208
844.435	23056
844.571	23212
844.708	23090
844.844	23277
844.98	23330
845.117	23212
845.253	23181
845.389	22991
845.525	22927
845.661	22995
845.798	22869
845.934	22934
846.07	22786
846.206	22755
846.342	22930
846.478	22869
846.614	22713
846.75	22550
846.886	22622
847.022	22672
847.158	22656
847.294	22592
847.429	22675
847.565	22554
847.701	22877
847.837	22325
847.972	22234
848.108	22478
848.244	22322
848.379	22295
848.515	22295
848.65	22128
848.786	22226
848.921	22090
849.057	22246
849.192	22318
849.328	22223
849.463	22185
849.598	22230
849.734	22135
849.869	22074
850.004	21846
850.14	21949
850.275	21994
850.41	21903
850.545	21751
850.68	21812
850.815	21907
850.95	21964
851.085	22036
851.22	22082
851.355	22029
851.49	21937
851.625	21915
851.76	21911
851.895	21915
852.03	21888
852.165	21964
852.299	22029
852.434	21869
852.569	21983
852.703	22029
852.838	22059
852.973	22048
853.107	22006
853.242	21831
853.376	21797
853.511	21671
853.645	21682
853.78	21816
853.914	21778
854.048	21759
854.183	21743
854.317	21819
854.451	22021
854.585	21755
854.72	21823
854.854	21884
854.988	21629
855.122	21766
855.256	21595
855.39	21759
855.524	21819
855.658	21800
855.792	21800
855.926	21827
856.06	21713
856.194	21759
856.327	21633
856.461	21778
856.595	21587
856.729	21720
856.862	21934
856.996	21842
857.13	21728
857.263	21823
857.397	21880
857.53	21701
857.664	21781
857.797	21797
857.931	21873
858.064	21861
858.197	21823
858.331	21717
858.464	21705
858.597	21648
858.731	21743
858.864	21739
858.997	21808
859.13	21656
859.263	21781
859.396	21991
859.529	21724
859.662	21732
859.795	21736
859.928	21793
860.061	21903
860.194	21915
860.327	21873
860.46	21698
860.592	21850
860.725	22021
860.858	21937
860.99	21694
861.123	21728
861.256	21701
861.388	21819
861.521	22489
861.653	21637
861.786	21637
861.918	21625
862.05	21694
862.183	21732
862.315	21709
862.447	21762
862.58	21568
862.712	21485
862.844	21389
862.976	21542
863.108	21534
863.24	21880
863.372	21378
863.504	21469
863.636	21530
863.768	21633
863.9	21450
864.032	21344
864.164	21538
864.296	21591
864.428	21599
864.559	21652
864.691	21538
864.823	21519
864.954	21408
865.086	21424
865.217	21393
865.349	21317
865.48	21275
865.612	21325
865.743	21542
865.875	21370
866.006	21245
866.137	21412
866.269	21306
866.4	21329
866.531	21313
866.662	21207
866.793	21268
866.924	21332
867.055	21348
867.186	21321
867.317	21325
867.448	21176
867.579	21195
867.71	21226
867.841	21165
867.972	21165
868.103	21233
868.233	21245
868.364	21310
868.495	21450
868.625	21458
868.756	21698
868.886	21538
869.017	21515
869.147	21739
869.278	21549
869.408	21595
869.539	21675
869.669	21648
869.799	21583
869.929	21656
870.06	21656
870.19	21884
870.32	21785
870.45	21865
870.58	21861
870.71	21975
870.84	22013
870.97	21838
871.1	21831
871.23	22093
871.36	22097
871.489	21983
871.619	22147
871.749	22192
871.879	22120
872.008	22280
872.138	22112
872.267	22078
872.397	21983
872.526	21941
872.656	22032
872.785	21899
872.915	22105
873.044	22204
873.173	22040
873.303	22162
873.432	22242
873.561	22226
873.69	22055
873.819	22093
873.948	22253
874.077	22097
874.206	22048
874.335	22063
874.464	22284
874.593	22295
874.722	22310
874.851	22394
874.979	22394
875.108	22398
875.237	22333
875.365	22211
875.494	22272
875.623	22443
875.751	22276
875.88	22306
876.008	22500
876.136	22519
876.265	22748
876.393	22850
876.521	22679
876.65	22660
876.778	22812
876.906	22603
877.034	22679
877.162	22725
877.29	22603
877.418	22679
877.546	22706
877.674	22641
877.802	22653
877.93	22691
878.058	22599
878.185	22561
878.313	22573
878.441	22698
878.568	22409
878.696	22691
878.824	22687
878.951	22778
879.079	22866
879.206	22965
879.333	22896
879.461	22698
879.588	22740
879.715	22896
879.842	22919
879.97	22736
880.097	22485
880.224	22447
880.351	22691
880.478	22500
880.605	22440
880.732	22523
880.859	22847
880.986	22516
881.112	22478
881.239	22341
881.366	22192
881.493	22249
881.619	22090
881.746	22101
881.872	22025
881.999	21994
882.125	21987
882.252	22139
882.378	22063
882.505	22135
882.631	21907
882.757	21766
882.883	21873
883.01	21785
883.136	21705
883.262	21686
883.388	21644
883.514	21774
883.64	21907
883.766	21568
883.892	21648
884.018	21519
884.143	21614
884.269	21667
884.395	21591
884.52	21458
884.646	21519
884.772	21344
884.897	21344
885.023	21450
885.148	21568
885.274	21492
885.399	21485
885.524	21462
885.65	21351
885.775	21401
885.9	21264
886.025	21450
886.15	21439
886.275	21378
886.4	21389
886.525	21488
886.65	21302
886.775	21378
886.9	21526
887.025	21507
887.149	21393
887.274	21241
887.399	21195
887.523	21100
887.648	21112
887.773	21085
887.897	21192
888.021	21249
888.146	21123
888.27	21161
888.395	21287
888.519	21188
888.643	21180
888.767	21131
888.891	21070
889.015	20929
889.139	21051
889.263	21020
889.387	21127
889.511	21150
889.635	21100
889.759	20887
889.883	21070
890.006	20979
890.13	21005
890.254	20975
890.377	20845
890.501	20823
890.624	20674
890.748	20834
890.871	20667
890.995	20530
891.118	20484
891.241	20629
891.364	20434
891.488	20727
891.611	20590
891.734	20598
891.857	20594
891.98	20552
892.103	20492
892.226	20545
892.349	20408
892.471	20381
892.594	20343
892.717	20480
892.839	20446
892.962	20381
893.085	20362
893.207	20351
893.33	20450
893.452	20176
893.575	20480
893.697	20476
893.819	20499
893.941	20473
894.064	20720
894.186	20423
894.308	20339
894.43	20480
894.552	20552
894.674	20427
894.796	20355
894.918	20438
895.04	20267
895.161	20522
895.283	20537
895.405	20370
895.526	20476
895.648	20343
895.769	20541
895.891	20412
896.012	20438
896.134	20530
896.255	20488
896.376	20370
896.498	20385
896.619	20492
896.74	20396
896.861	20381
896.982	20678
897.103	20830
897.224	20651
897.345	20648
897.466	20606
897.587	20602
897.708	20640
897.828	20564
897.949	20552
898.07	20488
898.19	20579
898.311	20727
898.431	20594
898.552	20663
898.672	20644
898.792	20712
898.913	20549
899.033	20434
899.153	20370
899.273	20381
899.393	20347
899.513	20457
899.633	20339
899.753	20336
899.873	20256
899.993	20400
900.113	20362
900.232	20415
900.352	20240
900.472	20191
900.591	20130
900.711	20282
900.83	20043
900.95	20202
901.069	20149
901.189	19883
901.308	19814
901.427	19742
901.546	19788
901.665	19788
901.784	19727
901.904	19514
902.023	19483
902.141	19266
902.26	19301
902.379	19384
902.498	19297
902.617	19202
902.735	19301
902.854	19076
902.973	19266
903.091	18928
903.21	18863
903.328	18954
903.446	18886
903.565	18715
903.683	18738
903.801	18555
903.919	18631
904.038	18601
904.156	18540
904.274	18498
904.392	18452
904.51	18471
904.627	18433
904.745	18441
904.863	18464
904.981	18273
905.098	18235
905.216	18228
905.334	18247
905.451	18228
905.569	18152
905.686	18133
905.803	18152
905.921	18030
906.038	17996
906.155	17988
906.272	17790
906.389	17912
906.506	17699
906.623	17680
906.74	17672
906.857	17512
906.974	17600
907.091	17672
907.208	17798
907.324	17718
907.441	17615
907.557	17406
907.674	17379
907.79	17391
907.907	17421
908.023	17474
908.139	17364
908.256	17326
908.372	17337
908.488	17212
908.604	17086
908.72	17105
908.836	17117
908.952	17212
909.068	17147
909.184	17159
909.3	17033
909.415	17162
909.531	17098
909.647	16938
909.762	16752
909.878	16797
909.993	16869
910.108	16839
910.224	16733
910.339	16843
910.454	16618
910.57	16592
910.685	16717
910.8	16862
910.915	16725
911.03	16588
911.145	16402
911.259	16360
911.374	16409
911.489	16314
911.604	16257
911.718	16150
911.833	16120
911.947	16173
912.062	15949
912.176	16040
912.291	16200
912.405	16116
912.519	16234
912.633	16295
912.748	16166
912.862	16135
912.976	15960
913.09	15838
913.204	15907
913.318	15850
913.431	15972
913.545	16078
913.659	15983
913.772	15888
913.886	15759
914	15671
914.113	15899
914.226	15850
914.34	15895
914.453	15633
914.566	15762
914.68	15618
914.793	15701
914.906	15412
915.019	15450
915.132	15374
915.245	15332
915.358	15340
915.47	15492
915.583	15329
915.696	15302
915.809	15519
915.921	15515
916.034	15283
916.146	15142
916.259	15298
916.371	15291
916.483	15291
916.595	15138
916.708	15173
916.82	15138
916.932	15104
917.044	15089
917.156	15051
917.268	14960
917.38	14982
917.491	15013
917.603	15036
917.715	14990
917.826	15039
917.938	14975
918.049	14902
918.161	14830
918.272	15051
918.384	15081
918.495	14952
918.606	14788
918.717	14762
918.828	14769
918.939	14796
919.05	14739
919.161	14708
919.272	14507
919.383	14575
919.494	14663
919.604	14891
919.715	14765
919.826	14674
919.936	14716
920.047	14765
920.157	14754
920.267	14899
920.378	14750
920.488	14705
920.598	14815
920.708	15001
920.818	14880
920.928	14811
921.038	15013
921.148	14788
921.258	14617
921.368	14564
921.477	14488
921.587	14423
921.697	14336
921.806	14454
921.916	14237
922.025	14134
922.134	14012
922.244	14016
922.353	14100
922.462	13925
922.571	13890
922.68	13753
922.789	13814
922.898	13731
923.007	13655
923.116	13799
923.224	13738
923.333	13674
923.442	13518
923.55	13537
923.659	13567
923.767	13529
923.876	13388
923.984	13681
924.092	13441
924.201	13533
924.309	13396
924.417	13472
924.525	13400
924.633	13403
924.741	14077
924.849	13190
924.956	13240
925.064	13206
925.172	13129
925.279	13107
925.387	13160
925.494	13152
925.602	13247
925.709	13221
925.816	13008
925.924	13061
926.031	13149
926.138	13023
926.245	13050
926.352	13095
926.459	13122
926.566	13217
926.673	13004
926.779	12901
926.886	12829
926.993	12722
927.099	12669
927.206	12654
927.312	12753
927.419	12669
927.525	12730
927.631	12707
927.737	12597
927.843	12502
927.95	12422
928.056	12483
928.162	12528
928.267	12570
928.373	13137
928.479	12513
928.585	12422
928.69	12479
928.796	12502
928.901	12384
929.007	12213
929.112	12357
929.218	12251
929.323	12186
929.428	12190
929.533	12304
929.638	12106
929.743	12178
929.848	12254
929.953	12197
930.058	12102
930.163	11866
930.267	11916
930.372	12053
930.477	11908
930.581	12091
930.685	11904
930.79	11786
930.894	11767
930.998	11764
931.103	11912
931.207	11512
931.311	11478
931.415	11364
931.519	11239
931.623	11162
