Data from test_V78500241_3394.txt Node
Date: Fri Mar 25 15:33:29 CST 2022
User: usil
Spectrometer: V785-0024
Trigger mode: 0
Integration Time (sec): 4.000000E-1
Scans to average: 1
Nonlinearity correction enabled: false
Boxcar width: 0
Storing dark spectrum: false
XAxis mode: Wavelengths
Number of Pixels in Spectrum: 1024
>>>>>Begin Spectral Data<<<<<
801.071	27249
801.214	27176
801.356	26906
801.499	26876
801.641	26682
801.783	26830
801.926	26956
802.068	26777
802.211	26777
802.353	26552
802.496	26507
802.638	26488
802.78	26389
802.923	26377
803.065	26301
803.208	26324
803.35	26453
803.492	26575
803.635	26708
803.777	26518
803.919	26659
804.061	26990
804.204	26777
804.346	26453
804.488	26568
804.63	26400
804.773	26431
804.915	26689
805.057	26575
805.199	26583
805.341	26518
805.483	26796
805.626	26686
805.768	26720
805.91	26720
806.052	26750
806.194	26621
806.336	26864
806.478	26754
806.62	26640
806.762	26769
806.904	26842
807.046	27165
807.188	27066
807.33	27032
807.472	27192
807.614	26876
807.756	27013
807.898	26819
808.04	26857
808.182	26815
808.324	26979
808.465	26853
808.607	27062
808.749	27241
808.891	27332
809.033	27355
809.174	27382
809.316	27169
809.458	27184
809.6	27142
809.741	27260
809.883	27473
810.025	27466
810.166	27523
810.308	27492
810.45	27431
810.591	27511
810.733	27336
810.875	27192
811.016	27157
811.158	27157
811.299	27355
811.441	27351
811.582	27405
811.724	27233
811.865	27294
812.007	27192
812.148	27081
812.29	27298
812.431	27370
812.573	27534
812.714	27595
812.855	27743
812.997	27800
813.138	27960
813.279	27762
813.421	27663
813.562	27804
813.703	27648
813.845	27291
813.986	27157
814.127	27020
814.268	26823
814.41	26940
814.551	26826
814.692	26914
814.833	26743
814.974	26804
815.115	27070
815.256	26712
815.397	26625
815.539	26792
815.68	26777
815.821	26670
815.962	26613
816.103	26670
816.244	26495
816.385	26484
816.526	26450
816.666	26172
816.807	26031
816.948	26225
817.089	26408
817.23	26229
817.371	26058
817.512	26164
817.653	26119
817.793	26107
817.934	26168
818.075	26065
818.216	26252
818.356	26062
818.497	25856
818.638	25868
818.778	25917
818.919	25860
819.06	25947
819.2	26077
819.341	26180
819.481	26084
819.622	26168
819.762	26507
819.903	26415
820.043	26358
820.184	26282
820.324	26320
820.465	26161
820.605	26252
820.746	26374
820.886	26153
821.026	26290
821.167	26271
821.307	26225
821.447	26225
821.588	25963
821.728	25894
821.868	25814
822.008	25658
822.149	25685
822.289	25635
822.429	25419
822.569	25301
822.709	25263
822.849	25160
822.99	25148
823.13	25194
823.27	25091
823.41	24939
823.55	24779
823.69	24916
823.83	24947
823.97	24996
824.11	24806
824.25	24616
824.389	24825
824.529	24764
824.669	24719
824.809	24886
824.949	24821
825.089	24817
825.228	24776
825.368	24570
825.508	24620
825.648	24578
825.787	24589
825.927	24859
826.067	24570
826.206	24563
826.346	24703
826.485	24772
826.625	24696
826.765	24734
826.904	24726
827.044	24494
827.183	24372
827.323	24346
827.462	24395
827.601	24391
827.741	24296
827.88	24247
828.02	24144
828.159	24292
828.298	24357
828.437	24464
828.577	24304
828.716	24437
828.855	24136
828.994	24159
829.134	24011
829.273	24129
829.412	24174
829.551	23939
829.69	24091
829.829	24068
829.968	24266
830.107	24163
830.246	24114
830.385	24011
830.524	23954
830.663	23817
830.802	23779
830.941	23828
831.08	23615
831.219	23634
831.357	23748
831.496	23885
831.635	23710
831.774	23642
831.913	23592
832.051	23387
832.19	23440
832.329	23558
832.467	23387
832.606	23288
832.744	23444
832.883	23265
833.022	23292
833.16	23303
833.299	23391
833.437	23372
833.576	23558
833.714	23493
833.852	23440
833.991	23501
834.129	23512
834.267	23512
834.406	23402
834.544	23406
834.682	23512
834.821	23467
834.959	23531
835.097	23330
835.235	23619
835.373	23490
835.511	23315
835.65	23341
835.788	23307
835.926	23200
836.064	23010
836.202	23143
836.34	23402
836.478	23349
836.615	23208
836.753	23296
836.891	23315
837.029	23372
837.167	23200
837.305	23155
837.443	23143
837.58	23147
837.718	23227
837.856	23189
837.993	23037
838.131	23162
838.269	23025
838.406	23041
838.544	22995
838.681	22900
838.819	22869
838.956	22611
839.094	22554
839.231	22736
839.369	22710
839.506	23105
839.643	22877
839.781	22653
839.918	22577
840.055	22580
840.193	22615
840.33	22592
840.467	22470
840.604	22691
840.742	22702
840.879	22394
841.016	22360
841.153	22474
841.29	22535
841.427	22675
841.564	22538
841.701	22436
841.838	22512
841.975	22440
842.112	22565
842.249	22447
842.385	22268
842.522	22550
842.659	22291
842.796	22356
842.933	22306
843.069	22257
843.206	22253
843.343	22375
843.479	22348
843.616	22322
843.752	22109
843.889	22128
844.025	22181
844.162	22120
844.298	22131
844.435	21907
844.571	22013
844.708	22086
844.844	22120
844.98	22253
845.117	22166
845.253	22048
845.389	22082
845.525	22090
845.661	21884
845.798	21869
845.934	21880
846.07	21819
846.206	22010
846.342	21918
846.478	21846
846.614	21583
846.75	21507
846.886	21538
847.022	21641
847.158	21603
847.294	21606
847.429	21545
847.565	21557
847.701	21778
847.837	21283
847.972	21367
848.108	21252
848.244	21393
848.379	21245
848.515	21150
848.65	21135
848.786	21119
848.921	21096
849.057	21302
849.192	21165
849.328	21302
849.463	21112
849.598	21024
849.734	21028
849.869	21024
850.004	20914
850.14	20944
850.275	20944
850.41	20918
850.545	20792
850.68	20834
850.815	20880
850.95	20895
851.085	21085
851.22	20952
851.355	20902
851.49	20937
851.625	20902
851.76	20906
851.895	20887
852.03	20823
852.165	20979
852.299	20986
852.434	21055
852.569	20990
852.703	20982
852.838	21062
852.973	21093
853.107	21104
853.242	20872
853.376	20788
853.511	20594
853.645	20617
853.78	20895
853.914	20731
854.048	20667
854.183	20758
854.317	20826
854.451	20880
854.585	20743
854.72	20781
854.854	20883
854.988	20781
855.122	20746
855.256	20686
855.39	20811
855.524	20891
855.658	20663
855.792	20800
855.926	20750
856.06	20807
856.194	20830
856.327	20537
856.461	20667
856.595	20720
856.729	20731
856.862	20857
856.996	20861
857.13	20834
857.263	20800
857.397	20918
857.53	20697
857.664	20773
857.797	20777
857.931	20849
858.064	20750
858.197	20800
858.331	20735
858.464	20743
858.597	20659
858.731	20708
858.864	20727
858.997	20712
859.13	20765
859.263	20807
859.396	20906
859.529	20686
859.662	20697
859.795	20621
859.928	20800
860.061	20838
860.194	21005
860.327	20857
860.46	20670
860.592	20880
860.725	20739
860.858	20857
860.99	20731
861.123	20659
861.256	20674
861.388	20800
861.521	21523
861.653	20587
861.786	20442
861.918	20632
862.05	20678
862.183	20773
862.315	20724
862.447	20750
862.58	20716
862.712	20503
862.844	20374
862.976	20552
863.108	20480
863.24	20899
863.372	20358
863.504	20400
863.636	20469
863.768	20526
863.9	20503
864.032	20465
864.164	20427
864.296	20393
864.428	20522
864.559	20438
864.691	20454
864.823	20507
864.954	20514
865.086	20457
865.217	20374
865.349	20324
865.48	20358
865.612	20328
865.743	20590
865.875	20358
866.006	20431
866.137	20362
866.269	20320
866.4	20332
866.531	20317
866.662	20332
866.793	20271
866.924	20320
867.055	20370
867.186	20305
867.317	20145
867.448	20305
867.579	20259
867.71	20271
867.841	20271
867.972	20317
868.103	20370
868.233	20286
868.364	20271
868.495	20476
868.625	20465
868.756	20617
868.886	20473
869.017	20473
869.147	20678
869.278	20640
869.408	20545
869.539	20594
869.669	20651
869.799	20583
869.929	20716
870.06	20731
870.19	20804
870.32	20826
870.45	20906
870.58	20967
870.71	21051
870.84	21005
870.97	21009
871.1	20937
871.23	21131
871.36	21199
871.489	21024
871.619	21165
871.749	21112
871.879	21359
872.008	21321
872.138	21093
872.267	21226
872.397	21036
872.526	20971
872.656	21055
872.785	20975
872.915	21180
873.044	21279
873.173	21214
873.303	21294
873.432	21268
873.561	21355
873.69	21310
873.819	21161
873.948	21268
874.077	21211
874.206	21176
874.335	21100
874.464	21264
874.593	21382
874.722	21408
874.851	21534
874.979	21408
875.108	21553
875.237	21412
875.365	21382
875.494	21389
875.623	21389
875.751	21294
875.88	21359
876.008	21515
876.136	21504
876.265	21835
876.393	22002
876.521	21770
876.65	21922
876.778	21739
876.906	21819
877.034	21762
877.162	21869
877.29	21713
877.418	21831
877.546	21846
877.674	21793
877.802	21705
877.93	21850
878.058	21698
878.185	21663
878.313	21762
878.441	21698
878.568	21652
878.696	21713
878.824	21831
878.951	21766
879.079	21876
879.206	22181
879.333	21941
879.461	21736
879.588	21899
879.715	22002
879.842	22143
879.97	21831
880.097	21549
880.224	21637
880.351	21603
880.478	21637
880.605	21534
880.732	21606
880.859	21736
880.986	21663
881.112	21675
881.239	21450
881.366	21260
881.493	21275
881.619	21173
881.746	21268
881.872	21203
881.999	21188
882.125	21100
882.252	21275
882.378	21150
882.505	21203
882.631	21108
882.757	20838
882.883	21001
883.01	20842
883.136	20826
883.262	20800
883.388	20785
883.514	20823
883.64	20861
883.766	20743
883.892	20579
884.018	20598
884.143	20891
884.269	20921
884.395	20522
884.52	20473
884.646	20564
884.772	20480
884.897	20381
885.023	20609
885.148	20629
885.274	20731
885.399	20499
885.524	20511
885.65	20560
885.775	20438
885.9	20499
886.025	20682
886.15	20663
886.275	20552
886.4	20545
886.525	20495
886.65	20476
886.775	20393
886.9	20552
887.025	20701
887.149	20423
887.274	20374
887.399	20377
887.523	20248
887.648	20259
887.773	20229
887.897	20347
888.021	20438
888.146	20278
888.27	20480
888.395	20442
888.519	20381
888.643	20305
888.767	20389
888.891	20248
889.015	20210
889.139	20176
889.263	20122
889.387	20313
889.511	20400
889.635	20214
889.759	20054
889.883	20027
890.006	20081
890.13	20122
890.254	20069
890.377	19936
890.501	20065
890.624	19871
890.748	19936
890.871	19803
890.995	19677
891.118	19708
891.241	19852
891.364	19731
891.488	19856
891.611	19704
891.734	19757
891.857	19742
891.98	19776
892.103	19811
892.226	19833
892.349	19700
892.471	19632
892.594	19696
892.717	19677
892.839	19662
892.962	19597
893.085	19700
893.207	19597
893.33	19491
893.452	19575
893.575	19609
893.697	19723
893.819	19761
893.941	19932
894.064	19811
894.186	19639
894.308	19597
894.43	19715
894.552	19841
894.674	19772
894.796	19605
894.918	19841
895.04	19761
895.161	19734
895.283	19590
895.405	19651
895.526	19662
895.648	19658
895.769	19632
895.891	19738
896.012	19769
896.134	19780
896.255	19658
896.376	19590
896.498	19605
896.619	19734
896.74	19597
896.861	19753
896.982	20039
897.103	19932
897.224	19890
897.345	19822
897.466	19826
897.587	19887
897.708	19947
897.828	19947
897.949	19852
898.07	19761
898.19	19784
898.311	19925
898.431	19875
898.552	19830
898.672	19936
898.792	19944
898.913	19917
899.033	19803
899.153	19552
899.273	19586
899.393	19704
899.513	19658
899.633	19647
899.753	19586
899.873	19476
899.993	19575
900.113	19632
900.232	19540
900.352	19438
900.472	19411
900.591	19415
900.711	19434
900.83	19396
900.95	19384
901.069	19514
901.189	19285
901.308	19084
901.427	18985
901.546	19000
901.665	19088
901.784	19019
901.904	18901
902.023	18875
902.141	18536
902.26	18521
902.379	18559
902.498	18547
902.617	18544
902.735	18555
902.854	18494
902.973	18448
903.091	18178
903.21	18155
903.328	18106
903.446	18155
903.565	17980
903.683	17958
903.801	17885
903.919	17954
904.038	17832
904.156	17870
904.274	17939
904.392	17779
904.51	17695
904.627	17764
904.745	17798
904.863	17828
904.981	17611
905.098	17512
905.216	17497
905.334	17566
905.451	17452
905.569	17532
905.686	17505
905.803	17421
905.921	17220
906.038	17311
906.155	17250
906.272	17166
906.389	17086
906.506	17006
906.623	16984
906.74	16987
906.857	16866
906.974	16915
907.091	16991
907.208	16961
907.324	16965
907.441	16968
907.557	16774
907.674	16736
907.79	16565
907.907	16698
908.023	16778
908.139	16828
908.256	16596
908.372	16535
908.488	16721
908.604	16516
908.72	16527
908.836	16398
908.952	16367
909.068	16417
909.184	16542
909.3	16367
909.415	16462
909.531	16405
909.647	16257
909.762	16200
909.878	16204
909.993	16192
910.108	16162
910.224	16124
910.339	16154
910.454	15968
910.57	15880
910.685	15880
910.8	16196
910.915	16162
911.03	15926
911.145	15701
911.259	15747
911.374	15717
911.489	15694
911.604	15633
911.718	15496
911.833	15519
911.947	15431
912.062	15378
912.176	15507
912.291	15500
912.405	15466
912.519	15747
912.633	15709
912.748	15614
912.862	15523
912.976	15268
913.09	15184
913.204	15306
913.318	15313
913.431	15313
913.545	15302
913.659	15462
913.772	15306
913.886	15249
914	15085
914.113	15146
914.226	15310
914.34	15154
914.453	14967
914.566	15097
914.68	15001
914.793	15013
914.906	14910
915.019	14720
915.132	14640
915.245	14644
915.358	14689
915.47	14773
915.583	14788
915.696	14743
915.809	14845
915.921	14891
916.034	14689
916.146	14651
916.259	14579
916.371	14716
916.483	14708
916.595	14613
916.708	14556
916.82	14629
916.932	14545
917.044	14530
917.156	14469
917.268	14381
917.38	14336
917.491	14339
917.603	14408
917.715	14514
917.826	14473
917.938	14381
918.049	14210
918.161	14427
918.272	14568
918.384	14518
918.495	14423
918.606	14195
918.717	14134
918.828	14290
918.939	14134
919.05	14081
919.161	14210
919.272	13947
919.383	14043
919.494	14233
919.604	14374
919.715	14153
919.826	14142
919.936	14180
920.047	14115
920.157	14199
920.267	14358
920.378	14290
920.488	14062
920.598	14347
920.708	14480
920.818	14256
920.928	14183
921.038	14370
921.148	14381
921.258	14130
921.368	14054
921.477	13791
921.587	13860
921.697	13780
921.806	13860
921.916	13708
922.025	13518
922.134	13559
922.244	13472
922.353	13521
922.462	13468
922.571	13365
922.68	13232
922.789	13213
922.898	13206
923.007	13076
923.116	13228
923.224	13187
923.333	13141
923.442	13038
923.55	13122
923.659	12958
923.767	13171
923.876	13038
923.984	13053
924.092	12859
924.201	12939
924.309	12947
924.417	12943
924.525	12852
924.633	12932
924.741	13803
924.849	12684
924.956	12821
925.064	12726
925.172	12654
925.279	12669
925.387	12700
925.494	12642
925.602	12703
925.709	12703
925.816	12559
925.924	12490
926.031	12703
926.138	12589
926.245	12574
926.352	12532
926.459	12623
926.566	12722
926.673	12483
926.779	12391
926.886	12414
926.993	12197
927.099	12224
927.206	12155
927.312	12155
927.419	12251
927.525	12155
927.631	12228
927.737	12003
927.843	12087
927.95	11931
928.056	11999
928.162	11980
928.267	12007
928.373	12597
928.479	12087
928.585	11836
928.69	12015
928.796	12060
928.901	11882
929.007	11729
929.112	11939
929.218	11908
929.323	11813
929.428	11752
929.533	11901
929.638	11707
929.743	11638
929.848	11752
929.953	11695
930.058	11589
930.163	11356
930.267	11455
930.372	11554
930.477	11429
930.581	11604
930.685	11463
930.79	11398
930.894	11398
930.998	11429
931.103	11425
931.207	11105
931.311	11121
931.415	10984
931.519	10801
931.623	10793
