Data from test_V78500241_1461.txt Node
Date: Fri Mar 25 15:20:01 CST 2022
User: usil
Spectrometer: V785-0024
Trigger mode: 0
Integration Time (sec): 4.000000E-1
Scans to average: 1
Nonlinearity correction enabled: false
Boxcar width: 0
Storing dark spectrum: false
XAxis mode: Wavelengths
Number of Pixels in Spectrum: 1024
>>>>>Begin Spectral Data<<<<<
801.071	27865
801.214	27736
801.356	27488
801.499	27549
801.641	27443
801.783	27260
801.926	27545
802.068	27389
802.211	27378
802.353	27207
802.496	27112
802.638	27005
802.78	26975
802.923	26960
803.065	26845
803.208	26921
803.35	26937
803.492	27051
803.635	27135
803.777	27154
803.919	27214
804.061	27427
804.204	27260
804.346	27264
804.488	27028
804.63	27237
804.773	27131
804.915	27157
805.057	27165
805.199	27195
805.341	27332
805.483	27431
805.626	27226
805.768	27279
805.91	27351
806.052	27317
806.194	27260
806.336	27557
806.478	27317
806.62	27226
806.762	27294
806.904	27595
807.046	27941
807.188	27743
807.33	27835
807.472	27869
807.614	27713
807.756	27739
807.898	27622
808.04	27587
808.182	27530
808.324	27694
808.465	27667
808.607	27762
808.749	27979
808.891	28013
809.033	28242
809.174	28044
809.316	27914
809.458	27873
809.6	27861
809.741	27987
809.883	28226
810.025	28242
810.166	28287
810.308	28246
810.45	28226
810.591	28200
810.733	28032
810.875	27892
811.016	27846
811.158	27819
811.299	28055
811.441	28032
811.582	28185
811.724	28093
811.865	27922
812.007	27953
812.148	27918
812.29	28086
812.431	28105
812.573	28371
812.714	28462
812.855	28356
812.997	28584
813.138	28774
813.279	28641
813.421	28569
813.562	28443
813.703	28367
813.845	28276
813.986	27991
814.127	27732
814.268	27766
814.41	27724
814.551	27648
814.692	27724
814.833	27610
814.974	27671
815.115	27698
815.256	27534
815.397	27625
815.539	27530
815.68	27629
815.821	27363
815.962	27511
816.103	27420
816.244	27393
816.385	27222
816.526	27104
816.666	27161
816.807	27013
816.948	27135
817.089	26933
817.23	27127
817.371	27017
817.512	27017
817.653	26948
817.793	26998
817.934	26902
818.075	26990
818.216	26948
818.356	26861
818.497	26853
818.638	26845
818.778	26636
818.919	26693
819.06	26857
819.2	26845
819.341	26925
819.481	27039
819.622	27074
819.762	27306
819.903	27279
820.043	27135
820.184	27173
820.324	27192
820.465	27184
820.605	27062
820.746	27001
820.886	26849
821.026	27055
821.167	26914
821.307	27146
821.447	26952
821.588	26872
821.728	26758
821.868	26522
822.008	26393
822.149	26389
822.289	26328
822.429	26107
822.569	25993
822.709	26115
822.849	25982
822.99	25978
823.13	25887
823.27	25879
823.41	25765
823.55	25632
823.69	25723
823.83	25875
823.97	25753
824.11	25552
824.25	25521
824.389	25601
824.529	25753
824.669	25765
824.809	25742
824.949	25704
825.089	25734
825.228	25586
825.368	25499
825.508	25457
825.648	25479
825.787	25400
825.927	25438
826.067	25343
826.206	25457
826.346	25438
826.485	25590
826.625	25537
826.765	25586
826.904	25419
827.044	25266
827.183	25259
827.323	25137
827.462	25225
827.601	25221
827.741	25160
827.88	25285
828.02	25050
828.159	25266
828.298	25148
828.437	25343
828.577	25225
828.716	25217
828.855	25099
828.994	24973
829.134	24924
829.273	24916
829.412	24859
829.551	24871
829.69	24951
829.829	24932
829.968	24905
830.107	24897
830.246	24856
830.385	24779
830.524	24669
830.663	24738
830.802	24673
830.941	24513
831.08	24403
831.219	24540
831.357	24521
831.496	24776
831.635	24342
831.774	24346
831.913	24243
832.051	24194
832.19	24319
832.329	24323
832.467	24220
832.606	24159
832.744	24034
832.883	24114
833.022	24159
833.16	24102
833.299	24133
833.437	24155
833.576	24296
833.714	24262
833.852	24311
833.991	24277
834.129	24281
834.267	24273
834.406	24194
834.544	24353
834.682	24369
834.821	24190
834.959	24273
835.097	24091
835.235	24144
835.373	24114
835.511	24159
835.65	24083
835.788	24091
835.926	23988
836.064	23813
836.202	23745
836.34	24049
836.478	24098
836.615	24045
836.753	24057
836.891	24125
837.029	24068
837.167	23859
837.305	23912
837.443	23798
837.58	23866
837.718	24026
837.856	23832
837.993	23798
838.131	23897
838.269	23687
838.406	23821
838.544	23649
838.681	23562
838.819	23444
838.956	23383
839.094	23273
839.231	23448
839.369	23600
839.506	23840
839.643	23585
839.781	23395
839.918	23318
840.055	23395
840.193	23292
840.33	23216
840.467	23216
840.604	23254
840.742	23493
840.879	23159
841.016	23056
841.153	23174
841.29	23417
841.427	23216
841.564	23425
841.701	23250
841.838	23147
841.975	23143
842.112	23105
842.249	23216
842.385	23052
842.522	23204
842.659	23204
842.796	23018
842.933	22987
843.069	22946
843.206	22991
843.343	22923
843.479	23006
843.616	23037
843.752	22824
843.889	22812
844.025	23098
844.162	22702
844.298	22862
844.435	22710
844.571	22717
844.708	22869
844.844	22904
844.98	22885
845.117	22889
845.253	22637
845.389	22603
845.525	22584
845.661	22675
845.798	22443
845.934	22588
846.07	22417
846.206	22470
846.342	22592
846.478	22466
846.614	22382
846.75	22185
846.886	22070
847.022	22303
847.158	22318
847.294	22147
847.429	22249
847.565	22204
847.701	22481
847.837	22021
847.972	22021
848.108	21937
848.244	22006
848.379	21838
848.515	21781
848.65	21705
848.786	21865
848.921	21770
849.057	21941
849.192	21823
849.328	21846
849.463	21838
849.598	21812
849.734	21591
849.869	21728
850.004	21587
850.14	21701
850.275	21587
850.41	21485
850.545	21507
850.68	21587
850.815	21629
850.95	21443
851.085	21660
851.22	21679
851.355	21564
851.49	21622
851.625	21523
851.76	21561
851.895	21530
852.03	21439
852.165	21542
852.299	21671
852.434	21739
852.569	21755
852.703	21675
852.838	21660
852.973	21686
853.107	21618
853.242	21477
853.376	21382
853.511	21268
853.645	21351
853.78	21462
853.914	21450
854.048	21287
854.183	21374
854.317	21477
854.451	21648
854.585	21466
854.72	21462
854.854	21481
854.988	21439
855.122	21496
855.256	21306
855.39	21420
855.524	21454
855.658	21526
855.792	21469
855.926	21454
856.06	21526
856.194	21545
856.327	21245
856.461	21454
856.595	21332
856.729	21443
856.862	21469
856.996	21355
857.13	21538
857.263	21572
857.397	21488
857.53	21340
857.664	21370
857.797	21370
857.931	21473
858.064	21420
858.197	21557
858.331	21424
858.464	21367
858.597	21344
858.731	21431
858.864	21359
858.997	21386
859.13	21439
859.263	21424
859.396	21443
859.529	21351
859.662	21317
859.795	21317
859.928	21469
860.061	21614
860.194	21485
860.327	21500
860.46	21492
860.592	21549
860.725	21576
860.858	21469
860.99	21382
861.123	21405
861.256	21389
861.388	21416
861.521	21937
861.653	21405
861.786	21169
861.918	21184
862.05	21256
862.183	21310
862.315	21336
862.447	21317
862.58	21412
862.712	21146
862.844	21154
862.976	21272
863.108	21089
863.24	21553
863.372	21009
863.504	21211
863.636	21230
863.768	21024
863.9	21119
864.032	21096
864.164	21020
864.296	21173
864.428	21173
864.559	21157
864.691	21199
864.823	21093
864.954	21135
865.086	21085
865.217	20979
865.349	20952
865.48	21043
865.612	20986
865.743	21081
865.875	21055
866.006	20948
866.137	20998
866.269	21070
866.4	20952
866.531	20971
866.662	20982
866.793	20872
866.924	20979
867.055	21013
867.186	21032
867.317	20880
867.448	20849
867.579	20933
867.71	20777
867.841	20868
867.972	20895
868.103	20883
868.233	20998
868.364	20872
868.495	21047
868.625	21131
868.756	21332
868.886	21135
869.017	21184
869.147	21268
869.278	21287
869.408	21211
869.539	21226
869.669	21344
869.799	21207
869.929	21313
870.06	21195
870.19	21439
870.32	21481
870.45	21515
870.58	21549
870.71	21656
870.84	21637
870.97	21519
871.1	21500
871.23	21694
871.36	21888
871.489	21610
871.619	21709
871.749	21812
871.879	21690
872.008	21945
872.138	21785
872.267	21804
872.397	21538
872.526	21564
872.656	21732
872.785	21591
872.915	21785
873.044	21797
873.173	21827
873.303	21743
873.432	21785
873.561	21800
873.69	21869
873.819	21873
873.948	21960
874.077	21713
874.206	21743
874.335	21755
874.464	21819
874.593	21937
874.722	21975
874.851	22010
874.979	22013
875.108	22204
875.237	22048
875.365	21934
875.494	22055
875.623	22120
875.751	21956
875.88	22082
876.008	22082
876.136	22261
876.265	22409
876.393	22478
876.521	22390
876.65	22523
876.778	22554
876.906	22344
877.034	22306
877.162	22405
877.29	22352
877.418	22329
877.546	22375
877.674	22382
877.802	22314
877.93	22367
878.058	22207
878.185	22329
878.313	22348
878.441	22230
878.568	22215
878.696	22219
878.824	22497
878.951	22550
879.079	22561
879.206	22687
879.333	22550
879.461	22367
879.588	22440
879.715	22550
879.842	22653
879.97	22436
880.097	22169
880.224	22207
880.351	22219
880.478	22200
880.605	22135
880.732	22280
880.859	22352
880.986	22185
881.112	22158
881.239	21998
881.366	21884
881.493	21698
881.619	21804
881.746	21831
881.872	21762
881.999	21804
882.125	21652
882.252	21789
882.378	21846
882.505	21854
882.631	21530
882.757	21481
882.883	21629
883.01	21428
883.136	21393
883.262	21283
883.388	21226
883.514	21408
883.64	21534
883.766	21355
883.892	21310
884.018	21233
884.143	21355
884.269	21389
884.395	21180
884.52	21070
884.646	21173
884.772	21108
884.897	20899
885.023	21176
885.148	21188
885.274	21176
885.399	21154
885.524	21062
885.65	21085
885.775	21070
885.9	21089
886.025	21173
886.15	21127
886.275	21001
886.4	20937
886.525	21020
886.65	21066
886.775	20899
886.9	21047
887.025	21256
887.149	21028
887.274	20944
887.399	20739
887.523	20883
887.648	20754
887.773	20750
887.897	20952
888.021	20899
888.146	20777
888.27	20982
888.395	20861
888.519	20845
888.643	20853
888.767	20849
888.891	20682
889.015	20648
889.139	20712
889.263	20571
889.387	20743
889.511	20887
889.635	20693
889.759	20617
889.883	20678
890.006	20716
890.13	20792
890.254	20507
890.377	20602
890.501	20438
890.624	20427
890.748	20499
890.871	20351
890.995	20256
891.118	20134
891.241	20229
891.364	20282
891.488	20301
891.611	20218
891.734	20164
891.857	20206
891.98	20240
892.103	20301
892.226	20187
892.349	20016
892.471	20008
892.594	20176
892.717	20157
892.839	20164
892.962	20176
893.085	20240
893.207	20149
893.33	20043
893.452	19913
893.575	20195
893.697	20069
893.819	20275
893.941	20286
894.064	20214
894.186	19997
894.308	20084
894.43	20142
894.552	20336
894.674	20149
894.796	20084
894.918	20096
895.04	20084
895.161	20103
895.283	20199
895.405	20016
895.526	20077
895.648	20153
895.769	20187
895.891	20145
896.012	20202
896.134	20122
896.255	20058
896.376	20138
896.498	20069
896.619	20214
896.74	20111
896.861	20172
896.982	20362
897.103	20655
897.224	20457
897.345	20362
897.466	20206
897.587	20366
897.708	20465
897.828	20381
897.949	20240
898.07	20206
898.19	20263
898.311	20313
898.431	20275
898.552	20298
898.672	20396
898.792	20480
898.913	20301
899.033	20244
899.153	20092
899.273	20012
899.393	20134
899.513	20096
899.633	20161
899.753	19951
899.873	20134
899.993	20172
900.113	19921
900.232	19947
900.352	19974
900.472	19944
900.591	19811
900.711	19826
900.83	19864
900.95	19986
901.069	20027
901.189	19738
901.308	19559
901.427	19518
901.546	19430
901.665	19400
901.784	19422
901.904	19365
902.023	19293
902.141	19129
902.26	19015
902.379	18989
902.498	18966
902.617	18909
902.735	19110
902.854	18932
902.973	18867
903.091	18677
903.21	18673
903.328	18703
903.446	18566
903.565	18376
903.683	18525
903.801	18235
903.919	18296
904.038	18399
904.156	18251
904.274	18308
904.392	18106
904.51	18182
904.627	18220
904.745	18197
904.863	18174
904.981	18030
905.098	17878
905.216	17901
905.334	17904
905.451	17897
905.569	17805
905.686	17988
905.803	17836
905.921	17630
906.038	17752
906.155	17775
906.272	17608
906.389	17573
906.506	17448
906.623	17471
906.74	17459
906.857	17231
906.974	17379
907.091	17490
907.208	17486
907.324	17425
907.441	17227
907.557	17200
907.674	17178
907.79	17048
907.907	16999
908.023	17159
908.139	17136
908.256	17056
908.372	17041
908.488	16972
908.604	16866
908.72	16919
908.836	16767
908.952	16839
909.068	16736
909.184	16896
909.3	16889
909.415	16858
909.531	16873
909.647	16577
909.762	16561
909.878	16554
909.993	16535
910.108	16516
910.224	16546
910.339	16569
910.454	16405
910.57	16284
910.685	16379
910.8	16573
910.915	16500
911.03	16325
911.145	16265
911.259	16120
911.374	16074
911.489	16040
911.604	16048
911.718	15804
911.833	15953
911.947	15861
912.062	15770
912.176	15861
912.291	15884
912.405	15895
912.519	16055
912.633	16013
912.748	15983
912.862	15880
912.976	15747
913.09	15564
913.204	15743
913.318	15713
913.431	15835
913.545	15743
913.659	15865
913.772	15644
913.886	15504
914	15519
914.113	15622
914.226	15679
914.34	15557
914.453	15412
914.566	15477
914.68	15367
914.793	15351
914.906	15074
915.019	15089
915.132	15020
915.245	15104
915.358	15058
915.47	15165
915.583	15154
915.696	15058
915.809	15199
915.921	15146
916.034	15100
916.146	15009
916.259	14956
916.371	15036
916.483	15104
916.595	15024
916.708	14998
916.82	15009
916.932	14948
917.044	14876
917.156	14788
917.268	14781
917.38	14712
917.491	14758
917.603	14781
917.715	14785
917.826	14845
917.938	14693
918.049	14556
918.161	14754
918.272	14868
918.384	14891
918.495	14640
918.606	14533
918.717	14473
918.828	14686
918.939	14503
919.05	14530
919.161	14457
919.272	14336
919.383	14484
919.494	14598
919.604	14640
919.715	14507
919.826	14393
919.936	14522
920.047	14617
920.157	14400
920.267	14686
920.378	14480
920.488	14495
920.598	14727
920.708	14811
920.818	14552
920.928	14625
921.038	14667
921.148	14743
921.258	14476
921.368	14351
921.477	14218
921.587	14172
921.697	14111
921.806	14123
921.916	14123
922.025	13879
922.134	13849
922.244	13871
922.353	13967
922.462	13731
922.571	13693
922.68	13506
922.789	13575
922.898	13586
923.007	13430
923.116	13514
923.224	13586
923.333	13544
923.442	13369
923.55	13346
923.659	13285
923.767	13415
923.876	13354
923.984	13320
924.092	13266
924.201	13304
924.309	13118
924.417	13168
924.525	13103
924.633	13152
924.741	13917
924.849	12993
924.956	13107
925.064	12943
925.172	12878
925.279	12901
925.387	13012
925.494	12943
925.602	12989
925.709	12989
925.816	12863
925.924	12810
926.031	12878
926.138	12924
926.245	12909
926.352	12802
926.459	12837
926.566	12966
926.673	12848
926.779	12707
926.886	12642
926.993	12582
927.099	12456
927.206	12441
927.312	12369
927.419	12612
927.525	12544
927.631	12464
927.737	12407
927.843	12399
927.95	12163
928.056	12315
928.162	12330
928.267	12410
928.373	12901
928.479	12361
928.585	12178
928.69	12308
928.796	12376
928.901	12178
929.007	12091
929.112	12213
929.218	12152
929.323	12038
929.428	12095
929.533	12197
929.638	11958
929.743	12007
929.848	11980
929.953	12026
930.058	11901
930.163	11760
930.267	11783
930.372	11885
930.477	11691
930.581	11855
930.685	11775
930.79	11570
930.894	11627
930.998	11600
931.103	11771
931.207	11391
931.311	11337
931.415	11162
931.519	11048
931.623	11045
