Data from test_V78500241_1139.txt Node
Date: Fri Mar 25 15:17:47 CST 2022
User: usil
Spectrometer: V785-0024
Trigger mode: 0
Integration Time (sec): 4.000000E-1
Scans to average: 1
Nonlinearity correction enabled: false
Boxcar width: 0
Storing dark spectrum: false
XAxis mode: Wavelengths
Number of Pixels in Spectrum: 1024
>>>>>Begin Spectral Data<<<<<
801.071	28310
801.214	28166
801.356	28006
801.499	27797
801.641	27804
801.783	27743
801.926	27827
802.068	27641
802.211	27644
802.353	27485
802.496	27431
802.638	27526
802.78	27416
802.923	27260
803.065	27412
803.208	27298
803.35	27405
803.492	27469
803.635	27614
803.777	27504
803.919	27648
804.061	27873
804.204	27633
804.346	27622
804.488	27496
804.63	27614
804.773	27466
804.915	27705
805.057	27759
805.199	27732
805.341	27701
805.483	27698
805.626	27698
805.768	27675
805.91	27766
806.052	27781
806.194	27633
806.336	27895
806.478	27709
806.62	27705
806.762	27941
806.904	28021
807.046	28265
807.188	28166
807.33	28143
807.472	28147
807.614	28040
807.756	28116
807.898	28093
808.04	27983
808.182	28017
808.324	28070
808.465	28006
808.607	28310
808.749	28382
808.891	28649
809.033	28531
809.174	28535
809.316	28329
809.458	28428
809.6	28344
809.741	28588
809.883	28546
810.025	28782
810.166	28698
810.308	28554
810.45	28592
810.591	28542
810.733	28428
810.875	28386
811.016	28363
811.158	28318
811.299	28523
811.441	28664
811.582	28668
811.724	28462
811.865	28310
812.007	28360
812.148	28440
812.29	28371
812.431	28599
812.573	28782
812.714	28930
812.855	29003
812.997	29094
813.138	29143
813.279	29064
813.421	29014
813.562	28972
813.703	28790
813.845	28615
813.986	28466
814.127	28265
814.268	28124
814.41	28158
814.551	28143
814.692	28253
814.833	28135
814.974	28055
815.115	28078
815.256	28067
815.397	28082
815.539	28074
815.68	27991
815.821	27876
815.962	27911
816.103	28010
816.244	27827
816.385	27880
816.526	27701
816.666	27595
816.807	27462
816.948	27523
817.089	27443
817.23	27488
817.371	27401
817.512	27439
817.653	27561
817.793	27344
817.934	27386
818.075	27511
818.216	27317
818.356	27519
818.497	27302
818.638	27241
818.778	27146
818.919	27272
819.06	27272
819.2	27241
819.341	27473
819.481	27431
819.622	27732
819.762	27846
819.903	27743
820.043	27580
820.184	27526
820.324	27637
820.465	27656
820.605	27553
820.746	27526
820.886	27447
821.026	27553
821.167	27663
821.307	27485
821.447	27469
821.588	27237
821.728	27306
821.868	27173
822.008	26960
822.149	26883
822.289	26925
822.429	26720
822.569	26602
822.709	26678
822.849	26594
822.99	26533
823.13	26461
823.27	26419
823.41	26332
823.55	26119
823.69	26233
823.83	26259
823.97	26275
824.11	26164
824.25	26103
824.389	26115
824.529	26248
824.669	26195
824.809	26229
824.949	26221
825.089	26191
825.228	26210
825.368	25928
825.508	26069
825.648	26069
825.787	26054
825.927	25997
826.067	25921
826.206	25932
826.346	25970
826.485	26081
826.625	26012
826.765	26187
826.904	26005
827.044	25860
827.183	25620
827.323	25685
827.462	25731
827.601	25757
827.741	25632
827.88	25696
828.02	25552
828.159	25613
828.298	25769
828.437	25807
828.577	25594
828.716	25784
828.855	25715
828.994	25316
829.134	25388
829.273	25514
829.412	25388
829.551	25483
829.69	25285
829.829	25499
829.968	25449
830.107	25434
830.246	25434
830.385	25285
830.524	25362
830.663	25266
830.802	25046
830.941	25118
831.08	25069
831.219	25107
831.357	25156
831.496	25251
831.635	25084
831.774	25019
831.913	24897
832.051	24700
832.19	24715
832.329	25000
832.467	24738
832.606	24707
832.744	24738
832.883	24719
833.022	24665
833.16	24639
833.299	24719
833.437	24829
833.576	24848
833.714	24772
833.852	24947
833.991	24954
834.129	24829
834.267	24935
834.406	24829
834.544	24795
834.682	24848
834.821	24730
834.959	24882
835.097	24791
835.235	24806
835.373	24730
835.511	24669
835.65	24601
835.788	24677
835.926	24547
836.064	24464
836.202	24315
836.34	24707
836.478	24700
836.615	24715
836.753	24639
836.891	24654
837.029	24585
837.167	24544
837.305	24513
837.443	24441
837.58	24589
837.718	24490
837.856	24486
837.993	24369
838.131	24467
838.269	24224
838.406	24319
838.544	24243
838.681	24095
838.819	24125
838.956	23942
839.094	23935
839.231	23923
839.369	24038
839.506	24197
839.643	24034
839.781	23980
839.918	23889
840.055	24057
840.193	23992
840.33	23748
840.467	23809
840.604	23882
840.742	24079
840.879	23764
841.016	23699
841.153	23821
841.29	23984
841.427	23821
841.564	23832
841.701	23988
841.838	23805
841.975	23684
842.112	23893
842.249	23623
842.385	23551
842.522	23813
842.659	23707
842.796	23589
842.933	23619
843.069	23505
843.206	23562
843.343	23680
843.479	23611
843.616	23551
843.752	23467
843.889	23455
844.025	23535
844.162	23455
844.298	23459
844.435	23299
844.571	23543
844.708	23395
844.844	23551
844.98	23516
845.117	23452
845.253	23360
845.389	23315
845.525	23482
845.661	23132
845.798	23185
845.934	23185
846.07	23090
846.206	23151
846.342	23250
846.478	23117
846.614	22862
846.75	22790
846.886	22839
847.022	22850
847.158	22995
847.294	22820
847.429	22949
847.565	22797
847.701	23086
847.837	22489
847.972	22485
848.108	22668
848.244	22519
848.379	22478
848.515	22382
848.65	22470
848.786	22424
848.921	22382
849.057	22557
849.192	22474
849.328	22356
849.463	22405
849.598	22413
849.734	22390
849.869	22325
850.004	22200
850.14	22253
850.275	22234
850.41	22154
850.545	22006
850.68	22234
850.815	22131
850.95	22120
851.085	22352
851.22	22329
851.355	22147
851.49	22291
851.625	22215
851.76	22166
851.895	22124
852.03	22070
852.165	22120
852.299	22204
852.434	22200
852.569	22280
852.703	22253
852.838	22284
852.973	22261
853.107	22143
853.242	22112
853.376	22010
853.511	21956
853.645	21854
853.78	22158
853.914	22021
854.048	22029
854.183	21918
854.317	22082
854.451	22181
854.585	22101
854.72	21949
854.854	22109
854.988	21945
855.122	21945
855.256	21850
855.39	22128
855.524	21994
855.658	21945
855.792	21975
855.926	22013
856.06	22055
856.194	22093
856.327	22010
856.461	21983
856.595	21934
856.729	21991
856.862	22128
856.996	22055
857.13	22055
857.263	22131
857.397	22002
857.53	22010
857.664	22048
857.797	22086
857.931	22272
858.064	22131
858.197	22010
858.331	21937
858.464	22002
858.597	21994
858.731	22021
858.864	21918
858.997	21808
859.13	22055
859.263	22017
859.396	22055
859.529	21979
859.662	21850
859.795	21937
859.928	22036
860.061	22287
860.194	22128
860.327	22067
860.46	22120
860.592	22162
860.725	22166
860.858	22215
860.99	22044
861.123	21911
861.256	21911
861.388	22177
861.521	22774
861.653	21827
861.786	21797
861.918	21717
862.05	21857
862.183	21880
862.315	21911
862.447	22006
862.58	21945
862.712	21789
862.844	21759
862.976	21739
863.108	21797
863.24	22223
863.372	21759
863.504	21618
863.636	21709
863.768	21781
863.9	21698
864.032	21778
864.164	21591
864.296	21800
864.428	21793
864.559	21781
864.691	21728
864.823	21739
864.954	21846
865.086	21644
865.217	21724
865.349	21545
865.48	21618
865.612	21644
865.743	21698
865.875	21644
866.006	21534
866.137	21595
866.269	21652
866.4	21667
866.531	21606
866.662	21462
866.793	21500
866.924	21504
867.055	21656
867.186	21526
867.317	21469
867.448	21370
867.579	21595
867.71	21519
867.841	21618
867.972	21583
868.103	21401
868.233	21428
868.364	21511
868.495	21667
868.625	21732
868.756	21888
868.886	21709
869.017	21793
869.147	21903
869.278	21895
869.408	21789
869.539	21827
869.669	21880
869.799	21739
869.929	21960
870.06	21816
870.19	21972
870.32	22048
870.45	22048
870.58	22154
870.71	22284
870.84	22299
870.97	22280
871.1	22211
871.23	22276
871.36	22409
871.489	22253
871.619	22223
871.749	22314
871.879	22375
872.008	22500
872.138	22341
872.267	22363
872.397	22284
872.526	22124
872.656	22162
872.785	22238
872.915	22318
873.044	22402
873.173	22428
873.303	22246
873.432	22462
873.561	22512
873.69	22276
873.819	22409
873.948	22516
874.077	22390
874.206	22284
874.335	22291
874.464	22527
874.593	22641
874.722	22557
874.851	22538
874.979	22622
875.108	22656
875.237	22424
875.365	22535
875.494	22500
875.623	22634
875.751	22668
875.88	22565
876.008	22649
876.136	22824
876.265	22961
876.393	23098
876.521	22972
876.65	23090
876.778	23010
876.906	22854
877.034	22908
877.162	22892
877.29	22961
877.418	22847
877.546	22824
877.674	22790
877.802	22896
877.93	22946
878.058	22843
878.185	22858
878.313	22858
878.441	22820
878.568	22824
878.696	22892
878.824	22995
878.951	23041
879.079	23041
879.206	23227
879.333	23170
879.461	22991
879.588	23044
879.715	23086
879.842	23109
879.97	22991
880.097	22812
880.224	22630
880.351	22816
880.478	22748
880.605	22672
880.732	22809
880.859	23117
880.986	22847
881.112	22645
881.239	22653
881.366	22485
881.493	22318
881.619	22402
881.746	22344
881.872	22375
881.999	22268
882.125	22268
882.252	22287
882.378	22386
882.505	22322
882.631	22219
882.757	22070
882.883	22025
883.01	21998
883.136	21857
883.262	21926
883.388	21838
883.514	22112
883.64	22032
883.766	21903
883.892	21717
884.018	21751
884.143	21956
884.269	22109
884.395	21663
884.52	21682
884.646	21614
884.772	21633
884.897	21652
885.023	21599
885.148	21690
885.274	21907
885.399	21701
885.524	21701
885.65	21682
885.775	21568
885.9	21580
886.025	21743
886.15	21667
886.275	21519
886.4	21485
886.525	21614
886.65	21519
886.775	21545
886.9	21694
887.025	21720
887.149	21629
887.274	21443
887.399	21496
887.523	21439
887.648	21386
887.773	21363
887.897	21439
888.021	21386
888.146	21298
888.27	21481
888.395	21416
888.519	21447
888.643	21351
888.767	21466
888.891	21313
889.015	21279
889.139	21283
889.263	21249
889.387	21310
889.511	21435
889.635	21249
889.759	21154
889.883	21146
890.006	21233
890.13	21313
890.254	21108
890.377	21093
890.501	20960
890.624	20891
890.748	20902
890.871	20826
890.995	20754
891.118	20594
891.241	20712
891.364	20754
891.488	20750
891.611	20758
891.734	20758
891.857	20838
891.98	20765
892.103	20838
892.226	20746
892.349	20667
892.471	20629
892.594	20720
892.717	20727
892.839	20686
892.962	20556
893.085	20648
893.207	20788
893.33	20556
893.452	20480
893.575	20594
893.697	20587
893.819	20811
893.941	20845
894.064	20819
894.186	20659
894.308	20522
894.43	20815
894.552	20746
894.674	20674
894.796	20556
894.918	20587
895.04	20617
895.161	20636
895.283	20697
895.405	20530
895.526	20598
895.648	20617
895.769	20644
895.891	20625
896.012	20697
896.134	20590
896.255	20670
896.376	20552
896.498	20571
896.619	20609
896.74	20621
896.861	20579
896.982	20948
897.103	21028
897.224	20887
897.345	20906
897.466	20762
897.587	20838
897.708	21104
897.828	20899
897.949	20811
898.07	20655
898.19	20777
898.311	20834
898.431	20830
898.552	20731
898.672	20883
898.792	20906
898.913	20864
899.033	20693
899.153	20629
899.273	20503
899.393	20522
899.513	20594
899.633	20537
899.753	20670
899.873	20571
899.993	20465
900.113	20473
900.232	20560
900.352	20484
900.472	20366
900.591	20202
900.711	20495
900.83	20237
900.95	20492
901.069	20400
901.189	20149
901.308	19951
901.427	19928
901.546	19898
901.665	19970
901.784	19955
901.904	19811
902.023	19628
902.141	19510
902.26	19487
902.379	19491
902.498	19392
902.617	19426
902.735	19373
902.854	19285
902.973	19377
903.091	19129
903.21	19088
903.328	19187
903.446	18977
903.565	18947
903.683	19000
903.801	18764
903.919	18894
904.038	18916
904.156	18764
904.274	18677
904.392	18642
904.51	18711
904.627	18673
904.745	18703
904.863	18795
904.981	18372
905.098	18311
905.216	18361
905.334	18403
905.451	18388
905.569	18327
905.686	18353
905.803	18327
905.921	18171
906.038	18239
906.155	18148
906.272	18083
906.389	17973
906.506	17942
906.623	17916
906.74	17794
906.857	17748
906.974	17866
907.091	17973
907.208	18015
907.324	17942
907.441	17722
907.557	17619
907.674	17573
907.79	17535
907.907	17493
908.023	17611
908.139	17551
908.256	17501
908.372	17406
908.488	17376
908.604	17318
908.72	17349
908.836	17326
908.952	17265
909.068	17258
909.184	17334
909.3	17231
909.415	17296
909.531	17288
909.647	17094
909.762	16949
909.878	16953
909.993	17041
910.108	16965
910.224	16972
910.339	16949
910.454	16904
910.57	16752
910.685	16713
910.8	17048
910.915	17025
911.03	16801
911.145	16645
911.259	16649
911.374	16668
911.489	16432
911.604	16455
911.718	16325
911.833	16299
911.947	16287
912.062	16135
912.176	16379
912.291	16200
912.405	16314
912.519	16447
912.633	16413
912.748	16329
912.862	16310
912.976	16181
913.09	15991
913.204	16131
913.318	16177
913.431	16299
913.545	16188
913.659	16280
913.772	16036
913.886	15941
914	15884
914.113	16059
914.226	15979
914.34	16051
914.453	15869
914.566	15945
914.68	15686
914.793	15736
914.906	15580
915.019	15507
915.132	15477
915.245	15561
915.358	15530
915.47	15496
915.583	15492
915.696	15507
915.809	15584
915.921	15610
916.034	15439
916.146	15431
916.259	15359
916.371	15488
916.483	15504
916.595	15389
916.708	15359
916.82	15329
916.932	15367
917.044	15302
917.156	15268
917.268	15150
917.38	15089
917.491	15119
917.603	15161
917.715	15230
917.826	15142
917.938	15123
918.049	15005
918.161	14975
918.272	15241
918.384	15207
918.495	15077
918.606	14914
918.717	14834
918.828	14861
918.939	14891
919.05	14849
919.161	14925
919.272	14788
919.383	14735
919.494	14861
919.604	15218
919.715	14887
919.826	14769
919.936	14872
920.047	14902
920.157	14876
920.267	15009
920.378	14838
920.488	14823
920.598	14952
920.708	15154
920.818	15024
920.928	15055
921.038	15127
921.148	15150
921.258	14781
921.368	14720
921.477	14625
921.587	14644
921.697	14396
921.806	14648
921.916	14431
922.025	14210
922.134	14229
922.244	14130
922.353	14240
922.462	14054
922.571	14081
922.68	13974
922.789	13753
922.898	13906
923.007	13734
923.116	13799
923.224	13788
923.333	13780
923.442	13685
923.55	13731
923.659	13795
923.767	13605
923.876	13597
923.984	13685
924.092	13552
924.201	13662
924.309	13548
924.417	13499
924.525	13559
924.633	13567
924.741	14423
924.849	13255
924.956	13460
925.064	13183
925.172	13278
925.279	13270
925.387	13312
925.494	13308
925.602	13346
925.709	13339
925.816	13107
925.924	13285
926.031	13259
926.138	13091
926.245	13263
926.352	13110
926.459	13240
926.566	13194
926.673	13126
926.779	12962
926.886	12897
926.993	12840
927.099	12814
927.206	12833
927.312	12852
927.419	12848
927.525	12821
927.631	12856
927.737	12703
927.843	12566
927.95	12555
928.056	12593
928.162	12585
928.267	12654
928.373	13133
928.479	12703
928.585	12448
928.69	12601
928.796	12582
928.901	12547
929.007	12300
929.112	12437
929.218	12437
929.323	12410
929.428	12403
929.533	12509
929.638	12315
929.743	12254
929.848	12304
929.953	12334
930.058	12213
930.163	12007
930.267	11999
930.372	12186
930.477	11954
930.581	12285
930.685	12038
930.79	11908
930.894	11859
930.998	11836
931.103	12030
931.207	11619
931.311	11573
931.415	11486
931.519	11250
931.623	11273
