Data from test_V78500241_2226.txt Node
Date: Fri Mar 25 15:25:21 CST 2022
User: usil
Spectrometer: V785-0024
Trigger mode: 0
Integration Time (sec): 4.000000E-1
Scans to average: 1
Nonlinearity correction enabled: false
Boxcar width: 0
Storing dark spectrum: false
XAxis mode: Wavelengths
Number of Pixels in Spectrum: 1024
>>>>>Begin Spectral Data<<<<<
801.071	27523
801.214	27458
801.356	27378
801.499	27207
801.641	27066
801.783	27100
801.926	27237
802.068	27222
802.211	27066
802.353	27020
802.496	26918
802.638	26811
802.78	26800
802.923	26594
803.065	26785
803.208	26724
803.35	26678
803.492	27024
803.635	26990
803.777	26933
803.919	27005
804.061	27230
804.204	27013
804.346	26899
804.488	26857
804.63	27077
804.773	26826
804.915	26990
805.057	26956
805.199	26937
805.341	27017
805.483	27089
805.626	27199
805.768	27096
805.91	26952
806.052	27142
806.194	26960
806.336	27184
806.478	27100
806.62	27146
806.762	27230
806.904	27249
807.046	27542
807.188	27549
807.33	27545
807.472	27553
807.614	27386
807.756	27542
807.898	27492
808.04	27382
808.182	27298
808.324	27351
808.465	27488
808.607	27542
808.749	27709
808.891	27808
809.033	27720
809.174	27808
809.316	27637
809.458	27622
809.6	27583
809.741	27857
809.883	27888
810.025	27991
810.166	27983
810.308	28010
810.45	27983
810.591	27987
810.733	27656
810.875	27675
811.016	27523
811.158	27454
811.299	27667
811.441	27717
811.582	27804
811.724	27660
811.865	27663
812.007	27595
812.148	27644
812.29	27732
812.431	27930
812.573	27949
812.714	28101
812.855	28211
812.997	28272
813.138	28424
813.279	28295
813.421	28261
813.562	28219
813.703	27968
813.845	27880
813.986	27660
814.127	27401
814.268	27370
814.41	27469
814.551	27355
814.692	27408
814.833	27275
814.974	27473
815.115	27374
815.256	27393
815.397	27370
815.539	27359
815.68	27096
815.821	27074
815.962	27241
816.103	27127
816.244	27009
816.385	26876
816.526	26838
816.666	26765
816.807	26568
816.948	26731
817.089	26781
817.23	26705
817.371	26514
817.512	26492
817.653	26636
817.793	26602
817.934	26629
818.075	26625
818.216	26663
818.356	26556
818.497	26423
818.638	26309
818.778	26381
818.919	26461
819.06	26385
819.2	26476
819.341	26625
819.481	26602
819.622	26823
819.762	26876
819.903	26880
820.043	26739
820.184	26811
820.324	26629
820.465	26788
820.605	26785
820.746	26746
820.886	26625
821.026	26720
821.167	26788
821.307	26773
821.447	26629
821.588	26461
821.728	26355
821.868	26187
822.008	25997
822.149	26130
822.289	25993
822.429	25940
822.569	25818
822.709	25563
822.849	25533
822.99	25635
823.13	25685
823.27	25537
823.41	25331
823.55	25266
823.69	25438
823.83	25400
823.97	25381
824.11	25225
824.25	25156
824.389	25304
824.529	25354
824.669	25156
824.809	25373
824.949	25358
825.089	25407
825.228	25312
825.368	25160
825.508	25072
825.648	25069
825.787	25031
825.927	25202
826.067	24947
826.206	24981
826.346	25091
826.485	25175
826.625	25129
826.765	25168
826.904	25076
827.044	24916
827.183	24867
827.323	24719
827.462	24894
827.601	24798
827.741	24779
827.88	24863
828.02	24726
828.159	24749
828.298	24722
828.437	24741
828.577	24741
828.716	25004
828.855	24646
828.994	24498
829.134	24407
829.273	24563
829.412	24384
829.551	24422
829.69	24460
829.829	24589
829.968	24441
830.107	24555
830.246	24429
830.385	24452
830.524	24399
830.663	24323
830.802	24296
830.941	24011
831.08	24106
831.219	24304
831.357	24041
831.496	24380
831.635	23961
831.774	24045
831.913	24015
832.051	23779
832.19	23870
832.329	23973
832.467	23885
832.606	23638
832.744	23843
832.883	23764
833.022	23737
833.16	23699
833.299	23866
833.437	23874
833.576	24030
833.714	23665
833.852	23718
833.991	23745
834.129	23901
834.267	23904
834.406	23893
834.544	23687
834.682	23691
834.821	23786
834.959	24068
835.097	23920
835.235	23824
835.373	23828
835.511	23859
835.65	23756
835.788	23756
835.926	23482
836.064	23410
836.202	23516
836.34	23630
836.478	23672
836.615	23611
836.753	23630
836.891	23729
837.029	23760
837.167	23600
837.305	23459
837.443	23482
837.58	23512
837.718	23627
837.856	23459
837.993	23471
838.131	23505
838.269	23311
838.406	23406
838.544	23147
838.681	23166
838.819	23105
838.956	22980
839.094	22972
839.231	23155
839.369	23162
839.506	23387
839.643	23315
839.781	23067
839.918	22896
840.055	23102
840.193	23056
840.33	22938
840.467	22820
840.604	22847
840.742	23166
840.879	22675
841.016	22877
841.153	22748
841.29	22946
841.427	22869
841.564	22881
841.701	22873
841.838	22809
841.975	22740
842.112	22691
842.249	22683
842.385	22592
842.522	22889
842.659	22759
842.796	22637
842.933	22550
843.069	22455
843.206	22542
843.343	22664
843.479	22698
843.616	22740
843.752	22367
843.889	22459
844.025	22550
844.162	22360
844.298	22519
844.435	22436
844.571	22276
844.708	22447
844.844	22554
844.98	22565
845.117	22295
845.253	22455
845.389	22234
845.525	22314
845.661	22131
845.798	22226
845.934	22276
846.07	22188
846.206	22169
846.342	22219
846.478	22109
846.614	21926
846.75	21895
846.886	21941
847.022	21915
847.158	21972
847.294	21884
847.429	21915
847.565	21797
847.701	22036
847.837	21545
847.972	21576
848.108	21622
848.244	21545
848.379	21462
848.515	21382
848.65	21515
848.786	21435
848.921	21572
849.057	21504
849.192	21504
849.328	21515
849.463	21447
849.598	21386
849.734	21515
849.869	21237
850.004	21222
850.14	21287
850.275	21184
850.41	21222
850.545	21184
850.68	21283
850.815	21192
850.95	21188
851.085	21428
851.22	21370
851.355	21249
851.49	21192
851.625	21222
851.76	21249
851.895	21081
852.03	21112
852.165	21237
852.299	21226
852.434	21272
852.569	21230
852.703	21199
852.838	21306
852.973	21233
853.107	21389
853.242	21135
853.376	21028
853.511	20891
853.645	20986
853.78	21199
853.914	21116
854.048	20948
854.183	20998
854.317	21051
854.451	21283
854.585	21184
854.72	21055
854.854	21024
854.988	20990
855.122	21104
855.256	20937
855.39	21062
855.524	21192
855.658	21272
855.792	21039
855.926	21119
856.06	21230
856.194	21119
856.327	20868
856.461	21077
856.595	20975
856.729	21036
856.862	21135
856.996	21055
857.13	21135
857.263	21161
857.397	21230
857.53	21070
857.664	20941
857.797	21180
857.931	21180
858.064	21096
858.197	21222
858.331	21058
858.464	21074
858.597	20925
858.731	21161
858.864	20975
858.997	21043
859.13	21032
859.263	21005
859.396	21161
859.529	21070
859.662	20998
859.795	21020
859.928	20998
860.061	21199
860.194	21138
860.327	21138
860.46	21135
860.592	21135
860.725	21127
860.858	21127
860.99	21062
861.123	20895
861.256	21081
861.388	21055
861.521	21770
861.653	20864
861.786	20826
861.918	20826
862.05	20906
862.183	21009
862.315	20982
862.447	21077
862.58	20948
862.712	20777
862.844	20724
862.976	20853
863.108	20952
863.24	21081
863.372	20743
863.504	20648
863.636	20785
863.768	20845
863.9	20648
864.032	20705
864.164	20731
864.296	20785
864.428	20861
864.559	20933
864.691	20861
864.823	20785
864.954	20697
865.086	20629
865.217	20659
865.349	20503
865.48	20663
865.612	20781
865.743	20834
865.875	20667
866.006	20659
866.137	20689
866.269	20636
866.4	20537
866.531	20598
866.662	20594
866.793	20644
866.924	20507
867.055	20632
867.186	20590
867.317	20484
867.448	20552
867.579	20560
867.71	20400
867.841	20575
867.972	20598
868.103	20564
868.233	20564
868.364	20530
868.495	20560
868.625	20823
868.756	20998
868.886	20800
869.017	20765
869.147	20823
869.278	20861
869.408	20781
869.539	20842
869.669	20899
869.799	20906
869.929	20944
870.06	20918
870.19	21119
870.32	21150
870.45	21195
870.58	21176
870.71	21401
870.84	21252
870.97	21279
871.1	21230
871.23	21389
871.36	21374
871.489	21317
871.619	21447
871.749	21447
871.879	21454
872.008	21698
872.138	21313
872.267	21424
872.397	21378
872.526	21249
872.656	21279
872.785	21405
872.915	21370
873.044	21625
873.173	21359
873.303	21496
873.432	21557
873.561	21682
873.69	21492
873.819	21523
873.948	21561
874.077	21568
874.206	21370
874.335	21435
874.464	21553
874.593	21759
874.722	21564
874.851	21789
874.979	21778
875.108	21751
875.237	21625
875.365	21572
875.494	21755
875.623	21606
875.751	21679
875.88	21652
876.008	21842
876.136	21812
876.265	22112
876.393	22169
876.521	22124
876.65	22272
876.778	22010
876.906	22105
877.034	21956
877.162	21983
877.29	22025
877.418	22044
877.546	22032
877.674	21991
877.802	21975
877.93	22055
878.058	22006
878.185	21907
878.313	22143
878.441	21994
878.568	21903
878.696	21888
878.824	22032
878.951	22090
879.079	22200
879.206	22280
879.333	22291
879.461	22051
879.588	22124
879.715	22230
879.842	22344
879.97	22154
880.097	21865
880.224	21800
880.351	21800
880.478	21869
880.605	21819
880.732	21876
880.859	22078
880.986	21873
881.112	21899
881.239	21816
881.366	21576
881.493	21462
881.619	21382
881.746	21526
881.872	21450
881.999	21370
882.125	21348
882.252	21511
882.378	21348
882.505	21580
882.631	21245
882.757	21180
882.883	21184
883.01	21180
883.136	21047
883.262	21020
883.388	20868
883.514	21180
883.64	21058
883.766	20971
883.892	20895
884.018	20960
884.143	21020
884.269	21161
884.395	20834
884.52	20800
884.646	20781
884.772	20804
884.897	20712
885.023	20773
885.148	20891
885.274	20963
885.399	20994
885.524	20708
885.65	20743
885.775	20872
885.9	20800
886.025	20887
886.15	20708
886.275	20587
886.4	20693
886.525	20785
886.65	20644
886.775	20758
886.9	20899
887.025	20982
887.149	20842
887.274	20602
887.399	20663
887.523	20514
887.648	20503
887.773	20492
887.897	20625
888.021	20492
888.146	20537
888.27	20644
888.395	20693
888.519	20522
888.643	20518
888.767	20693
888.891	20473
889.015	20450
889.139	20332
889.263	20339
889.387	20381
889.511	20530
889.635	20583
889.759	20282
889.883	20282
890.006	20328
890.13	20415
890.254	20275
890.377	20199
890.501	20161
890.624	20100
890.748	20096
890.871	19925
890.995	19997
891.118	19830
891.241	19784
891.364	19811
891.488	20031
891.611	19890
891.734	20020
891.857	19982
891.98	19906
892.103	19868
892.226	20005
892.349	19868
892.471	19902
892.594	19883
892.717	19826
892.839	19875
892.962	19814
893.085	19894
893.207	19807
893.33	19715
893.452	19784
893.575	19753
893.697	19898
893.819	19982
893.941	20012
894.064	19951
894.186	19639
894.308	19822
894.43	19852
894.552	19917
894.674	19856
894.796	19845
894.918	19791
895.04	19788
895.161	19860
895.283	19879
895.405	19666
895.526	19845
895.648	19814
895.769	19845
895.891	19898
896.012	19860
896.134	19898
896.255	19883
896.376	19814
896.498	19864
896.619	19875
896.74	19811
896.861	19955
896.982	20187
897.103	20355
897.224	20126
897.345	20027
897.466	20005
897.587	20130
897.708	20240
897.828	20149
897.949	19974
898.07	19841
898.19	19989
898.311	20130
898.431	20012
898.552	19978
898.672	20229
898.792	20183
898.913	19967
899.033	19974
899.153	19845
899.273	19772
899.393	19932
899.513	19959
899.633	19830
899.753	19776
899.873	19666
899.993	19849
900.113	19731
900.232	19841
900.352	19712
900.472	19586
900.591	19567
900.711	19689
900.83	19628
900.95	19632
901.069	19696
901.189	19502
901.308	19282
901.427	19183
901.546	19175
901.665	19202
901.784	19270
901.904	19168
902.023	19072
902.141	18738
902.26	18783
902.379	18757
902.498	18711
902.617	18654
902.735	18757
902.854	18684
902.973	18627
903.091	18502
903.21	18369
903.328	18330
903.446	18292
903.565	18186
903.683	18300
903.801	18079
903.919	18171
904.038	18182
904.156	18026
904.274	18053
904.392	18030
904.51	17931
904.627	17828
904.745	18057
904.863	17992
904.981	17775
905.098	17623
905.216	17657
905.334	17824
905.451	17615
905.569	17646
905.686	17623
905.803	17547
905.921	17326
906.038	17497
906.155	17395
906.272	17334
906.389	17410
906.506	17250
906.623	17121
906.74	17181
906.857	17132
906.974	17060
907.091	17223
907.208	17254
907.324	17246
907.441	17075
907.557	16911
907.674	16957
907.79	16744
907.907	16782
908.023	16866
908.139	16824
908.256	16816
908.372	16752
908.488	16698
908.604	16740
908.72	16634
908.836	16558
908.952	16599
909.068	16512
909.184	16729
909.3	16668
909.415	16653
909.531	16440
909.647	16348
909.762	16261
909.878	16276
909.993	16379
910.108	16265
910.224	16188
910.339	16348
910.454	16078
910.57	16135
910.685	16090
910.8	16329
910.915	16265
911.03	16181
911.145	15991
911.259	15922
911.374	15876
911.489	15915
911.604	15781
911.718	15679
911.833	15641
911.947	15481
912.062	15572
912.176	15553
912.291	15618
912.405	15542
912.519	15720
912.633	15793
912.748	15743
912.862	15599
912.976	15458
913.09	15386
913.204	15511
913.318	15401
913.431	15557
913.545	15603
913.659	15492
913.772	15412
913.886	15340
914	15260
914.113	15325
914.226	15386
914.34	15359
914.453	15176
914.566	15268
914.68	15203
914.793	15085
914.906	15009
915.019	14937
915.132	14899
915.245	14929
915.358	14994
915.47	14918
915.583	14754
915.696	14929
915.809	15001
915.921	15047
916.034	14902
916.146	14727
916.259	14705
916.371	14902
916.483	14819
916.595	14731
916.708	14670
916.82	14758
916.932	14720
917.044	14686
917.156	14625
917.268	14541
917.38	14670
917.491	14488
917.603	14518
917.715	14575
917.826	14629
917.938	14503
918.049	14400
918.161	14484
918.272	14560
918.384	14644
918.495	14560
918.606	14393
918.717	14332
918.828	14332
918.939	14328
919.05	14237
919.161	14263
919.272	14176
919.383	14031
919.494	14301
919.604	14499
919.715	14176
919.826	14206
919.936	14237
920.047	14412
920.157	14229
920.267	14473
920.378	14286
920.488	14214
920.598	14438
920.708	14545
920.818	14381
920.928	14358
921.038	14575
921.148	14492
921.258	14195
921.368	14130
921.477	14138
921.587	13982
921.697	13936
921.806	14016
921.916	13944
922.025	13738
922.134	13685
922.244	13594
922.353	13681
922.462	13445
922.571	13499
922.68	13377
922.789	13365
922.898	13327
923.007	13259
923.116	13343
923.224	13301
923.333	13236
923.442	13217
923.55	13171
923.659	13175
923.767	13141
923.876	13088
923.984	13145
924.092	13053
924.201	13088
924.309	13091
924.417	13095
924.525	12951
924.633	12966
924.741	13696
924.849	12810
924.956	12852
925.064	12783
925.172	12665
925.279	12738
925.387	12730
925.494	12734
925.602	12905
925.709	12791
925.816	12578
925.924	12711
926.031	12779
926.138	12669
926.245	12776
926.352	12574
926.459	12692
926.566	12810
926.673	12623
926.779	12513
926.886	12448
926.993	12361
927.099	12426
927.206	12270
927.312	12285
927.419	12338
927.525	12270
927.631	12357
927.737	12186
927.843	12175
927.95	12129
928.056	12148
928.162	12175
928.267	12201
928.373	12817
928.479	12315
928.585	11920
928.69	12087
928.796	12125
928.901	12011
929.007	11901
929.112	12030
929.218	11980
929.323	11988
929.428	11946
929.533	12026
929.638	11809
929.743	11813
929.848	11878
929.953	11745
930.058	11672
930.163	11585
930.267	11558
930.372	11649
930.477	11509
930.581	11813
930.685	11630
930.79	11478
930.894	11429
930.998	11345
931.103	11600
931.207	11269
931.311	11121
931.415	11018
931.519	10854
931.623	10896
