Data from test_V78500241_875.txt Node
Date: Fri Mar 25 15:15:56 CST 2022
User: usil
Spectrometer: V785-0024
Trigger mode: 0
Integration Time (sec): 4.000000E-1
Scans to average: 1
Nonlinearity correction enabled: false
Boxcar width: 0
Storing dark spectrum: false
XAxis mode: Wavelengths
Number of Pixels in Spectrum: 1024
>>>>>Begin Spectral Data<<<<<
801.071	28192
801.214	28112
801.356	27835
801.499	27747
801.641	27713
801.783	27739
801.926	27781
802.068	27648
802.211	27663
802.353	27736
802.496	27359
802.638	27435
802.78	27382
802.923	27389
803.065	27389
803.208	27439
803.35	27526
803.492	27488
803.635	27557
803.777	27462
803.919	27732
804.061	27831
804.204	27686
804.346	27447
804.488	27393
804.63	27603
804.773	27492
804.915	27458
805.057	27694
805.199	27629
805.341	27675
805.483	27701
805.626	27797
805.768	27633
805.91	27751
806.052	27739
806.194	27641
806.336	28010
806.478	27899
806.62	27766
806.762	27888
806.904	28029
807.046	28116
807.188	27998
807.33	28166
807.472	28169
807.614	28192
807.756	28063
807.898	28204
808.04	27888
808.182	28029
808.324	28063
808.465	28192
808.607	28299
808.749	28500
808.891	28481
809.033	28607
809.174	28478
809.316	28459
809.458	28508
809.6	28500
809.741	28474
809.883	28527
810.025	28649
810.166	28752
810.308	28763
810.45	28710
810.591	28797
810.733	28516
810.875	28436
811.016	28226
811.158	28284
811.299	28573
811.441	28542
811.582	28588
811.724	28409
811.865	28363
812.007	28341
812.148	28348
812.29	28519
812.431	28691
812.573	28858
812.714	28862
812.855	28999
812.997	29071
813.138	29216
813.279	29003
813.421	29010
813.562	28957
813.703	28812
813.845	28717
813.986	28363
814.127	28394
814.268	28253
814.41	28082
814.551	28093
814.692	28280
814.833	27930
814.974	28055
815.115	28059
815.256	28013
815.397	28059
815.539	28070
815.68	27972
815.821	27880
815.962	28048
816.103	27926
816.244	27800
816.385	27641
816.526	27679
816.666	27450
816.807	27511
816.948	27420
817.089	27648
817.23	27576
817.371	27485
817.512	27435
817.653	27367
817.793	27370
817.934	27481
818.075	27469
818.216	27439
818.356	27401
818.497	27332
818.638	27214
818.778	27329
818.919	27275
819.06	27329
819.2	27310
819.341	27492
819.481	27389
819.622	27618
819.762	27835
819.903	27637
820.043	27606
820.184	27591
820.324	27469
820.465	27580
820.605	27595
820.746	27534
820.886	27389
821.026	27504
821.167	27545
821.307	27504
821.447	27496
821.588	27389
821.728	27355
821.868	26982
822.008	26929
822.149	26940
822.289	26785
822.429	26568
822.569	26518
822.709	26511
822.849	26552
822.99	26427
823.13	26503
823.27	26431
823.41	26084
823.55	26252
823.69	26278
823.83	26161
823.97	26252
824.11	26134
824.25	25944
824.389	25906
824.529	26142
824.669	26157
824.809	26210
824.949	26256
825.089	26142
825.228	26145
825.368	25890
825.508	25970
825.648	26024
825.787	26005
825.927	26062
826.067	25955
826.206	25993
826.346	25951
826.485	25913
826.625	25966
826.765	26020
826.904	25970
827.044	25803
827.183	25795
827.323	25685
827.462	25795
827.601	25807
827.741	25655
827.88	25655
828.02	25616
828.159	25742
828.298	25753
828.437	25761
828.577	25594
828.716	25769
828.855	25677
828.994	25472
829.134	25411
829.273	25434
829.412	25346
829.551	25316
829.69	25407
829.829	25297
829.968	25472
830.107	25476
830.246	25411
830.385	25369
830.524	25225
830.663	25137
830.802	25072
830.941	24970
831.08	24909
831.219	25057
831.357	25046
831.496	25236
831.635	24966
831.774	24875
831.913	24886
832.051	24833
832.19	24787
832.329	24779
832.467	24719
832.606	24654
832.744	24563
832.883	24650
833.022	24547
833.16	24665
833.299	24783
833.437	24665
833.576	24810
833.714	24757
833.852	24684
833.991	24829
834.129	24852
834.267	24722
834.406	24787
834.544	24620
834.682	24700
834.821	24715
834.959	24829
835.097	24730
835.235	24639
835.373	24715
835.511	24627
835.65	24460
835.788	24460
835.926	24365
836.064	24319
836.202	24418
836.34	24517
836.478	24616
836.615	24525
836.753	24566
836.891	24661
837.029	24593
837.167	24498
837.305	24475
837.443	24429
837.58	24464
837.718	24494
837.856	24418
837.993	24380
838.131	24350
838.269	24201
838.406	24194
838.544	24285
838.681	24110
838.819	24072
838.956	23790
839.094	23931
839.231	23908
839.369	24068
839.506	24068
839.643	24106
839.781	23733
839.918	23802
840.055	23821
840.193	23874
840.33	23596
840.467	23771
840.604	23897
840.742	23954
840.879	23554
841.016	23859
841.153	23691
841.29	23855
841.427	23840
841.564	23783
841.701	23729
841.838	23737
841.975	23726
842.112	23653
842.249	23589
842.385	23509
842.522	23714
842.659	23516
842.796	23433
842.933	23554
843.069	23497
843.206	23497
843.343	23630
843.479	23528
843.616	23482
843.752	23303
843.889	23242
844.025	23402
844.162	23265
844.298	23425
844.435	23277
844.571	23311
844.708	23341
844.844	23528
844.98	23440
845.117	23452
845.253	23208
845.389	23113
845.525	23277
845.661	23037
845.798	22987
845.934	23105
846.07	23124
846.206	23064
846.342	23208
846.478	22972
846.614	22812
846.75	22634
846.886	22721
847.022	22748
847.158	22790
847.294	22801
847.429	22828
847.565	22630
847.701	22904
847.837	22394
847.972	22493
848.108	22565
848.244	22516
848.379	22329
848.515	22314
848.65	22276
848.786	22360
848.921	22299
849.057	22497
849.192	22432
849.328	22280
849.463	22261
849.598	22284
849.734	22063
849.869	22265
850.004	22143
850.14	22082
850.275	22048
850.41	22029
850.545	21930
850.68	22074
850.815	22246
850.95	22017
851.085	22284
851.22	22219
851.355	22158
851.49	21922
851.625	22078
851.76	22078
851.895	22059
852.03	22036
852.165	22109
852.299	22188
852.434	22238
852.569	22188
852.703	22010
852.838	22310
852.973	22303
853.107	22211
853.242	22048
853.376	21899
853.511	21854
853.645	21865
853.78	22021
853.914	21998
854.048	21816
854.183	21918
854.317	21998
854.451	22101
854.585	21907
854.72	21880
854.854	21915
854.988	21850
855.122	21945
855.256	21838
855.39	22044
855.524	21892
855.658	21907
855.792	21960
855.926	21930
856.06	21968
856.194	21956
856.327	21819
856.461	21827
856.595	21823
856.729	21975
856.862	22006
856.996	21972
857.13	21987
857.263	22048
857.397	21987
857.53	21876
857.664	21941
857.797	21968
857.931	22044
858.064	21964
858.197	22067
858.331	21899
858.464	21831
858.597	21827
858.731	21911
858.864	21888
858.997	21808
859.13	21895
859.263	21960
859.396	22048
859.529	21857
859.662	21975
859.795	21838
859.928	21884
860.061	21975
860.194	22150
860.327	22044
860.46	21857
860.592	22082
860.725	22017
860.858	22032
860.99	21991
861.123	21857
861.256	21903
861.388	21934
861.521	22599
861.653	21781
861.786	21778
861.918	21698
862.05	21831
862.183	21774
862.315	21766
862.447	21964
862.58	21793
862.712	21663
862.844	21660
862.976	21641
863.108	21728
863.24	21991
863.372	21587
863.504	21568
863.636	21622
863.768	21614
863.9	21637
864.032	21637
864.164	21587
864.296	21724
864.428	21781
864.559	21644
864.691	21618
864.823	21686
864.954	21679
865.086	21553
865.217	21466
865.349	21519
865.48	21466
865.612	21500
865.743	21614
865.875	21564
866.006	21542
866.137	21443
866.269	21469
866.4	21485
866.531	21420
866.662	21431
866.793	21443
866.924	21553
867.055	21492
867.186	21466
867.317	21416
867.448	21332
867.579	21389
867.71	21462
867.841	21332
867.972	21431
868.103	21363
868.233	21443
868.364	21473
868.495	21561
868.625	21694
868.756	21591
868.886	21564
869.017	21667
869.147	21709
869.278	21854
869.408	21812
869.539	21488
869.669	21819
869.799	21717
869.929	21876
870.06	21892
870.19	21983
870.32	21975
870.45	22021
870.58	22090
870.71	22173
870.84	22120
870.97	22097
871.1	22070
871.23	22120
871.36	22253
871.489	22093
871.619	22166
871.749	22356
871.879	22272
872.008	22379
872.138	22226
872.267	22177
872.397	22124
872.526	22044
872.656	22086
872.785	22154
872.915	22409
873.044	22306
873.173	22360
873.303	22413
873.432	22341
873.561	22344
873.69	22257
873.819	22261
873.948	22310
874.077	22344
874.206	22192
874.335	22295
874.464	22409
874.593	22485
874.722	22500
874.851	22626
874.979	22489
875.108	22611
875.237	22455
875.365	22413
875.494	22478
875.623	22668
875.751	22428
875.88	22474
876.008	22550
876.136	22744
876.265	22790
876.393	23067
876.521	23025
876.65	22923
876.778	22866
876.906	22725
877.034	22900
877.162	22843
877.29	22805
877.418	22854
877.546	22717
877.674	22733
877.802	22820
877.93	22862
878.058	22847
878.185	22615
878.313	22812
878.441	22797
878.568	22736
878.696	22755
878.824	22881
878.951	22889
879.079	23052
879.206	23064
879.333	22965
879.461	22957
879.588	23003
879.715	23105
879.842	23033
879.97	22938
880.097	22656
880.224	22649
880.351	22721
880.478	22733
880.605	22618
880.732	22706
880.859	22843
880.986	22573
881.112	22645
881.239	22573
881.366	22341
881.493	22348
881.619	22329
881.746	22215
881.872	22196
881.999	22158
882.125	22116
882.252	22295
882.378	22192
882.505	22257
882.631	22078
882.757	21930
882.883	22044
883.01	21888
883.136	21895
883.262	21861
883.388	21793
883.514	21934
883.64	21861
883.766	21804
883.892	21728
884.018	21690
884.143	21934
884.269	21892
884.395	21690
884.52	21553
884.646	21572
884.772	21557
884.897	21492
885.023	21561
885.148	21610
885.274	21816
885.399	21774
885.524	21713
885.65	21580
885.775	21557
885.9	21439
886.025	21591
886.15	21557
886.275	21481
886.4	21428
886.525	21606
886.65	21504
886.775	21485
886.9	21622
887.025	21732
887.149	21545
887.274	21298
887.399	21329
887.523	21370
887.648	21260
887.773	21294
887.897	21355
888.021	21294
888.146	21256
888.27	21393
888.395	21329
888.519	21348
888.643	21344
888.767	21405
888.891	21157
889.015	21268
889.139	21264
889.263	21074
889.387	21169
889.511	21287
889.635	21233
889.759	21070
889.883	21066
890.006	21161
890.13	21260
890.254	21043
890.377	21150
890.501	20807
890.624	20735
890.748	20971
890.871	20739
890.995	20682
891.118	20724
891.241	20640
891.364	20739
891.488	20834
891.611	20735
891.734	20667
891.857	20682
891.98	20724
892.103	20800
892.226	20693
892.349	20651
892.471	20434
892.594	20667
892.717	20663
892.839	20598
892.962	20579
893.085	20682
893.207	20655
893.33	20465
893.452	20689
893.575	20579
893.697	20583
893.819	20773
893.941	20769
894.064	20804
894.186	20533
894.308	20545
894.43	20568
894.552	20750
894.674	20606
894.796	20549
894.918	20594
895.04	20522
895.161	20613
895.283	20689
895.405	20514
895.526	20571
895.648	20579
895.769	20640
895.891	20648
896.012	20549
896.134	20556
896.255	20644
896.376	20533
896.498	20583
896.619	20556
896.74	20629
896.861	20602
896.982	20880
897.103	20944
897.224	20887
897.345	20773
897.466	20705
897.587	20750
897.708	20857
897.828	20788
897.949	20629
898.07	20549
898.19	20697
898.311	20963
898.431	20617
898.552	20739
898.672	20956
898.792	20800
898.913	20773
899.033	20724
899.153	20560
899.273	20533
899.393	20617
899.513	20636
899.633	20533
899.753	20469
899.873	20434
899.993	20434
900.113	20469
900.232	20545
900.352	20324
900.472	20446
900.591	20263
900.711	20278
900.83	20336
900.95	20381
901.069	20408
901.189	20157
901.308	19921
901.427	19879
901.546	19887
901.665	19772
901.784	19879
901.904	19689
902.023	19597
902.141	19327
902.26	19521
902.379	19354
902.498	19415
902.617	19274
902.735	19445
902.854	19324
902.973	19297
903.091	19019
903.21	18981
903.328	19065
903.446	18886
903.565	18814
903.683	18875
903.801	18684
903.919	18741
904.038	18757
904.156	18658
904.274	18700
904.392	18582
904.51	18544
904.627	18532
904.745	18700
904.863	18646
904.981	18483
905.098	18254
905.216	18372
905.334	18330
905.451	18285
905.569	18292
905.686	18315
905.803	18254
905.921	18064
906.038	18159
906.155	18091
906.272	18038
906.389	18083
906.506	17923
906.623	17817
906.74	17802
906.857	17661
906.974	17786
907.091	17863
907.208	17980
907.324	17824
907.441	17619
907.557	17512
907.674	17642
907.79	17505
907.907	17539
908.023	17509
908.139	17547
908.256	17478
908.372	17425
908.488	17425
908.604	17307
908.72	17185
908.836	17353
908.952	17193
909.068	17223
909.184	17353
909.3	17151
909.415	17311
909.531	17216
909.647	16949
909.762	16847
909.878	17006
909.993	16972
910.108	16923
910.224	16900
910.339	16862
910.454	16767
910.57	16835
910.685	16694
910.8	16976
910.915	16934
911.03	16748
911.145	16596
911.259	16550
911.374	16580
911.489	16443
911.604	16390
911.718	16352
911.833	16280
911.947	16188
912.062	16173
912.176	16177
912.291	16196
912.405	16318
912.519	16409
912.633	16447
912.748	16322
912.862	16166
912.976	16128
913.09	16025
913.204	16013
913.318	16063
913.431	16154
913.545	16116
913.659	16169
913.772	16067
913.886	15918
914	15907
914.113	15994
914.226	15953
914.34	15968
914.453	15797
914.566	15964
914.68	15835
914.793	15728
914.906	15671
915.019	15447
915.132	15420
915.245	15557
915.358	15511
915.47	15557
915.583	15447
915.696	15435
915.809	15545
915.921	15595
916.034	15485
916.146	15367
916.259	15401
916.371	15389
916.483	15294
916.595	15378
916.708	15351
916.82	15332
916.932	15192
917.044	15298
917.156	15188
917.268	15142
917.38	15154
917.491	15097
917.603	15070
917.715	15211
917.826	15146
917.938	15077
918.049	14956
918.161	15104
918.272	15081
918.384	15298
918.495	15028
918.606	14967
918.717	14815
918.828	14982
918.939	14785
919.05	14701
919.161	14769
919.272	14674
919.383	14659
919.494	14815
919.604	14941
919.715	14792
919.826	14811
919.936	14724
920.047	14849
920.157	14724
920.267	15017
920.378	14842
920.488	14785
920.598	14868
920.708	15165
920.818	14891
920.928	14933
921.038	15097
921.148	15100
921.258	14735
921.368	14693
921.477	14537
921.587	14590
921.697	14385
921.806	14606
921.916	14370
922.025	14290
922.134	14221
922.244	14161
922.353	14187
922.462	14077
922.571	14008
922.68	13868
922.789	13811
922.898	13944
923.007	13780
923.116	13932
923.224	13803
923.333	13871
923.442	13731
923.55	13586
923.659	13590
923.767	13715
923.876	13605
923.984	13632
924.092	13544
924.201	13613
924.309	13529
924.417	13548
924.525	13441
924.633	13392
924.741	14301
924.849	13247
924.956	13365
925.064	13320
925.172	13240
925.279	13255
925.387	13274
925.494	13209
925.602	13388
925.709	13259
925.816	13149
925.924	13122
926.031	13213
926.138	13149
926.245	13194
926.352	13110
926.459	13168
926.566	13339
926.673	13110
926.779	13042
926.886	13019
926.993	12856
927.099	12700
927.206	12776
927.312	12730
927.419	12745
927.525	12684
927.631	12844
927.737	12650
927.843	12547
927.95	12578
928.056	12582
928.162	12585
928.267	12658
928.373	13129
928.479	12669
928.585	12403
928.69	12566
928.796	12559
928.901	12456
929.007	12311
929.112	12471
929.218	12460
929.323	12376
929.428	12281
929.533	12437
929.638	12251
929.743	12186
929.848	12285
929.953	12243
930.058	12201
930.163	12064
930.267	11958
930.372	12102
930.477	11996
930.581	12155
930.685	12011
930.79	11946
930.894	11893
930.998	11790
931.103	11969
931.207	11596
931.311	11539
931.415	11414
931.519	11231
931.623	11189
