Data from test_V78500241_982.txt Node
Date: Fri Mar 25 15:16:41 CST 2022
User: usil
Spectrometer: V785-0024
Trigger mode: 0
Integration Time (sec): 4.000000E-1
Scans to average: 1
Nonlinearity correction enabled: false
Boxcar width: 0
Storing dark spectrum: false
XAxis mode: Wavelengths
Number of Pixels in Spectrum: 1024
>>>>>Begin Spectral Data<<<<<
801.071	28166
801.214	28147
801.356	27899
801.499	27895
801.641	27812
801.783	27812
801.926	27793
802.068	27880
802.211	27759
802.353	27736
802.496	27538
802.638	27519
802.78	27549
802.923	27481
803.065	27443
803.208	27488
803.35	27481
803.492	27557
803.635	27606
803.777	27614
803.919	27614
804.061	27846
804.204	27717
804.346	27759
804.488	27606
804.63	27671
804.773	27698
804.915	27789
805.057	27679
805.199	27671
805.341	27778
805.483	27774
805.626	27778
805.768	27755
805.91	27937
806.052	27865
806.194	27759
806.336	27953
806.478	27934
806.62	27816
806.762	27964
806.904	27968
807.046	28356
807.188	28219
807.33	28185
807.472	28329
807.614	28143
807.756	28185
807.898	28109
808.04	28181
808.182	28040
808.324	28177
808.465	28116
808.607	28287
808.749	28500
808.891	28341
809.033	28577
809.174	28683
809.316	28462
809.458	28504
809.6	28306
809.741	28717
809.883	28607
810.025	28710
810.166	28850
810.308	28801
810.45	28656
810.591	28710
810.733	28577
810.875	28424
811.016	28333
811.158	28371
811.299	28599
811.441	28668
811.582	28660
811.724	28474
811.865	28398
812.007	28485
812.148	28519
812.29	28630
812.431	28679
812.573	28793
812.714	28839
812.855	29048
812.997	29193
813.138	29318
813.279	29231
813.421	29113
813.562	29109
813.703	28885
813.845	28801
813.986	28318
814.127	28276
814.268	28451
814.41	28192
814.551	28257
814.692	28276
814.833	28135
814.974	28188
815.115	28246
815.256	28021
815.397	27979
815.539	28162
815.68	28101
815.821	27979
815.962	28040
816.103	27998
816.244	27983
816.385	27926
816.526	27846
816.666	27545
816.807	27545
816.948	27622
817.089	27519
817.23	27519
817.371	27576
817.512	27545
817.653	27553
817.793	27469
817.934	27424
818.075	27564
818.216	27580
818.356	27523
818.497	27344
818.638	27332
818.778	27340
818.919	27397
819.06	27256
819.2	27492
819.341	27614
819.481	27481
819.622	27720
819.762	27899
819.903	27667
820.043	27701
820.184	27694
820.324	27564
820.465	27823
820.605	27766
820.746	27633
820.886	27591
821.026	27633
821.167	27637
821.307	27671
821.447	27564
821.588	27374
821.728	27317
821.868	27226
822.008	27009
822.149	27013
822.289	27055
822.429	26895
822.569	26613
822.709	26731
822.849	26514
822.99	26579
823.13	26473
823.27	26480
823.41	26347
823.55	26252
823.69	26351
823.83	26317
823.97	26309
824.11	26142
824.25	26142
824.389	26263
824.529	26332
824.669	26210
824.809	26248
824.949	26267
825.089	26248
825.228	26328
825.368	25925
825.508	26172
825.648	26100
825.787	26161
825.927	26096
826.067	25955
826.206	26073
826.346	26119
826.485	26164
826.625	26016
826.765	26218
826.904	26096
827.044	25978
827.183	25826
827.323	25674
827.462	25849
827.601	25830
827.741	25791
827.88	25883
828.02	25761
828.159	25826
828.298	25837
828.437	25890
828.577	25753
828.716	25856
828.855	25780
828.994	25567
829.134	25460
829.273	25693
829.412	25487
829.551	25457
829.69	25457
829.829	25571
829.968	25544
830.107	25586
830.246	25616
830.385	25415
830.524	25430
830.663	25369
830.802	25209
830.941	25095
831.08	25103
831.219	25183
831.357	25255
831.496	25460
831.635	25057
831.774	24981
831.913	25133
832.051	24916
832.19	24924
832.329	24909
832.467	24848
832.606	24814
832.744	24738
832.883	24833
833.022	24852
833.16	24909
833.299	24833
833.437	25046
833.576	24916
833.714	24829
833.852	24935
833.991	24935
834.129	25015
834.267	24882
834.406	24844
834.544	24894
834.682	24875
834.821	24825
834.959	25000
835.097	24749
835.235	25015
835.373	24810
835.511	24859
835.65	24760
835.788	24760
835.926	24696
836.064	24521
836.202	24540
836.34	24582
836.478	24768
836.615	24802
836.753	24604
836.891	24642
837.029	24585
837.167	24661
837.305	24517
837.443	24547
837.58	24414
837.718	24589
837.856	24502
837.993	24460
838.131	24483
838.269	24380
838.406	24490
838.544	24437
838.681	24289
838.819	24041
838.956	24049
839.094	24030
839.231	24079
839.369	24144
839.506	24342
839.643	24247
839.781	23942
839.918	24034
840.055	24083
840.193	23969
840.33	23920
840.467	23984
840.604	23851
840.742	24174
840.879	23745
841.016	23851
841.153	23882
841.29	24068
841.427	23794
841.564	23923
841.701	23885
841.838	23912
841.975	23859
842.112	23874
842.249	23699
842.385	23710
842.522	23828
842.659	23760
842.796	23627
842.933	23627
843.069	23642
843.206	23672
843.343	23657
843.479	23661
843.616	23558
843.752	23444
843.889	23425
844.025	23836
844.162	23444
844.298	23608
844.435	23433
844.571	23592
844.708	23520
844.844	23535
844.98	23528
845.117	23455
845.253	23448
845.389	23330
845.525	23467
845.661	23258
845.798	23242
845.934	23227
846.07	23102
846.206	23181
846.342	23197
846.478	23044
846.614	22968
846.75	22911
846.886	22889
847.022	23033
847.158	22957
847.294	22873
847.429	23033
847.565	22991
847.701	23200
847.837	22611
847.972	22672
848.108	22729
848.244	22641
848.379	22561
848.515	22504
848.65	22489
848.786	22504
848.921	22485
849.057	22645
849.192	22557
849.328	22466
849.463	22497
849.598	22363
849.734	22462
849.869	22344
850.004	22226
850.14	22295
850.275	22242
850.41	22158
850.545	22169
850.68	22200
850.815	22280
850.95	22242
851.085	22417
851.22	22386
851.355	22234
851.49	22238
851.625	22211
851.76	22276
851.895	22207
852.03	22200
852.165	22219
852.299	22207
852.434	22303
852.569	22196
852.703	22272
852.838	22356
852.973	22303
853.107	22367
853.242	22185
853.376	22112
853.511	21880
853.645	21956
853.78	22112
853.914	22131
854.048	22021
854.183	22010
854.317	22105
854.451	22367
854.585	22025
854.72	22139
854.854	22128
854.988	22017
855.122	22143
855.256	21930
855.39	22010
855.524	22276
855.658	22086
855.792	22166
855.926	22029
856.06	22135
856.194	22226
856.327	22188
856.461	22040
856.595	22006
856.729	22021
856.862	22185
856.996	22211
857.13	22162
857.263	22120
857.397	22230
857.53	22078
857.664	22120
857.797	22154
857.931	22116
858.064	22070
858.197	22219
858.331	22029
858.464	22078
858.597	21892
858.731	22120
858.864	21998
858.997	21998
859.13	22086
859.263	22032
859.396	22128
859.529	22082
859.662	22029
859.795	21991
859.928	21998
860.061	22207
860.194	22249
860.327	22074
860.46	22013
860.592	22230
860.725	22246
860.858	22284
860.99	22086
861.123	22029
861.256	22010
861.388	22055
861.521	22816
861.653	21960
861.786	21797
861.918	21922
862.05	22002
862.183	21937
862.315	22086
862.447	22006
862.58	22074
862.712	21751
862.844	21717
862.976	21903
863.108	21819
863.24	22116
863.372	21682
863.504	21739
863.636	21793
863.768	21724
863.9	21850
864.032	21774
864.164	21690
864.296	21888
864.428	21854
864.559	21816
864.691	21778
864.823	21747
864.954	21724
865.086	21751
865.217	21713
865.349	21568
865.48	21671
865.612	21739
865.743	21884
865.875	21717
866.006	21614
866.137	21568
866.269	21595
866.4	21660
866.531	21629
866.662	21614
866.793	21549
866.924	21610
867.055	21591
867.186	21587
867.317	21641
867.448	21572
867.579	21534
867.71	21469
867.841	21557
867.972	21599
868.103	21572
868.233	21591
868.364	21523
868.495	21644
868.625	21778
868.756	21797
868.886	21785
869.017	21762
869.147	21895
869.278	21987
869.408	21861
869.539	21774
869.669	21915
869.799	21865
869.929	21998
870.06	22021
870.19	22048
870.32	21998
870.45	22253
870.58	22253
870.71	22375
870.84	22238
870.97	22280
871.1	22249
871.23	22405
871.36	22360
871.489	22417
871.619	22462
871.749	22402
871.879	22382
872.008	22561
872.138	22314
872.267	22375
872.397	22337
872.526	22242
872.656	22295
872.785	22348
872.915	22489
873.044	22470
873.173	22440
873.303	22462
873.432	22504
873.561	22599
873.69	22424
873.819	22398
873.948	22561
874.077	22516
874.206	22348
874.335	22363
874.464	22489
874.593	22683
874.722	22603
874.851	22618
874.979	22698
875.108	22694
875.237	22634
875.365	22550
875.494	22584
875.623	22782
875.751	22656
875.88	22694
876.008	22778
876.136	22816
876.265	23060
876.393	23083
876.521	23094
876.65	23170
876.778	23056
876.906	23071
877.034	22987
877.162	23037
877.29	22915
877.418	23064
877.546	23029
877.674	22881
877.802	22877
877.93	23003
878.058	22877
878.185	22889
878.313	22953
878.441	22915
878.568	22839
878.696	22915
878.824	23117
878.951	23105
879.079	23140
879.206	23315
879.333	23166
879.461	22984
879.588	23181
879.715	23109
879.842	23296
879.97	23071
880.097	22778
880.224	22740
880.351	22831
880.478	22790
880.605	22927
880.732	22733
880.859	23105
880.986	22778
881.112	22660
881.239	22790
881.366	22569
881.493	22382
881.619	22367
881.746	22417
881.872	22504
881.999	22295
882.125	22318
882.252	22455
882.378	22360
882.505	22470
882.631	22280
882.757	22101
882.883	22124
883.01	22093
883.136	21956
883.262	22051
883.388	21915
883.514	22070
883.64	22200
883.766	22017
883.892	21797
884.018	21934
884.143	22032
884.269	22109
884.395	21793
884.52	21675
884.646	21736
884.772	21698
884.897	21545
885.023	21717
885.148	21720
885.274	21873
885.399	21797
885.524	21667
885.65	21713
885.775	21717
885.9	21713
886.025	21785
886.15	21713
886.275	21648
886.4	21675
886.525	21625
886.65	21564
886.775	21500
886.9	21854
887.025	21903
887.149	21827
887.274	21679
887.399	21469
887.523	21416
887.648	21378
887.773	21332
887.897	21553
888.021	21462
888.146	21397
888.27	21488
888.395	21568
888.519	21447
888.643	21580
888.767	21526
888.891	21374
889.015	21279
889.139	21450
889.263	21233
889.387	21272
889.511	21515
889.635	21450
889.759	21249
889.883	21226
890.006	21283
890.13	21348
890.254	21249
890.377	21203
890.501	21207
890.624	20887
890.748	20948
890.871	21001
890.995	20777
891.118	20830
891.241	21009
891.364	20857
891.488	20895
891.611	20826
891.734	20762
891.857	20883
891.98	20910
892.103	20887
892.226	20781
892.349	20800
892.471	20503
892.594	20746
892.717	20788
892.839	20644
892.962	20667
893.085	20823
893.207	20716
893.33	20541
893.452	20514
893.575	20743
893.697	20640
893.819	20785
893.941	20944
894.064	20864
894.186	20537
894.308	20670
894.43	20735
894.552	20876
894.674	20819
894.796	20602
894.918	20659
895.04	20651
895.161	20838
895.283	20727
895.405	20651
895.526	20693
895.648	20678
895.769	20670
895.891	20640
896.012	20788
896.134	20663
896.255	20800
896.376	20632
896.498	20701
896.619	20689
896.74	20765
896.861	20746
896.982	20994
897.103	21214
897.224	20864
897.345	20918
897.466	20815
897.587	20941
897.708	21017
897.828	20918
897.949	20769
898.07	20788
898.19	20727
898.311	20891
898.431	20750
898.552	20823
898.672	20941
898.792	20956
898.913	20982
899.033	20708
899.153	20636
899.273	20598
899.393	20579
899.513	20678
899.633	20670
899.753	20629
899.873	20568
899.993	20621
900.113	20526
900.232	20571
900.352	20507
900.472	20431
900.591	20343
900.711	20465
900.83	20412
900.95	20488
901.069	20389
901.189	20320
901.308	20073
901.427	19906
901.546	19955
901.665	19936
901.784	20027
901.904	19917
902.023	19708
902.141	19590
902.26	19510
902.379	19594
902.498	19392
902.617	19419
902.735	19438
902.854	19571
902.973	19426
903.091	19168
903.21	19114
903.328	19221
903.446	19015
903.565	19069
903.683	19000
903.801	18840
903.919	18901
904.038	18859
904.156	18722
904.274	18734
904.392	18661
904.51	18639
904.627	18696
904.745	18802
904.863	18730
904.981	18483
905.098	18494
905.216	18247
905.334	18384
905.451	18376
905.569	18433
905.686	18342
905.803	18399
905.921	18159
906.038	18201
906.155	18251
906.272	18159
906.389	18171
906.506	17946
906.623	17954
906.74	17878
906.857	17828
906.974	17851
907.091	17992
907.208	17965
907.324	17988
907.441	17859
907.557	17699
907.674	17703
907.79	17532
907.907	17630
908.023	17729
908.139	17630
908.256	17547
908.372	17520
908.488	17452
908.604	17414
908.72	17322
908.836	17315
908.952	17322
909.068	17368
909.184	17353
909.3	17280
909.415	17341
909.531	17330
909.647	17208
909.762	17083
909.878	17003
909.993	16999
910.108	17060
910.224	16957
910.339	17010
910.454	16835
910.57	16835
910.685	16763
910.8	17098
910.915	16930
911.03	16869
911.145	16645
911.259	16588
911.374	16615
911.489	16603
911.604	16497
911.718	16417
911.833	16436
911.947	16207
912.062	16181
912.176	16462
912.291	16318
912.405	16291
912.519	16516
912.633	16584
912.748	16398
912.862	16242
912.976	16280
913.09	15972
913.204	16166
913.318	16135
913.431	16207
913.545	16348
913.659	16287
913.772	16120
913.886	15960
914	15827
914.113	15930
914.226	16097
914.34	15926
914.453	15789
914.566	15968
914.68	15861
914.793	15846
914.906	15637
915.019	15557
915.132	15443
915.245	15549
915.358	15603
915.47	15652
915.583	15477
915.696	15523
915.809	15591
915.921	15656
916.034	15473
916.146	15473
916.259	15481
916.371	15564
916.483	15439
916.595	15321
916.708	15401
916.82	15424
916.932	15260
917.044	15351
917.156	15386
917.268	15176
917.38	15230
917.491	15142
917.603	15252
917.715	15192
917.826	15283
917.938	15222
918.049	15089
918.161	15070
918.272	15211
918.384	15260
918.495	15116
918.606	15051
918.717	14910
918.828	14982
918.939	15001
919.05	14853
919.161	14960
919.272	14735
919.383	14830
919.494	14925
919.604	15176
919.715	14944
919.826	14868
919.936	14914
920.047	15093
920.157	14914
920.267	15104
920.378	14971
920.488	14864
920.598	15100
920.708	15119
920.818	15009
920.928	15005
921.038	15226
921.148	15165
921.258	14781
921.368	14739
921.477	14667
921.587	14617
921.697	14419
921.806	14682
921.916	14465
922.025	14317
922.134	14237
922.244	14252
922.353	14309
922.462	14225
922.571	14058
922.68	13967
922.789	13864
922.898	13974
923.007	13852
923.116	13936
923.224	13902
923.333	13871
923.442	13784
923.55	13704
923.659	13791
923.767	13734
923.876	13712
923.984	13670
924.092	13628
924.201	13715
924.309	13719
924.417	13575
924.525	13590
924.633	13415
924.741	14507
924.849	13369
924.956	13567
925.064	13255
925.172	13225
925.279	13228
925.387	13297
925.494	13251
925.602	13358
925.709	13403
925.816	13095
925.924	13240
926.031	13350
926.138	13266
926.245	13206
926.352	13175
926.459	13270
926.566	13289
926.673	13095
926.779	13015
926.886	12989
926.993	12920
927.099	12932
927.206	12806
927.312	12821
927.419	12939
927.525	12852
927.631	12840
927.737	12719
927.843	12738
927.95	12563
928.056	12673
928.162	12677
928.267	12662
928.373	13183
928.479	12650
928.585	12471
928.69	12601
928.796	12681
928.901	12498
929.007	12380
929.112	12494
929.218	12547
929.323	12429
929.428	12414
929.533	12464
929.638	12319
929.743	12334
929.848	12327
929.953	12426
930.058	12152
930.163	12057
930.267	12057
930.372	12182
930.477	11954
930.581	12194
930.685	12076
930.79	11874
930.894	11954
930.998	11912
931.103	11984
931.207	11653
931.311	11634
931.415	11551
931.519	11356
931.623	11341
