Data from test_V78500241_475.txt Node
Date: Fri Mar 25 15:13:10 CST 2022
User: usil
Spectrometer: V785-0024
Trigger mode: 0
Integration Time (sec): 4.000000E-1
Scans to average: 1
Nonlinearity correction enabled: false
Boxcar width: 0
Storing dark spectrum: false
XAxis mode: Wavelengths
Number of Pixels in Spectrum: 1024
>>>>>Begin Spectral Data<<<<<
801.071	27458
801.214	27272
801.356	27108
801.499	27005
801.641	27028
801.783	27005
801.926	27001
802.068	26743
802.211	26823
802.353	26609
802.496	26606
802.638	26499
802.78	26606
802.923	26499
803.065	26495
803.208	26469
803.35	26492
803.492	26594
803.635	26705
803.777	26785
803.919	26609
804.061	26975
804.204	26807
804.346	26636
804.488	26617
804.63	26701
804.773	26560
804.915	26746
805.057	26819
805.199	26663
805.341	26659
805.483	26727
805.626	26857
805.768	26724
805.91	26804
806.052	26925
806.194	26712
806.336	26872
806.478	26800
806.62	26743
806.762	26933
806.904	27077
807.046	27378
807.188	27237
807.33	27218
807.472	27332
807.614	27100
807.756	27150
807.898	27013
808.04	26971
808.182	27123
808.324	27020
808.465	27119
808.607	27135
808.749	27408
808.891	27538
809.033	27561
809.174	27515
809.316	27454
809.458	27321
809.6	27264
809.741	27481
809.883	27507
810.025	27675
810.166	27637
810.308	27603
810.45	27751
810.591	27633
810.733	27492
810.875	27382
811.016	27306
811.158	27313
811.299	27450
811.441	27515
811.582	27618
811.724	27382
811.865	27313
812.007	27378
812.148	27435
812.29	27344
812.431	27557
812.573	27637
812.714	27911
812.855	27983
812.997	27911
813.138	28116
813.279	27953
813.421	27922
813.562	27899
813.703	27736
813.845	27538
813.986	27275
814.127	27310
814.268	27032
814.41	27150
814.551	27043
814.692	27024
814.833	27070
814.974	27062
815.115	27104
815.256	27005
815.397	26880
815.539	26944
815.68	26906
815.821	26868
815.962	26800
816.103	26796
816.244	26549
816.385	26568
816.526	26655
816.666	26492
816.807	26393
816.948	26393
817.089	26286
817.23	26465
817.371	26385
817.512	26374
817.653	26347
817.793	26275
817.934	26358
818.075	26351
818.216	26298
818.356	26252
818.497	26138
818.638	26046
818.778	26046
818.919	26073
819.06	26164
819.2	26218
819.341	26377
819.481	26362
819.622	26461
819.762	26701
819.903	26758
820.043	26663
820.184	26442
820.324	26541
820.465	26499
820.605	26575
820.746	26408
820.886	26324
821.026	26434
821.167	26480
821.307	26511
821.447	26263
821.588	26153
821.728	26176
821.868	25917
822.008	25887
822.149	25807
822.289	25765
822.429	25624
822.569	25403
822.709	25499
822.849	25164
822.99	25304
823.13	25324
823.27	25259
823.41	25137
823.55	24973
823.69	25225
823.83	25179
823.97	25168
824.11	24837
824.25	24939
824.389	24954
824.529	25008
824.669	24989
824.809	24928
824.949	24981
825.089	24989
825.228	24920
825.368	24844
825.508	24875
825.648	24886
825.787	24882
825.927	24932
826.067	24722
826.206	24833
826.346	24871
826.485	24897
826.625	24677
826.765	24829
826.904	24776
827.044	24631
827.183	24509
827.323	24551
827.462	24399
827.601	24525
827.741	24429
827.88	24525
828.02	24395
828.159	24547
828.298	24509
828.437	24570
828.577	24547
828.716	24616
828.855	24464
828.994	24300
829.134	24262
829.273	24372
829.412	24235
829.551	24152
829.69	24243
829.829	24209
829.968	24380
830.107	24361
830.246	24228
830.385	24110
830.524	24026
830.663	24064
830.802	23980
830.941	23824
831.08	23737
831.219	24026
831.357	23866
831.496	24095
831.635	23912
831.774	23729
831.913	23672
832.051	23745
832.19	23634
832.329	23760
832.467	23562
832.606	23634
832.744	23398
832.883	23566
833.022	23459
833.16	23493
833.299	23547
833.437	23547
833.576	23608
833.714	23619
833.852	23676
833.991	23615
834.129	23577
834.267	23653
834.406	23585
834.544	23600
834.682	23577
834.821	23630
834.959	23874
835.097	23448
835.235	23665
835.373	23611
835.511	23566
835.65	23531
835.788	23425
835.926	23307
836.064	23277
836.202	23292
836.34	23398
836.478	23573
836.615	23410
836.753	23334
836.891	23558
837.029	23440
837.167	23410
837.305	23353
837.443	23387
837.58	23334
837.718	23421
837.856	23299
837.993	23242
838.131	23360
838.269	23136
838.406	23208
838.544	23143
838.681	22923
838.819	22995
838.956	22683
839.094	22763
839.231	22790
839.369	23025
839.506	23197
839.643	23014
839.781	22797
839.918	22599
840.055	22786
840.193	22721
840.33	22733
840.467	22710
840.604	22782
840.742	23071
840.879	22481
841.016	22675
841.153	22557
841.29	22763
841.427	22664
841.564	22782
841.701	22752
841.838	22580
841.975	22584
842.112	22550
842.249	22306
842.385	22481
842.522	22645
842.659	22481
842.796	22489
842.933	22512
843.069	22432
843.206	22443
843.343	22436
843.479	22451
843.616	22466
843.752	22371
843.889	22341
844.025	22462
844.162	22272
844.298	22428
844.435	22219
844.571	22314
844.708	22284
844.844	22409
844.98	22497
845.117	22356
845.253	22181
845.389	22036
845.525	22082
845.661	22257
845.798	21941
845.934	22211
846.07	21895
846.206	22032
846.342	22177
846.478	21972
846.614	21736
846.75	21720
846.886	21770
847.022	21732
847.158	21751
847.294	21739
847.429	21816
847.565	21770
847.701	21998
847.837	21447
847.972	21462
848.108	21481
848.244	21443
848.379	21336
848.515	21207
848.65	21313
848.786	21176
848.921	21344
849.057	21511
849.192	21389
849.328	21344
849.463	21336
849.598	21260
849.734	21180
849.869	21260
850.004	21032
850.14	21214
850.275	21116
850.41	21009
850.545	21055
850.68	21055
850.815	21089
850.95	21070
851.085	21279
851.22	21218
851.355	21096
851.49	21020
851.625	20994
851.76	21154
851.895	20872
852.03	20986
852.165	21142
852.299	21123
852.434	21146
852.569	21108
852.703	21058
852.838	21154
852.973	21180
853.107	21241
853.242	20933
853.376	20921
853.511	20788
853.645	20830
853.78	21051
853.914	20910
854.048	20811
854.183	20861
854.317	20944
854.451	21119
854.585	20952
854.72	20967
854.854	20967
854.988	20861
855.122	20902
855.256	20750
855.39	20834
855.524	21039
855.658	20948
855.792	20876
855.926	20906
856.06	20971
856.194	20998
856.327	20967
856.461	20868
856.595	20823
856.729	20899
856.862	21070
856.996	20914
857.13	21005
857.263	21039
857.397	21001
857.53	20819
857.664	21028
857.797	20880
857.931	21062
858.064	20994
858.197	21074
858.331	20826
858.464	20902
858.597	20857
858.731	20891
858.864	20899
858.997	20853
859.13	20998
859.263	20845
859.396	21005
859.529	20849
859.662	20842
859.795	20895
859.928	21055
860.061	21062
860.194	21142
860.327	20914
860.46	20887
860.592	21119
860.725	21020
860.858	20960
860.99	21024
861.123	20876
861.256	20746
861.388	20937
861.521	21656
861.653	20899
861.786	20636
861.918	20815
862.05	20807
862.183	20872
862.315	20918
862.447	20895
862.58	20727
862.712	20731
862.844	20621
862.976	20674
863.108	20708
863.24	21047
863.372	20461
863.504	20754
863.636	20781
863.768	20636
863.9	20575
864.032	20514
864.164	20579
864.296	20602
864.428	20716
864.559	20670
864.691	20663
864.823	20613
864.954	20575
865.086	20636
865.217	20522
865.349	20442
865.48	20499
865.612	20495
865.743	20632
865.875	20602
866.006	20446
866.137	20598
866.269	20495
866.4	20461
866.531	20476
866.662	20393
866.793	20480
866.924	20488
867.055	20530
867.186	20480
867.317	20385
867.448	20374
867.579	20457
867.71	20336
867.841	20415
867.972	20412
868.103	20469
868.233	20503
868.364	20511
868.495	20469
868.625	20708
868.756	20712
868.886	20678
869.017	20689
869.147	20792
869.278	20785
869.408	20750
869.539	20689
869.669	20857
869.799	20689
869.929	20861
870.06	20845
870.19	20952
870.32	20937
870.45	21131
870.58	21089
870.71	21028
870.84	21279
870.97	21028
871.1	21028
871.23	21237
871.36	21336
871.489	21203
871.619	21313
871.749	21272
871.879	21378
872.008	21397
872.138	21272
872.267	21355
872.397	21074
872.526	21089
872.656	21199
872.785	21100
872.915	21310
873.044	21256
873.173	21275
873.303	21405
873.432	21336
873.561	21454
873.69	21382
873.819	21310
873.948	21359
874.077	21245
874.206	21275
874.335	21207
874.464	21401
874.593	21545
874.722	21492
874.851	21542
874.979	21606
875.108	21625
875.237	21538
875.365	21412
875.494	21519
875.623	21534
875.751	21519
875.88	21618
876.008	21603
876.136	21759
876.265	21915
876.393	22101
876.521	22128
876.65	22029
876.778	21842
876.906	21972
877.034	21991
877.162	21873
877.29	21743
877.418	21994
877.546	21857
877.674	21953
877.802	21934
877.93	21922
878.058	21991
878.185	21667
878.313	21861
878.441	21934
878.568	21736
878.696	21865
878.824	21968
878.951	21972
879.079	22238
879.206	22219
879.333	22025
879.461	21941
879.588	22044
879.715	22109
879.842	22211
879.97	21937
880.097	21720
880.224	21572
880.351	21800
880.478	21778
880.605	21747
880.732	21736
880.859	21899
880.986	21713
881.112	21686
881.239	21644
881.366	21397
881.493	21363
881.619	21291
881.746	21393
881.872	21313
881.999	21195
882.125	21313
882.252	21321
882.378	21188
882.505	21397
882.631	21222
882.757	21062
882.883	21108
883.01	20998
883.136	21074
883.262	20918
883.388	20887
883.514	20948
883.64	21039
883.766	21051
883.892	20632
884.018	20861
884.143	20979
884.269	21096
884.395	20705
884.52	20651
884.646	20708
884.772	20598
884.897	20629
885.023	20724
885.148	20830
885.274	20868
885.399	20720
885.524	20769
885.65	20716
885.775	20651
885.9	20670
886.025	20781
886.15	20697
886.275	20708
886.4	20560
886.525	20617
886.65	20602
886.775	20587
886.9	20701
887.025	20788
887.149	20648
887.274	20503
887.399	20412
887.523	20362
887.648	20469
887.773	20294
887.897	20632
888.021	20446
888.146	20351
888.27	20522
888.395	20511
888.519	20476
888.643	20461
888.767	20454
888.891	20419
889.015	20199
889.139	20275
889.263	20298
889.387	20412
889.511	20370
889.635	20339
889.759	20195
889.883	20183
890.006	20263
890.13	20355
890.254	20142
890.377	20122
890.501	20092
890.624	20005
890.748	20149
890.871	19928
890.995	19871
891.118	19856
891.241	19826
891.364	19864
891.488	19871
891.611	19864
891.734	19757
891.857	19940
891.98	19909
892.103	19784
892.226	19860
892.349	19894
892.471	19700
892.594	19761
892.717	19784
892.839	19715
892.962	19624
893.085	19925
893.207	19693
893.33	19594
893.452	19601
893.575	19811
893.697	19628
893.819	19803
893.941	19837
894.064	19795
894.186	19708
894.308	19662
894.43	19769
894.552	19788
894.674	19780
894.796	19700
894.918	19696
895.04	19601
895.161	19826
895.283	19715
895.405	19605
895.526	19704
895.648	19662
895.769	19746
895.891	19734
896.012	19788
896.134	19750
896.255	19727
896.376	19704
896.498	19700
896.619	19662
896.74	19715
896.861	19761
896.982	20043
897.103	20206
897.224	19978
897.345	19883
897.466	19906
897.587	19932
897.708	20138
897.828	20043
897.949	19955
898.07	19681
898.19	19925
898.311	19974
898.431	19864
898.552	19936
898.672	20073
898.792	20035
898.913	19940
899.033	19913
899.153	19734
899.273	19765
899.393	19613
899.513	19731
899.633	19708
899.753	19776
899.873	19635
899.993	19772
900.113	19765
900.232	19689
900.352	19571
900.472	19529
900.591	19350
900.711	19411
900.83	19438
900.95	19666
901.069	19571
901.189	19388
901.308	19168
901.427	19065
901.546	19015
901.665	19114
901.784	18989
901.904	18905
902.023	18783
902.141	18669
902.26	18620
902.379	18673
902.498	18547
902.617	18536
902.735	18730
902.854	18555
902.973	18517
903.091	18243
903.21	18319
903.328	18292
903.446	18167
903.565	18076
903.683	18129
903.801	17939
903.919	17992
904.038	17969
904.156	17832
904.274	17885
904.392	17836
904.51	17821
904.627	17745
904.745	17855
904.863	17870
904.981	17611
905.098	17608
905.216	17455
905.334	17501
905.451	17482
905.569	17417
905.686	17638
905.803	17410
905.921	17269
906.038	17467
906.155	17356
906.272	17147
906.389	17307
906.506	17162
906.623	17083
906.74	17090
906.857	16923
906.974	17014
907.091	17181
907.208	17204
907.324	17025
907.441	16949
907.557	16850
907.674	16793
907.79	16649
907.907	16797
908.023	16869
908.139	16790
908.256	16790
908.372	16691
908.488	16584
908.604	16634
908.72	16459
908.836	16500
908.952	16527
909.068	16519
909.184	16565
909.3	16523
909.415	16542
909.531	16485
909.647	16204
909.762	16215
909.878	16257
909.993	16207
910.108	16177
910.224	16192
910.339	16185
910.454	16109
910.57	15998
910.685	15953
910.8	16204
910.915	16112
911.03	15972
911.145	15899
911.259	15808
911.374	15816
911.489	15717
911.604	15778
911.718	15538
911.833	15644
911.947	15450
912.062	15447
912.176	15511
912.291	15553
912.405	15576
912.519	15675
912.633	15717
912.748	15561
912.862	15538
912.976	15393
913.09	15359
913.204	15313
913.318	15424
913.431	15435
913.545	15374
913.659	15488
913.772	15374
913.886	15317
914	15135
914.113	15340
914.226	15279
914.34	15268
914.453	15028
914.566	15211
914.68	15119
914.793	15089
914.906	14857
915.019	14788
915.132	14720
915.245	14765
915.358	14864
915.47	14842
915.583	14739
915.696	14785
915.809	14963
915.921	15024
916.034	14781
916.146	14739
916.259	14727
916.371	14792
916.483	14800
916.595	14564
916.708	14651
916.82	14590
916.932	14594
917.044	14621
917.156	14465
917.268	14358
917.38	14526
917.491	14431
917.603	14480
917.715	14507
917.826	14594
917.938	14511
918.049	14294
918.161	14492
918.272	14530
918.384	14564
918.495	14518
918.606	14286
918.717	14142
918.828	14301
918.939	14267
919.05	14126
919.161	14248
919.272	14035
919.383	14100
919.494	14278
919.604	14442
919.715	14229
919.826	14069
919.936	14130
920.047	14267
920.157	14176
920.267	14499
920.378	14225
920.488	14092
920.598	14298
920.708	14571
920.818	14332
920.928	14408
921.038	14560
921.148	14484
921.258	14153
921.368	14050
921.477	13951
921.587	13947
921.697	13811
921.806	13974
921.916	13807
922.025	13639
922.134	13559
922.244	13624
922.353	13609
922.462	13483
922.571	13312
922.68	13266
922.789	13324
922.898	13217
923.007	13152
923.116	13263
923.224	13202
923.333	13251
923.442	13046
923.55	13042
923.659	13137
923.767	13145
923.876	13042
923.984	13190
924.092	12985
924.201	13023
924.309	12947
924.417	13027
924.525	13034
924.633	12913
924.741	13833
924.849	12760
924.956	12837
925.064	12722
925.172	12551
925.279	12665
925.387	12673
925.494	12654
925.602	12821
925.709	12764
925.816	12566
925.924	12597
926.031	12631
926.138	12696
926.245	12688
926.352	12589
926.459	12642
926.566	12677
926.673	12513
926.779	12422
926.886	12498
926.993	12254
927.099	12266
927.206	12194
927.312	12190
927.419	12334
927.525	12117
927.631	12262
927.737	12136
927.843	12163
927.95	11992
928.056	12030
928.162	12098
928.267	11984
928.373	12696
928.479	12083
928.585	11889
928.69	12121
928.796	12136
928.901	11901
929.007	11760
929.112	11893
929.218	11950
929.323	11843
929.428	11767
929.533	11843
929.638	11760
929.743	11756
929.848	11824
929.953	11748
930.058	11608
930.163	11600
930.267	11573
930.372	11649
930.477	11459
930.581	11638
930.685	11520
930.79	11379
930.894	11402
930.998	11356
931.103	11570
931.207	11083
931.311	11128
931.415	10984
931.519	10790
931.623	10824
