Data from test_V78500241_2463.txt Node
Date: Fri Mar 25 15:27:00 CST 2022
User: usil
Spectrometer: V785-0024
Trigger mode: 0
Integration Time (sec): 4.000000E-1
Scans to average: 1
Nonlinearity correction enabled: false
Boxcar width: 0
Storing dark spectrum: false
XAxis mode: Wavelengths
Number of Pixels in Spectrum: 1024
>>>>>Begin Spectral Data<<<<<
801.071	26975
801.214	26788
801.356	26678
801.499	26625
801.641	26571
801.783	26389
801.926	26636
802.068	26533
802.211	26473
802.353	26305
802.496	26020
802.638	26081
802.78	26252
802.923	25913
803.065	26043
803.208	26005
803.35	26062
803.492	26195
803.635	26294
803.777	26096
803.919	26298
804.061	26473
804.204	26317
804.346	26149
804.488	26103
804.63	26187
804.773	26107
804.915	26275
805.057	26271
805.199	26244
805.341	26366
805.483	26225
805.626	26408
805.768	26355
805.91	26313
806.052	26358
806.194	26164
806.336	26317
806.478	26298
806.62	26298
806.762	26412
806.904	26530
807.046	26826
807.188	26777
807.33	26857
807.472	26792
807.614	26655
807.756	26682
807.898	26594
808.04	26461
808.182	26480
808.324	26640
808.465	26686
808.607	26868
808.749	27058
808.891	26994
809.033	27085
809.174	27001
809.316	26971
809.458	26891
809.6	26838
809.741	26998
809.883	26994
810.025	27275
810.166	27226
810.308	27275
810.45	27150
810.591	27055
810.733	26975
810.875	26796
811.016	26853
811.158	26899
811.299	27005
811.441	27116
811.582	27100
811.724	27001
811.865	26887
812.007	26815
812.148	26944
812.29	26880
812.431	27104
812.573	27188
812.714	27279
812.855	27363
812.997	27485
813.138	27488
813.279	27545
813.421	27321
813.562	27218
813.703	27241
813.845	27058
813.986	26758
814.127	26708
814.268	26518
814.41	26678
814.551	26575
814.692	26583
814.833	26533
814.974	26560
815.115	26583
815.256	26473
815.397	26385
815.539	26453
815.68	26434
815.821	26229
815.962	26187
816.103	26183
816.244	26248
816.385	26244
816.526	26183
816.666	25898
816.807	25632
816.948	26035
817.089	25902
817.23	25731
817.371	25696
817.512	25620
817.653	25841
817.793	25757
817.934	25666
818.075	25757
818.216	25586
818.356	25868
818.497	25681
818.638	25495
818.778	25445
818.919	25502
819.06	25582
819.2	25731
819.341	25723
819.481	25852
819.622	25890
819.762	26020
819.903	26035
820.043	25997
820.184	25708
820.324	25864
820.465	25997
820.605	25852
820.746	25769
820.886	25685
821.026	25849
821.167	25746
821.307	25951
821.447	25826
821.588	25700
821.728	25537
821.868	25358
822.008	25274
822.149	25206
822.289	25236
822.429	25042
822.569	24886
822.709	25015
822.849	24791
822.99	24825
823.13	24779
823.27	24730
823.41	24559
823.55	24574
823.69	24555
823.83	24437
823.97	24505
824.11	24353
824.25	24369
824.389	24308
824.529	24403
824.669	24372
824.809	24429
824.949	24528
825.089	24464
825.228	24338
825.368	24194
825.508	24224
825.648	24121
825.787	24311
825.927	24471
826.067	24353
826.206	24346
826.346	24319
826.485	24300
826.625	24186
826.765	24395
826.904	24190
827.044	24022
827.183	24026
827.323	23996
827.462	23908
827.601	24007
827.741	23889
827.88	24015
828.02	23885
828.159	23760
828.298	23923
828.437	24038
828.577	23897
828.716	24003
828.855	23935
828.994	23775
829.134	23722
829.273	23783
829.412	23585
829.551	23577
829.69	23684
829.829	23615
829.968	23824
830.107	23718
830.246	23623
830.385	23543
830.524	23585
830.663	23448
830.802	23509
830.941	23376
831.08	23258
831.219	23379
831.357	23372
831.496	23478
831.635	23254
831.774	23277
831.913	23216
832.051	23071
832.19	23033
832.329	22968
832.467	23022
832.606	22934
832.744	23029
832.883	22968
833.022	23048
833.16	22892
833.299	23181
833.437	22889
833.576	23064
833.714	23029
833.852	23136
833.991	23018
834.129	23056
834.267	23181
834.406	22976
834.544	23109
834.682	23025
834.821	22968
834.959	23105
835.097	22908
835.235	23071
835.373	22991
835.511	23033
835.65	22946
835.788	22953
835.926	22752
836.064	22668
836.202	22816
836.34	22858
836.478	22949
836.615	22923
836.753	22805
836.891	22919
837.029	22927
837.167	22805
837.305	22869
837.443	22805
837.58	22725
837.718	22869
837.856	22744
837.993	22748
838.131	22771
838.269	22740
838.406	22683
838.544	22637
838.681	22447
838.819	22268
838.956	22181
839.094	22265
839.231	22265
839.369	22310
839.506	22599
839.643	22497
839.781	22230
839.918	22169
840.055	22276
840.193	22306
840.33	22303
840.467	22215
840.604	22371
840.742	22478
840.879	22032
841.016	22093
841.153	21975
841.29	22284
841.427	22169
841.564	22124
841.701	22090
841.838	22131
841.975	22067
842.112	22166
842.249	22078
842.385	22032
842.522	22299
842.659	21960
842.796	21949
842.933	21949
843.069	21915
843.206	21816
843.343	21880
843.479	21838
843.616	21953
843.752	21633
843.889	21739
844.025	21918
844.162	21686
844.298	21713
844.435	21686
844.571	21614
844.708	21823
844.844	21804
844.98	21717
845.117	21785
845.253	21530
845.389	21637
845.525	21599
845.661	21481
845.798	21302
845.934	21431
846.07	21310
846.206	21408
846.342	21572
846.478	21443
846.614	21192
846.75	21142
846.886	21138
847.022	21272
847.158	21203
847.294	21142
847.429	21146
847.565	21058
847.701	21408
847.837	20914
847.972	20769
848.108	20952
848.244	20933
848.379	20876
848.515	20754
848.65	20720
848.786	20800
848.921	20724
849.057	20800
849.192	20925
849.328	20754
849.463	20887
849.598	20621
849.734	20682
849.869	20655
850.004	20590
850.14	20499
850.275	20560
850.41	20393
850.545	20412
850.68	20400
850.815	20533
850.95	20412
851.085	20579
851.22	20568
851.355	20564
851.49	20469
851.625	20473
851.76	20514
851.895	20476
852.03	20446
852.165	20499
852.299	20602
852.434	20667
852.569	20575
852.703	20579
852.838	20545
852.973	20651
853.107	20606
853.242	20396
853.376	20347
853.511	20309
853.645	20256
853.78	20412
853.914	20446
854.048	20298
854.183	20358
854.317	20343
854.451	20492
854.585	20377
854.72	20324
854.854	20400
854.988	20351
855.122	20237
855.256	20218
855.39	20355
855.524	20442
855.658	20549
855.792	20317
855.926	20305
856.06	20374
856.194	20518
856.327	20381
856.461	20275
856.595	20317
856.729	20355
856.862	20393
856.996	20324
857.13	20400
857.263	20396
857.397	20488
857.53	20343
857.664	20473
857.797	20332
857.931	20503
858.064	20438
858.197	20419
858.331	20275
858.464	20244
858.597	20225
858.731	20461
858.864	20320
858.997	20305
859.13	20400
859.263	20423
859.396	20473
859.529	20431
859.662	20385
859.795	20294
859.928	20343
860.061	20552
860.194	20514
860.327	20370
860.46	20305
860.592	20473
860.725	20545
860.858	20499
860.99	20328
861.123	20358
861.256	20339
861.388	20438
861.521	20823
861.653	20248
861.786	20206
861.918	20157
862.05	20199
862.183	20240
862.315	20339
862.447	20336
862.58	20168
862.712	20069
862.844	19989
862.976	20221
863.108	20115
863.24	20556
863.372	19963
863.504	20081
863.636	19974
863.768	20229
863.9	20103
864.032	19909
864.164	19982
864.296	20168
864.428	20172
864.559	20107
864.691	20199
864.823	20008
864.954	19955
865.086	20035
865.217	20043
865.349	19913
865.48	20050
865.612	19951
865.743	20294
865.875	20035
866.006	19879
866.137	19978
866.269	20043
866.4	19883
866.531	19871
866.662	19864
866.793	19917
866.924	19940
867.055	19947
867.186	19921
867.317	19917
867.448	19871
867.579	19837
867.71	19898
867.841	19887
867.972	19890
868.103	19879
868.233	19928
868.364	19932
868.495	20043
868.625	20062
868.756	20343
868.886	20054
869.017	20195
869.147	20237
869.278	20282
869.408	20180
869.539	20233
869.669	20263
869.799	20347
869.929	20214
870.06	20317
870.19	20434
870.32	20541
870.45	20400
870.58	20556
870.71	20678
870.84	20598
870.97	20537
871.1	20575
871.23	20743
871.36	20697
871.489	20667
871.619	20712
871.749	20785
871.879	20845
872.008	20906
872.138	20777
872.267	20724
872.397	20716
872.526	20560
872.656	20720
872.785	20606
872.915	20853
873.044	20826
873.173	20804
873.303	20819
873.432	20864
873.561	20895
873.69	20861
873.819	20910
873.948	20963
874.077	20845
874.206	20902
874.335	20792
874.464	20998
874.593	21001
874.722	21028
874.851	20990
874.979	20975
875.108	21119
875.237	20925
875.365	20941
875.494	21051
875.623	21055
875.751	21055
875.88	21150
876.008	21154
876.136	21154
876.265	21389
876.393	21500
876.521	21523
876.65	21515
876.778	21447
876.906	21534
877.034	21313
877.162	21340
877.29	21256
877.418	21378
877.546	21420
877.674	21389
877.802	21439
877.93	21310
878.058	21412
878.185	21188
878.313	21233
878.441	21500
878.568	21199
878.696	21344
878.824	21378
878.951	21462
879.079	21557
879.206	21705
879.333	21568
879.461	21416
879.588	21545
879.715	21603
879.842	21686
879.97	21397
880.097	21211
880.224	21157
880.351	21207
880.478	21294
880.605	21241
880.732	21199
880.859	21363
880.986	21233
881.112	21173
881.239	21150
881.366	21005
881.493	20838
881.619	20845
881.746	20834
881.872	20773
881.999	20765
882.125	20724
882.252	20781
882.378	20883
882.505	20895
882.631	20693
882.757	20465
882.883	20590
883.01	20514
883.136	20556
883.262	20434
883.388	20313
883.514	20530
883.64	20488
883.766	20366
883.892	20301
884.018	20301
884.143	20537
884.269	20571
884.395	20164
884.52	20282
884.646	20172
884.772	20142
884.897	20073
885.023	20149
885.148	20278
885.274	20309
885.399	20233
885.524	20218
885.65	20142
885.775	20218
885.9	20149
886.025	20282
886.15	20252
886.275	20077
886.4	20111
886.525	20161
886.65	20092
886.775	20088
886.9	20252
887.025	20324
887.149	20142
887.274	19989
887.399	20001
887.523	19902
887.648	19871
887.773	19860
887.897	20012
888.021	19879
888.146	19917
888.27	20077
888.395	19982
888.519	19944
888.643	19967
888.767	19997
888.891	19833
889.015	19780
889.139	19879
889.263	19662
889.387	19944
889.511	19837
889.635	19951
889.759	19753
889.883	19738
890.006	19628
890.13	19890
890.254	19704
890.377	19651
890.501	19529
890.624	19495
890.748	19605
890.871	19407
890.995	19411
891.118	19213
891.241	19377
891.364	19396
891.488	19468
891.611	19350
891.734	19460
891.857	19445
891.98	19335
892.103	19403
892.226	19278
892.349	19209
892.471	19160
892.594	19232
892.717	19381
892.839	19240
892.962	19331
893.085	19415
893.207	19183
893.33	19145
893.452	19156
893.575	19381
893.697	19187
893.819	19301
893.941	19434
894.064	19346
894.186	19274
894.308	19266
894.43	19331
894.552	19419
894.674	19381
894.796	19293
894.918	19232
895.04	19202
895.161	19358
895.283	19255
895.405	19175
895.526	19293
895.648	19221
895.769	19377
895.891	19335
896.012	19339
896.134	19369
896.255	19228
896.376	19236
896.498	19297
896.619	19206
896.74	19263
896.861	19354
896.982	19533
897.103	19677
897.224	19578
897.345	19529
897.466	19460
897.587	19609
897.708	19719
897.828	19658
897.949	19529
898.07	19187
898.19	19358
898.311	19586
898.431	19601
898.552	19434
898.672	19624
898.792	19514
898.913	19381
899.033	19453
899.153	19362
899.273	19270
899.393	19247
899.513	19225
899.633	19240
899.753	19308
899.873	19209
899.993	19297
900.113	19206
900.232	19228
900.352	19122
900.472	19099
900.591	19118
900.711	19027
900.83	19046
900.95	19217
901.069	19107
901.189	18947
901.308	18726
901.427	18604
901.546	18639
901.665	18711
901.784	18585
901.904	18479
902.023	18429
902.141	18251
902.26	18125
902.379	18308
902.498	18110
902.617	18117
902.735	18197
902.854	18178
902.973	18030
903.091	17882
903.21	17752
903.328	17798
903.446	17741
903.565	17790
903.683	17699
903.801	17558
903.919	17604
904.038	17600
904.156	17406
904.274	17455
904.392	17452
904.51	17337
904.627	17345
904.745	17452
904.863	17417
904.981	17197
905.098	17147
905.216	17143
905.334	17102
905.451	17117
905.569	17094
905.686	17143
905.803	17143
905.921	16915
906.038	17010
906.155	16923
906.272	16812
906.389	16812
906.506	16622
906.623	16664
906.74	16744
906.857	16554
906.974	16542
907.091	16828
907.208	16820
907.324	16660
907.441	16554
907.557	16421
907.674	16375
907.79	16200
907.907	16409
908.023	16329
908.139	16466
908.256	16272
908.372	16318
908.488	16268
908.604	16055
908.72	16131
908.836	16131
908.952	16188
909.068	16109
909.184	16147
909.3	16032
909.415	16112
909.531	16032
909.647	15968
909.762	15854
909.878	15793
909.993	15876
910.108	15724
910.224	15804
910.339	15766
910.454	15667
910.57	15614
910.685	15568
910.8	15827
910.915	15911
911.03	15572
911.145	15519
911.259	15462
911.374	15454
911.489	15287
911.604	15294
911.718	15256
911.833	15287
911.947	15173
912.062	15097
912.176	15279
912.291	15313
912.405	15363
912.519	15492
912.633	15401
912.748	15256
912.862	15245
912.976	15051
913.09	14891
913.204	14990
913.318	15062
913.431	15131
913.545	15070
913.659	15169
913.772	14982
913.886	14876
914	14838
914.113	15005
914.226	14925
914.34	14785
914.453	14830
914.566	14823
914.68	14750
914.793	14636
914.906	14522
915.019	14412
915.132	14385
915.245	14328
915.358	14476
915.47	14530
915.583	14488
915.696	14450
915.809	14629
915.921	14648
916.034	14393
916.146	14476
916.259	14343
916.371	14476
916.483	14358
916.595	14240
916.708	14309
916.82	14347
916.932	14256
917.044	14278
917.156	14142
917.268	14035
917.38	14119
917.491	14058
917.603	14081
917.715	14195
917.826	14225
917.938	14001
918.049	13955
918.161	14031
918.272	14149
918.384	14157
918.495	13993
918.606	13932
918.717	13871
918.828	13928
918.939	13887
919.05	13860
919.161	13967
919.272	13731
919.383	13696
919.494	13993
919.604	14065
919.715	13845
919.826	13746
919.936	13841
920.047	13883
920.157	13890
920.267	14077
920.378	13906
920.488	13811
920.598	14012
920.708	14111
920.818	14046
920.928	14008
921.038	14195
921.148	14103
921.258	13883
921.368	13719
921.477	13666
921.587	13723
921.697	13525
921.806	13594
921.916	13510
922.025	13282
922.134	13285
922.244	13221
922.353	13289
922.462	13301
922.571	13114
922.68	12939
922.789	12890
922.898	12905
923.007	12859
923.116	12966
923.224	12951
923.333	12852
923.442	12745
923.55	12856
923.659	12791
923.767	12867
923.876	12741
923.984	12856
924.092	12703
924.201	12749
924.309	12703
924.417	12700
924.525	12620
924.633	12627
924.741	13514
924.849	12426
924.956	12570
925.064	12460
925.172	12338
925.279	12437
925.387	12300
925.494	12384
925.602	12384
925.709	12365
925.816	12311
925.924	12300
926.031	12426
926.138	12247
926.245	12327
926.352	12224
926.459	12346
926.566	12380
926.673	12243
926.779	12201
926.886	12091
926.993	11931
927.099	11889
927.206	11984
927.312	11901
927.419	11999
927.525	11832
927.631	11923
927.737	11889
927.843	11786
927.95	11661
928.056	11737
928.162	11832
928.267	11840
928.373	12486
928.479	11863
928.585	11627
928.69	11764
928.796	11828
928.901	11684
929.007	11505
929.112	11665
929.218	11592
929.323	11501
929.428	11551
929.533	11710
929.638	11455
929.743	11493
929.848	11611
929.953	11501
930.058	11433
930.163	11162
930.267	11216
930.372	11311
930.477	11174
930.581	11421
930.685	11356
930.79	11124
930.894	11170
930.998	11052
931.103	11284
931.207	10900
931.311	10839
931.415	10736
931.519	10588
931.623	10542
