Data from test_V78500241_1269.txt Node
Date: Fri Mar 25 15:18:41 CST 2022
User: usil
Spectrometer: V785-0024
Trigger mode: 0
Integration Time (sec): 4.000000E-1
Scans to average: 1
Nonlinearity correction enabled: false
Boxcar width: 0
Storing dark spectrum: false
XAxis mode: Wavelengths
Number of Pixels in Spectrum: 1024
>>>>>Begin Spectral Data<<<<<
801.071	27991
801.214	27994
801.356	27660
801.499	27572
801.641	27603
801.783	27545
801.926	27606
802.068	27663
802.211	27542
802.353	27511
802.496	27416
802.638	27226
802.78	27382
802.923	27294
803.065	27066
803.208	27154
803.35	27226
803.492	27393
803.635	27469
803.777	27412
803.919	27454
804.061	27781
804.204	27545
804.346	27348
804.488	27420
804.63	27291
804.773	27321
804.915	27443
805.057	27492
805.199	27416
805.341	27587
805.483	27538
805.626	27675
805.768	27420
805.91	27610
806.052	27656
806.194	27530
806.336	27789
806.478	27675
806.62	27595
806.762	27770
806.904	27850
807.046	28188
807.188	27960
807.33	27903
807.472	27972
807.614	27979
807.756	27964
807.898	27865
808.04	27842
808.182	27835
808.324	27880
808.465	28010
808.607	28143
808.749	28112
808.891	28306
809.033	28455
809.174	28386
809.316	28207
809.458	28211
809.6	28234
809.741	28318
809.883	28451
810.025	28596
810.166	28481
810.308	28611
810.45	28519
810.591	28398
810.733	28261
810.875	28322
811.016	28261
811.158	28070
811.299	28219
811.441	28341
811.582	28341
811.724	28322
811.865	28200
812.007	28219
812.148	28215
812.29	28322
812.431	28470
812.573	28626
812.714	28645
812.855	28908
812.997	28839
813.138	29022
813.279	28778
813.421	28812
813.562	28790
813.703	28527
813.845	28462
813.986	28120
814.127	28006
814.268	28017
814.41	27937
814.551	27884
814.692	28082
814.833	27816
814.974	27953
815.115	28025
815.256	27762
815.397	27895
815.539	27819
815.68	27854
815.821	27739
815.962	27895
816.103	27816
816.244	27576
816.385	27435
816.526	27583
816.666	27355
816.807	27313
816.948	27329
817.089	27431
817.23	27260
817.371	27142
817.512	27348
817.653	27260
817.793	27123
817.934	27313
818.075	27370
818.216	27226
818.356	27123
818.497	27214
818.638	27024
818.778	26918
818.919	27062
819.06	27020
819.2	27116
819.341	27218
819.481	27150
819.622	27458
819.762	27511
819.903	27408
820.043	27534
820.184	27386
820.324	27454
820.465	27427
820.605	27351
820.746	27272
820.886	27161
821.026	27325
821.167	27218
821.307	27538
821.447	27222
821.588	27184
821.728	27211
821.868	26967
822.008	26750
822.149	26602
822.289	26655
822.429	26336
822.569	26438
822.709	26301
822.849	26351
822.99	26221
823.13	26271
823.27	26252
823.41	26130
823.55	25947
823.69	26126
823.83	26130
823.97	26065
824.11	25852
824.25	25890
824.389	25784
824.529	26001
824.669	25982
824.809	26024
824.949	25909
825.089	25982
825.228	26096
825.368	25753
825.508	25712
825.648	25944
825.787	25814
825.927	25871
826.067	25734
826.206	25643
826.346	25742
826.485	25677
826.625	25761
826.765	25875
826.904	25879
827.044	25506
827.183	25628
827.323	25324
827.462	25693
827.601	25358
827.741	25491
827.88	25506
828.02	25362
828.159	25479
828.298	25457
828.437	25438
828.577	25354
828.716	25609
828.855	25365
828.994	25091
829.134	25202
829.273	25369
829.412	25213
829.551	24985
829.69	25160
829.829	25114
829.968	25217
830.107	25206
830.246	25297
830.385	25194
830.524	25110
830.663	25046
830.802	24966
830.941	24703
831.08	24730
831.219	24795
831.357	24962
831.496	25076
831.635	24810
831.774	24753
831.913	24719
832.051	24688
832.19	24665
832.329	24623
832.467	24616
832.606	24536
832.744	24479
832.883	24460
833.022	24407
833.16	24479
833.299	24513
833.437	24513
833.576	24673
833.714	24585
833.852	24604
833.991	24471
834.129	24616
834.267	24563
834.406	24684
834.544	24555
834.682	24528
834.821	24570
834.959	24741
835.097	24513
835.235	24589
835.373	24620
835.511	24479
835.65	24334
835.788	24414
835.926	24327
836.064	24186
836.202	24068
836.34	24342
836.478	24422
836.615	24319
836.753	24376
836.891	24414
837.029	24441
837.167	24361
837.305	24243
837.443	24133
837.58	24251
837.718	24342
837.856	24262
837.993	24174
838.131	24334
838.269	24072
838.406	24114
838.544	24136
838.681	23802
838.819	23927
838.956	23695
839.094	23562
839.231	23680
839.369	23851
839.506	24201
839.643	23950
839.781	23748
839.918	23581
840.055	23672
840.193	23634
840.33	23672
840.467	23596
840.604	23703
840.742	23802
840.879	23482
841.016	23604
841.153	23467
841.29	23611
841.427	23471
841.564	23589
841.701	23482
841.838	23505
841.975	23520
842.112	23440
842.249	23353
842.385	23478
842.522	23551
842.659	23482
842.796	23269
842.933	23452
843.069	23406
843.206	23170
843.343	23486
843.479	23337
843.616	23379
843.752	23128
843.889	23174
844.025	23197
844.162	23197
844.298	23117
844.435	23189
844.571	23105
844.708	23208
844.844	23341
844.98	23296
845.117	23318
845.253	22972
845.389	22995
845.525	22968
845.661	22999
845.798	22881
845.934	22896
846.07	22873
846.206	22778
846.342	22930
846.478	22869
846.614	22675
846.75	22557
846.886	22527
847.022	22615
847.158	22660
847.294	22538
847.429	22599
847.565	22550
847.701	22797
847.837	22337
847.972	22261
848.108	22493
848.244	22379
848.379	22234
848.515	22211
848.65	22154
848.786	22192
848.921	22158
849.057	22276
849.192	22276
849.328	22246
849.463	22215
849.598	22215
849.734	22162
849.869	22192
850.004	22048
850.14	21983
850.275	21873
850.41	21987
850.545	21972
850.68	21895
850.815	21975
850.95	21861
851.085	22147
851.22	22101
851.355	21987
851.49	21915
851.625	21884
851.76	21869
851.895	21827
852.03	21911
852.165	22006
852.299	21987
852.434	22032
852.569	21949
852.703	21876
852.838	22029
852.973	22070
853.107	22010
853.242	21915
853.376	21751
853.511	21671
853.645	21675
853.78	21857
853.914	21656
854.048	21713
854.183	21701
854.317	21785
854.451	21972
854.585	21698
854.72	21690
854.854	21774
854.988	21622
855.122	21759
855.256	21671
855.39	21766
855.524	21926
855.658	21892
855.792	21785
855.926	21892
856.06	21736
856.194	21789
856.327	21713
856.461	21720
856.595	21743
856.729	21724
856.862	21804
856.996	21857
857.13	21838
857.263	21884
857.397	21892
857.53	21644
857.664	21778
857.797	21888
857.931	21861
858.064	21816
858.197	21873
858.331	21747
858.464	21724
858.597	21671
858.731	21762
858.864	21720
858.997	21667
859.13	21690
859.263	21705
859.396	21747
859.529	21812
859.662	21682
859.795	21591
859.928	21690
860.061	21994
860.194	21949
860.327	21739
860.46	21774
860.592	21937
860.725	21793
860.858	21915
860.99	21823
861.123	21743
861.256	21736
861.388	21888
861.521	22527
861.653	21667
861.786	21466
861.918	21599
862.05	21667
862.183	21701
862.315	21736
862.447	21819
862.58	21591
862.712	21504
862.844	21534
862.976	21656
863.108	21568
863.24	21762
863.372	21405
863.504	21428
863.636	21393
863.768	21542
863.9	21420
864.032	21466
864.164	21477
864.296	21534
864.428	21496
864.559	21519
864.691	21587
864.823	21534
864.954	21348
865.086	21344
865.217	21363
865.349	21348
865.48	21344
865.612	21386
865.743	21477
865.875	21363
866.006	21233
866.137	21260
866.269	21272
866.4	21302
866.531	21355
866.662	21268
866.793	21325
866.924	21230
867.055	21389
867.186	21165
867.317	21272
867.448	21249
867.579	21264
867.71	21272
867.841	21077
867.972	21279
868.103	21070
868.233	21214
868.364	21348
868.495	21447
868.625	21473
868.756	21564
868.886	21511
869.017	21610
869.147	21644
869.278	21701
869.408	21469
869.539	21591
869.669	21656
869.799	21568
869.929	21720
870.06	21553
870.19	21835
870.32	21660
870.45	21823
870.58	21922
870.71	22040
870.84	21968
870.97	21964
871.1	21899
871.23	22169
871.36	22135
871.489	21831
871.619	21972
871.749	22010
871.879	22192
872.008	22272
872.138	22055
872.267	22116
872.397	21876
872.526	21842
872.656	21930
872.785	21979
872.915	22093
873.044	22169
873.173	22181
873.303	22211
873.432	22158
873.561	22306
873.69	22188
873.819	22154
873.948	22207
874.077	22192
874.206	21964
874.335	22128
874.464	22169
874.593	22325
874.722	22303
874.851	22386
874.979	22382
875.108	22367
875.237	22386
875.365	22207
875.494	22314
875.623	22462
875.751	22322
875.88	22440
876.008	22462
876.136	22481
876.265	22713
876.393	22900
876.521	22835
876.65	22771
876.778	22820
876.906	22618
877.034	22630
877.162	22702
877.29	22592
877.418	22717
877.546	22771
877.674	22687
877.802	22557
877.93	22683
878.058	22531
878.185	22603
878.313	22717
878.441	22668
878.568	22535
878.696	22573
878.824	22786
878.951	22698
879.079	22786
879.206	22919
879.333	22839
879.461	22675
879.588	22797
879.715	22755
879.842	22843
879.97	22774
880.097	22500
880.224	22363
880.351	22428
880.478	22588
880.605	22352
880.732	22508
880.859	22744
880.986	22447
881.112	22554
881.239	22382
881.366	22246
881.493	22116
881.619	22120
881.746	22002
881.872	22219
881.999	22097
882.125	21934
882.252	22185
882.378	21979
882.505	22131
882.631	21865
882.757	21800
882.883	21895
883.01	21739
883.136	21736
883.262	21671
883.388	21720
883.514	21743
883.64	21838
883.766	21682
883.892	21458
884.018	21614
884.143	21709
884.269	21880
884.395	21462
884.52	21466
884.646	21355
884.772	21420
884.897	21279
885.023	21504
885.148	21610
885.274	21511
885.399	21511
885.524	21374
885.65	21545
885.775	21344
885.9	21450
886.025	21348
886.15	21428
886.275	21359
886.4	21256
886.525	21481
886.65	21298
886.775	21317
886.9	21526
887.025	21644
887.149	21378
887.274	21192
887.399	21161
887.523	21264
887.648	21199
887.773	20971
887.897	21165
888.021	21176
888.146	20998
888.27	21329
888.395	21279
888.519	21157
888.643	21066
888.767	21157
888.891	21184
889.015	20975
889.139	21104
889.263	20944
889.387	21096
889.511	21142
889.635	21127
889.759	21066
889.883	20811
890.006	21017
890.13	21028
890.254	20956
890.377	20906
890.501	20659
890.624	20617
890.748	20788
890.871	20625
890.995	20526
891.118	20438
891.241	20560
891.364	20507
891.488	20609
891.611	20648
891.734	20549
891.857	20644
891.98	20427
892.103	20549
892.226	20503
892.349	20488
892.471	20267
892.594	20385
892.717	20526
892.839	20381
892.962	20427
893.085	20450
893.207	20377
893.33	20332
893.452	20377
893.575	20594
893.697	20526
893.819	20526
893.941	20560
894.064	20507
894.186	20324
894.308	20317
894.43	20552
894.552	20526
894.674	20495
894.796	20343
894.918	20522
895.04	20259
895.161	20480
895.283	20492
895.405	20393
895.526	20404
895.648	20454
895.769	20473
895.891	20461
896.012	20499
896.134	20537
896.255	20480
896.376	20374
896.498	20389
896.619	20339
896.74	20415
896.861	20404
896.982	20670
897.103	20906
897.224	20655
897.345	20640
897.466	20575
897.587	20731
897.708	20708
897.828	20682
897.949	20693
898.07	20503
898.19	20503
898.311	20640
898.431	20564
898.552	20663
898.672	20617
898.792	20682
898.913	20655
899.033	20473
899.153	20461
899.273	20305
899.393	20336
899.513	20377
899.633	20358
899.753	20415
899.873	20195
899.993	20457
900.113	20313
900.232	20374
900.352	20252
900.472	20183
900.591	20214
900.711	20172
900.83	20100
900.95	20233
901.069	20172
901.189	20100
901.308	19769
901.427	19693
901.546	19693
901.665	19628
901.784	19681
901.904	19548
902.023	19472
902.141	19171
902.26	19285
902.379	19354
902.498	19171
902.617	19232
902.735	19331
902.854	19171
902.973	19187
903.091	18958
903.21	18985
903.328	18894
903.446	18764
903.565	18768
903.683	18730
903.801	18574
903.919	18715
904.038	18604
904.156	18608
904.274	18544
904.392	18426
904.51	18475
904.627	18372
904.745	18490
904.863	18498
904.981	18266
905.098	18064
905.216	18148
905.334	18182
905.451	18148
905.569	18106
905.686	18239
905.803	18171
905.921	17973
906.038	17992
906.155	17999
906.272	17809
906.389	17760
906.506	17665
906.623	17573
906.74	17718
906.857	17543
906.974	17611
907.091	17710
907.208	17771
907.324	17623
907.441	17623
907.557	17463
907.674	17353
907.79	17395
907.907	17284
908.023	17433
908.139	17356
908.256	17334
908.372	17360
908.488	17265
908.604	17094
908.72	17170
908.836	17083
908.952	17041
909.068	17071
909.184	17242
909.3	17170
909.415	17136
909.531	17037
909.647	16885
909.762	16820
909.878	16782
909.993	16805
910.108	16797
910.224	16801
910.339	16748
910.454	16660
910.57	16607
910.685	16577
910.8	16778
910.915	16805
911.03	16618
911.145	16451
911.259	16451
911.374	16447
911.489	16344
911.604	16310
911.718	16162
911.833	16169
911.947	16067
912.062	16002
912.176	16112
912.291	16139
912.405	16147
912.519	16371
912.633	16226
912.748	16105
912.862	16097
912.976	15899
913.09	15846
913.204	15918
913.318	15915
913.431	16040
913.545	15918
913.659	16071
913.772	15865
913.886	15747
914	15778
914.113	15850
914.226	15911
914.34	15808
914.453	15625
914.566	15755
914.68	15705
914.793	15561
914.906	15439
915.019	15439
915.132	15279
915.245	15256
915.358	15367
915.47	15359
915.583	15256
915.696	15393
915.809	15477
915.921	15378
916.034	15249
916.146	15211
916.259	15291
916.371	15336
916.483	15344
916.595	15161
916.708	15218
916.82	15138
916.932	15154
917.044	15081
917.156	15150
917.268	14963
917.38	15062
917.491	14918
917.603	14979
917.715	14990
917.826	15043
917.938	14967
918.049	14815
918.161	14891
918.272	15028
918.384	15089
918.495	14819
918.606	14773
918.717	14697
918.828	14811
918.939	14758
919.05	14651
919.161	14708
919.272	14590
919.383	14552
919.494	14758
919.604	14883
919.715	14750
919.826	14621
919.936	14621
920.047	14838
920.157	14758
920.267	14807
920.378	14735
920.488	14594
920.598	14868
920.708	15017
920.818	14800
920.928	14838
921.038	14967
921.148	14861
921.258	14568
921.368	14636
921.477	14408
921.587	14412
921.697	14343
921.806	14393
921.916	14286
922.025	14039
922.134	14088
922.244	14012
922.353	14164
922.462	14012
922.571	13902
922.68	13769
922.789	13624
922.898	13708
923.007	13712
923.116	13731
923.224	13727
923.333	13715
923.442	13601
923.55	13571
923.659	13582
923.767	13590
923.876	13510
923.984	13499
924.092	13491
924.201	13480
924.309	13472
924.417	13396
924.525	13331
924.633	13422
924.741	14153
924.849	13221
924.956	13354
925.064	13118
925.172	13099
925.279	13156
925.387	13133
925.494	13160
925.602	13209
925.709	13160
925.816	12958
925.924	13046
926.031	13076
926.138	13072
926.245	13076
926.352	13012
926.459	13069
926.566	13122
926.673	13057
926.779	12867
926.886	12760
926.993	12753
927.099	12696
927.206	12639
927.312	12601
927.419	12677
927.525	12677
927.631	12646
927.737	12563
927.843	12566
927.95	12418
928.056	12509
928.162	12490
928.267	12502
928.373	13095
928.479	12582
928.585	12311
928.69	12448
928.796	12498
928.901	12437
929.007	12194
929.112	12429
929.218	12369
929.323	12273
929.428	12163
929.533	12323
929.638	12079
929.743	12239
929.848	12289
929.953	12117
930.058	12121
930.163	11916
930.267	11916
930.372	11977
930.477	11843
930.581	12106
930.685	11878
930.79	11794
930.894	11901
930.998	11737
931.103	11904
931.207	11528
931.311	11512
931.415	11433
931.519	11250
931.623	11162
