Data from test_V78500241_3418.txt Node
Date: Fri Mar 25 15:33:39 CST 2022
User: usil
Spectrometer: V785-0024
Trigger mode: 0
Integration Time (sec): 4.000000E-1
Scans to average: 1
Nonlinearity correction enabled: false
Boxcar width: 0
Storing dark spectrum: false
XAxis mode: Wavelengths
Number of Pixels in Spectrum: 1024
>>>>>Begin Spectral Data<<<<<
801.071	27173
801.214	27070
801.356	26876
801.499	26921
801.641	26769
801.783	26712
801.926	26815
802.068	26777
802.211	26644
802.353	26632
802.496	26533
802.638	26351
802.78	26431
802.923	26278
803.065	26343
803.208	26374
803.35	26511
803.492	26507
803.635	26629
803.777	26473
803.919	26632
804.061	26948
804.204	26587
804.346	26514
804.488	26408
804.63	26552
804.773	26495
804.915	26530
805.057	26750
805.199	26469
805.341	26648
805.483	26674
805.626	26727
805.768	26571
805.91	26682
806.052	26659
806.194	26640
806.336	26857
806.478	26533
806.62	26606
806.762	26743
806.904	26830
807.046	27138
807.188	27093
807.33	27112
807.472	27150
807.614	26982
807.756	27066
807.898	26861
808.04	26823
808.182	26948
808.324	26845
808.465	26963
808.607	27207
808.749	27176
808.891	27344
809.033	27370
809.174	27298
809.316	27169
809.458	27241
809.6	27176
809.741	27260
809.883	27359
810.025	27511
810.166	27496
810.308	27663
810.45	27580
810.591	27351
810.733	27184
810.875	27249
811.016	27211
811.158	27116
811.299	27218
811.441	27310
811.582	27416
811.724	27260
811.865	27336
812.007	27192
812.148	27150
812.29	27363
812.431	27355
812.573	27408
812.714	27618
812.855	27641
812.997	27823
813.138	27869
813.279	27907
813.421	27819
813.562	27663
813.703	27511
813.845	27355
813.986	27093
814.127	26929
814.268	26868
814.41	26971
814.551	26872
814.692	26948
814.833	26864
814.974	26750
815.115	26872
815.256	26815
815.397	26724
815.539	26724
815.68	26686
815.821	26530
815.962	26629
816.103	26537
816.244	26434
816.385	26370
816.526	26423
816.666	26290
816.807	26119
816.948	26199
817.089	26221
817.23	26161
817.371	26005
817.512	26119
817.653	26027
817.793	25997
817.934	26164
818.075	26214
818.216	26183
818.356	26225
818.497	26084
818.638	25936
818.778	25913
818.919	25906
819.06	25841
819.2	26046
819.341	26107
819.481	26062
819.622	26195
819.762	26453
819.903	26366
820.043	26298
820.184	26252
820.324	26206
820.465	26370
820.605	26240
820.746	26183
820.886	26161
821.026	26320
821.167	26138
821.307	26244
821.447	26122
821.588	25982
821.728	25833
821.868	25723
822.008	25727
822.149	25563
822.289	25624
822.429	25358
822.569	25255
822.709	25396
822.849	25110
822.99	25209
823.13	25050
823.27	24970
823.41	24867
823.55	24798
823.69	25004
823.83	25000
823.97	24939
824.11	24650
824.25	24741
824.389	24711
824.529	24844
824.669	24707
824.809	24833
824.949	24783
825.089	24878
825.228	24665
825.368	24616
825.508	24654
825.648	24764
825.787	24601
825.927	24688
826.067	24601
826.206	24669
826.346	24570
826.485	24791
826.625	24734
826.765	24753
826.904	24707
827.044	24422
827.183	24445
827.323	24361
827.462	24350
827.601	24437
827.741	24277
827.88	24319
828.02	24155
828.159	24194
828.298	24315
828.437	24262
828.577	24262
828.716	24422
828.855	24330
828.994	23999
829.134	24022
829.273	24087
829.412	23912
829.551	23973
829.69	24007
829.829	24178
829.968	24311
830.107	24190
830.246	24106
830.385	23969
830.524	23996
830.663	23859
830.802	23760
830.941	23627
831.08	23661
831.219	23699
831.357	23786
831.496	23882
831.635	23611
831.774	23570
831.913	23509
832.051	23573
832.19	23531
832.329	23410
832.467	23330
832.606	23292
832.744	23280
832.883	23288
833.022	23231
833.16	23273
833.299	23204
833.437	23307
833.576	23478
833.714	23292
833.852	23478
833.991	23356
834.129	23516
834.267	23581
834.406	23341
834.544	23368
834.682	23334
834.821	23463
834.959	23505
835.097	23299
835.235	23452
835.373	23459
835.511	23474
835.65	23258
835.788	23258
835.926	23071
836.064	23067
836.202	23128
836.34	23227
836.478	23387
836.615	23223
836.753	23239
836.891	23223
837.029	23311
837.167	23155
837.305	23178
837.443	23159
837.58	23109
837.718	23056
837.856	23041
837.993	23083
838.131	23044
838.269	23090
838.406	23044
838.544	23033
838.681	22858
838.819	22698
838.956	22618
839.094	22523
839.231	22622
839.369	22873
839.506	22908
839.643	22862
839.781	22645
839.918	22512
840.055	22641
840.193	22565
840.33	22466
840.467	22481
840.604	22592
840.742	22790
840.879	22550
841.016	22561
841.153	22466
841.29	22569
841.427	22440
841.564	22599
841.701	22561
841.838	22436
841.975	22375
842.112	22516
842.249	22253
842.385	22314
842.522	22478
842.659	22421
842.796	22196
842.933	22284
843.069	22295
843.206	22287
843.343	22299
843.479	22303
843.616	22299
843.752	21956
843.889	22044
844.025	22135
844.162	22036
844.298	22150
844.435	22143
844.571	22044
844.708	22086
844.844	22333
844.98	22192
845.117	22173
845.253	21918
845.389	21918
845.525	22002
845.661	21926
845.798	21766
845.934	21838
846.07	21755
846.206	21816
846.342	21930
846.478	21732
846.614	21583
846.75	21412
846.886	21549
847.022	21739
847.158	21557
847.294	21599
847.429	21545
847.565	21557
847.701	21675
847.837	21211
847.972	21268
848.108	21195
848.244	21340
848.379	21131
848.515	21024
848.65	21131
848.786	21169
848.921	21237
849.057	21089
849.192	21260
849.328	21066
849.463	21135
849.598	21066
849.734	21039
849.869	20990
850.004	20876
850.14	20952
850.275	21028
850.41	20773
850.545	20811
850.68	20864
850.815	20960
850.95	20914
851.085	21146
851.22	20994
851.355	20777
851.49	20906
851.625	20834
851.76	20777
851.895	20785
852.03	20781
852.165	20887
852.299	20864
852.434	20982
852.569	20921
852.703	20963
852.838	20899
852.973	21058
853.107	21062
853.242	20708
853.376	20880
853.511	20629
853.645	20663
853.78	20697
853.914	20781
854.048	20773
854.183	20762
854.317	20674
854.451	20906
854.585	20781
854.72	20663
854.854	20872
854.988	20724
855.122	20746
855.256	20530
855.39	20682
855.524	20811
855.658	20773
855.792	20750
855.926	20739
856.06	20765
856.194	20887
856.327	20686
856.461	20636
856.595	20674
856.729	20750
856.862	20838
856.996	20773
857.13	20716
857.263	20678
857.397	20921
857.53	20697
857.664	20765
857.797	20807
857.931	20914
858.064	20716
858.197	20792
858.331	20674
858.464	20651
858.597	20636
858.731	20659
858.864	20682
858.997	20648
859.13	20663
859.263	20785
859.396	20773
859.529	20785
859.662	20712
859.795	20686
859.928	20720
860.061	20811
860.194	20906
860.327	20800
860.46	20804
860.592	20845
860.725	20998
860.858	20781
860.99	20765
861.123	20651
861.256	20663
861.388	20788
861.521	21412
861.653	20716
861.786	20518
861.918	20541
862.05	20686
862.183	20724
862.315	20686
862.447	20739
862.58	20678
862.712	20571
862.844	20313
862.976	20511
863.108	20495
863.24	20914
863.372	20438
863.504	20556
863.636	20431
863.768	20419
863.9	20469
864.032	20370
864.164	20549
864.296	20537
864.428	20667
864.559	20549
864.691	20621
864.823	20530
864.954	20457
865.086	20476
865.217	20396
865.349	20294
865.48	20282
865.612	20434
865.743	20499
865.875	20309
866.006	20278
866.137	20377
866.269	20328
866.4	20347
866.531	20267
866.662	20301
866.793	20404
866.924	20320
867.055	20389
867.186	20362
867.317	20343
867.448	20191
867.579	20214
867.71	20389
867.841	20221
867.972	20214
868.103	20332
868.233	20256
868.364	20286
868.495	20339
868.625	20579
868.756	20537
868.886	20533
869.017	20575
869.147	20621
869.278	20689
869.408	20594
869.539	20583
869.669	20762
869.799	20629
869.929	20617
870.06	20632
870.19	20956
870.32	20823
870.45	20880
870.58	20986
870.71	21135
870.84	21013
870.97	20937
871.1	20986
871.23	21188
871.36	21154
871.489	21077
871.619	21093
871.749	21096
871.879	21169
872.008	21291
872.138	21146
872.267	21108
872.397	21055
872.526	20975
872.656	21017
872.785	21047
872.915	21199
873.044	21249
873.173	21036
873.303	21252
873.432	21272
873.561	21272
873.69	21214
873.819	21256
873.948	21233
874.077	21207
874.206	21127
874.335	21268
874.464	21431
874.593	21507
874.722	21386
874.851	21576
874.979	21332
875.108	21462
875.237	21344
875.365	21351
875.494	21241
875.623	21542
875.751	21405
875.88	21332
876.008	21515
876.136	21713
876.265	21895
876.393	21941
876.521	21876
876.65	21922
876.778	21789
876.906	21797
877.034	21720
877.162	21850
877.29	21838
877.418	21793
877.546	21861
877.674	21774
877.802	21873
877.93	21781
878.058	21701
878.185	21660
878.313	21663
878.441	21709
878.568	21561
878.696	21644
878.824	21751
878.951	21842
879.079	21949
879.206	22059
879.333	21865
879.461	21884
879.588	21762
879.715	21960
879.842	22059
879.97	21953
880.097	21507
880.224	21557
880.351	21656
880.478	21652
880.605	21637
880.732	21557
880.859	21812
880.986	21724
881.112	21660
881.239	21530
881.366	21329
881.493	21302
881.619	21310
881.746	21154
881.872	21252
881.999	21138
882.125	21184
882.252	21260
882.378	21104
882.505	21188
882.631	20956
882.757	20921
882.883	20899
883.01	20857
883.136	20963
883.262	20807
883.388	20785
883.514	20712
883.64	20872
883.766	20876
883.892	20708
884.018	20731
884.143	20861
884.269	20925
884.395	20682
884.52	20526
884.646	20545
884.772	20568
884.897	20537
885.023	20533
885.148	20629
885.274	20629
885.399	20640
885.524	20526
885.65	20625
885.775	20549
885.9	20530
886.025	20663
886.15	20560
886.275	20404
886.4	20480
886.525	20514
886.65	20400
886.775	20351
886.9	20670
887.025	20724
887.149	20469
887.274	20427
887.399	20412
887.523	20248
887.648	20183
887.773	20206
887.897	20309
888.021	20343
888.146	20218
888.27	20423
888.395	20442
888.519	20480
888.643	20328
888.767	20362
888.891	20199
889.015	20081
889.139	20301
889.263	20115
889.387	20237
889.511	20271
889.635	20126
889.759	20065
889.883	20126
890.006	20107
890.13	20138
890.254	20130
890.377	20001
890.501	19852
890.624	19864
890.748	19852
890.871	19731
890.995	19742
891.118	19700
891.241	19689
891.364	19727
891.488	19696
891.611	19784
891.734	19655
891.857	19662
891.98	19674
892.103	19765
892.226	19677
892.349	19681
892.471	19533
892.594	19487
892.717	19674
892.839	19616
892.962	19651
893.085	19742
893.207	19616
893.33	19495
893.452	19578
893.575	19605
893.697	19594
893.819	19784
893.941	19746
894.064	19849
894.186	19620
894.308	19571
894.43	19662
894.552	19719
894.674	19753
894.796	19540
894.918	19590
895.04	19537
895.161	19704
895.283	19712
895.405	19628
895.526	19594
895.648	19616
895.769	19681
895.891	19567
896.012	19658
896.134	19662
896.255	19639
896.376	19575
896.498	19525
896.619	19616
896.74	19655
896.861	19674
896.982	20001
897.103	20065
897.224	19849
897.345	19830
897.466	19776
897.587	19875
897.708	20058
897.828	19887
897.949	19719
898.07	19609
898.19	19784
898.311	19928
898.431	19852
898.552	19807
898.672	19830
898.792	19860
898.913	19974
899.033	19689
899.153	19830
899.273	19540
899.393	19685
899.513	19670
899.633	19620
899.753	19613
899.873	19613
899.993	19655
900.113	19552
900.232	19594
900.352	19445
900.472	19392
900.591	19411
900.711	19438
900.83	19365
900.95	19441
901.069	19499
901.189	19263
901.308	19069
901.427	18985
901.546	18996
901.665	18993
901.784	18947
901.904	18730
902.023	18741
902.141	18551
902.26	18506
902.379	18703
902.498	18467
902.617	18319
902.735	18479
902.854	18410
902.973	18410
903.091	18197
903.21	18129
903.328	18125
903.446	18076
903.565	17996
903.683	18007
903.801	17824
903.919	17954
904.038	17999
904.156	17786
904.274	17775
904.392	17748
904.51	17657
904.627	17733
904.745	17745
904.863	17680
904.981	17547
905.098	17448
905.216	17414
905.334	17444
905.451	17482
905.569	17398
905.686	17379
905.803	17467
905.921	17288
906.038	17254
906.155	17387
906.272	17132
906.389	17071
906.506	17037
906.623	16957
906.74	16965
906.857	16839
906.974	16930
907.091	17003
907.208	17105
907.324	16995
907.441	16892
907.557	16668
907.674	16710
907.79	16565
907.907	16626
908.023	16596
908.139	16679
908.256	16588
908.372	16588
908.488	16535
908.604	16459
908.72	16299
908.836	16474
908.952	16447
909.068	16413
909.184	16565
909.3	16325
909.415	16382
909.531	16356
909.647	16116
909.762	16044
909.878	16166
909.993	16032
910.108	16082
910.224	16135
910.339	15956
910.454	15987
910.57	15991
910.685	15926
910.8	16150
910.915	15987
911.03	16006
911.145	15884
911.259	15679
911.374	15713
911.489	15732
911.604	15667
911.718	15469
911.833	15458
911.947	15447
912.062	15291
912.176	15530
912.291	15507
912.405	15397
912.519	15637
912.633	15671
912.748	15511
912.862	15386
912.976	15279
913.09	15237
913.204	15226
913.318	15393
913.431	15359
913.545	15336
913.659	15302
913.772	15230
913.886	15157
914	15089
914.113	15169
914.226	15195
914.34	15127
914.453	14986
914.566	15077
914.68	14948
914.793	14979
914.906	14689
915.019	14769
915.132	14674
915.245	14815
915.358	14788
915.47	14689
915.583	14731
915.696	14815
915.809	14769
915.921	14826
916.034	14678
916.146	14712
916.259	14613
916.371	14716
916.483	14689
916.595	14560
916.708	14648
916.82	14583
916.932	14488
917.044	14549
917.156	14461
917.268	14446
917.38	14488
917.491	14313
917.603	14484
917.715	14419
917.826	14423
917.938	14339
918.049	14305
918.161	14263
918.272	14469
918.384	14438
918.495	14427
918.606	14252
918.717	14149
918.828	14130
918.939	14183
919.05	14012
919.161	14145
919.272	13947
919.383	14039
919.494	14244
919.604	14317
919.715	14111
919.826	14115
919.936	14054
920.047	14138
920.157	14172
920.267	14309
920.378	14058
920.488	14100
920.598	14298
920.708	14358
920.818	14244
920.928	14172
921.038	14446
921.148	14343
921.258	14065
921.368	13974
921.477	13921
921.587	13868
921.697	13803
921.806	13864
921.916	13651
922.025	13609
922.134	13548
922.244	13419
922.353	13472
922.462	13358
922.571	13301
922.68	13126
922.789	13088
922.898	13183
923.007	13091
923.116	13244
923.224	13095
923.333	13179
923.442	13034
923.55	12928
923.659	13031
923.767	13015
923.876	12935
923.984	13046
924.092	12924
924.201	12939
924.309	12856
924.417	12932
924.525	12859
924.633	12875
924.741	13795
924.849	12681
924.956	12840
925.064	12585
925.172	12608
925.279	12593
925.387	12566
925.494	12646
925.602	12703
925.709	12684
925.816	12448
925.924	12593
926.031	12707
926.138	12563
926.245	12528
926.352	12502
926.459	12574
926.566	12646
926.673	12517
926.779	12372
926.886	12441
926.993	12209
927.099	12136
927.206	12285
927.312	12121
927.419	12209
927.525	12178
927.631	12239
927.737	12182
927.843	12064
927.95	11874
928.056	12011
928.162	11988
928.267	12121
928.373	12620
928.479	12133
928.585	11874
928.69	12045
928.796	12060
928.901	11977
929.007	11767
929.112	11874
929.218	11870
929.323	11824
929.428	11783
929.533	11878
929.638	11665
929.743	11767
929.848	11748
929.953	11722
930.058	11665
930.163	11455
930.267	11512
930.372	11646
930.477	11372
930.581	11718
930.685	11554
930.79	11353
930.894	11379
930.998	11288
931.103	11417
931.207	11094
931.311	10991
931.415	10957
931.519	10805
931.623	10790
