Data from test_V78500241_1428.txt Node
Date: Fri Mar 25 15:19:48 CST 2022
User: usil
Spectrometer: V785-0024
Trigger mode: 0
Integration Time (sec): 4.000000E-1
Scans to average: 1
Nonlinearity correction enabled: false
Boxcar width: 0
Storing dark spectrum: false
XAxis mode: Wavelengths
Number of Pixels in Spectrum: 1024
>>>>>Begin Spectral Data<<<<<
801.071	27918
801.214	28002
801.356	27873
801.499	27652
801.641	27534
801.783	27481
801.926	27603
802.068	27412
802.211	27519
802.353	27523
802.496	27291
802.638	27161
802.78	27199
802.923	27138
803.065	27138
803.208	27100
803.35	27218
803.492	27359
803.635	27405
803.777	27222
803.919	27473
804.061	27728
804.204	27450
804.346	27477
804.488	27420
804.63	27367
804.773	27359
804.915	27477
805.057	27526
805.199	27507
805.341	27515
805.483	27553
805.626	27515
805.768	27416
805.91	27519
806.052	27542
806.194	27393
806.336	27736
806.478	27671
806.62	27736
806.762	27641
806.904	27770
807.046	27991
807.188	27831
807.33	28070
807.472	28067
807.614	27911
807.756	28029
807.898	27918
808.04	27854
808.182	27861
808.324	27914
808.465	27983
808.607	28059
808.749	28257
808.891	28261
809.033	28337
809.174	28287
809.316	28242
809.458	28265
809.6	28055
809.741	28451
809.883	28299
810.025	28390
810.166	28554
810.308	28485
810.45	28516
810.591	28451
810.733	28318
810.875	28261
811.016	28215
811.158	28192
811.299	28306
811.441	28337
811.582	28272
811.724	28265
811.865	28185
812.007	28166
812.148	28272
812.29	28280
812.431	28363
812.573	28573
812.714	28702
812.855	28649
812.997	28736
813.138	28930
813.279	28888
813.421	28847
813.562	28877
813.703	28470
813.845	28516
813.986	28322
814.127	28128
814.268	28006
814.41	28074
814.551	27804
814.692	27930
814.833	27781
814.974	27857
815.115	27960
815.256	27732
815.397	27720
815.539	27869
815.68	27755
815.821	27603
815.962	27614
816.103	27572
816.244	27774
816.385	27424
816.526	27580
816.666	27313
816.807	27226
816.948	27313
817.089	27195
817.23	27241
817.371	27237
817.512	27245
817.653	27252
817.793	27195
817.934	27173
818.075	27173
818.216	27176
818.356	27039
818.497	27039
818.638	26937
818.778	26918
818.919	26800
819.06	26963
819.2	27070
819.341	27218
819.481	27169
819.622	27355
819.762	27652
819.903	27515
820.043	27458
820.184	27466
820.324	27431
820.465	27412
820.605	27367
820.746	27359
820.886	27135
821.026	27173
821.167	27291
821.307	27279
821.447	27237
821.588	27256
821.728	27062
821.868	26815
822.008	26765
822.149	26792
822.289	26579
822.429	26366
822.569	26461
822.709	26473
822.849	26237
822.99	26122
823.13	26161
823.27	26149
823.41	26016
823.55	25864
823.69	26020
823.83	26008
823.97	25940
824.11	25814
824.25	25890
824.389	25879
824.529	25803
824.669	25826
824.809	25932
824.949	25959
825.089	25925
825.228	25868
825.368	25639
825.508	25753
825.648	25708
825.787	25856
825.927	25860
826.067	25605
826.206	25769
826.346	25674
826.485	25670
826.625	25727
826.765	25647
826.904	25674
827.044	25495
827.183	25449
827.323	25419
827.462	25460
827.601	25354
827.741	25381
827.88	25369
828.02	25236
828.159	25354
828.298	25358
828.437	25510
828.577	25320
828.716	25343
828.855	25194
828.994	25080
829.134	25061
829.273	25027
829.412	25114
829.551	25057
829.69	25171
829.829	24935
829.968	25225
830.107	25145
830.246	25057
830.385	24935
830.524	24943
830.663	24878
830.802	24817
830.941	24620
831.08	24677
831.219	24810
831.357	24795
831.496	24951
831.635	24726
831.774	24722
831.913	24528
832.051	24540
832.19	24521
832.329	24513
832.467	24407
832.606	24357
832.744	24376
832.883	24410
833.022	24372
833.16	24471
833.299	24517
833.437	24505
833.576	24395
833.714	24380
833.852	24464
833.991	24388
834.129	24627
834.267	24498
834.406	24422
834.544	24475
834.682	24525
834.821	24452
834.959	24601
835.097	24346
835.235	24475
835.373	24346
835.511	24464
835.65	24243
835.788	24372
835.926	24083
836.064	24038
836.202	23969
836.34	24262
836.478	24289
836.615	24216
836.753	24209
836.891	24365
837.029	24243
837.167	24182
837.305	24220
837.443	24034
837.58	24057
837.718	24213
837.856	24087
837.993	23927
838.131	24072
838.269	23942
838.406	24041
838.544	23866
838.681	23608
838.819	23676
838.956	23577
839.094	23524
839.231	23566
839.369	23748
839.506	23916
839.643	23707
839.781	23505
839.918	23436
840.055	23478
840.193	23668
840.33	23577
840.467	23471
840.604	23482
840.742	23775
840.879	23387
841.016	23497
841.153	23296
841.29	23512
841.427	23463
841.564	23539
841.701	23391
841.838	23452
841.975	23410
842.112	23280
842.249	23288
842.385	23102
842.522	23471
842.659	23288
842.796	23246
842.933	23113
843.069	23193
843.206	23246
843.343	23322
843.479	23299
843.616	23121
843.752	22995
843.889	23037
844.025	23132
844.162	22995
844.298	23193
844.435	22999
844.571	22976
844.708	23124
844.844	23178
844.98	23170
845.117	23204
845.253	22866
845.389	22759
845.525	22911
845.661	22843
845.798	22767
845.934	22782
846.07	22683
846.206	22683
846.342	22828
846.478	22607
846.614	22527
846.75	22474
846.886	22470
847.022	22584
847.158	22436
847.294	22481
847.429	22538
847.565	22512
847.701	22752
847.837	22268
847.972	22196
848.108	22253
848.244	22253
848.379	22025
848.515	21998
848.65	22021
848.786	22097
848.921	22093
849.057	22181
849.192	22109
849.328	22040
849.463	22147
849.598	21991
849.734	21880
849.869	21880
850.004	21747
850.14	21804
850.275	21861
850.41	21644
850.545	21717
850.68	21789
850.815	21770
850.95	21861
851.085	22013
851.22	21827
851.355	21804
851.49	21857
851.625	21717
851.76	21663
851.895	21759
852.03	21625
852.165	21842
852.299	21751
852.434	21911
852.569	21895
852.703	21873
852.838	21930
852.973	21823
853.107	21884
853.242	21819
853.376	21679
853.511	21656
853.645	21564
853.78	21701
853.914	21644
854.048	21583
854.183	21614
854.317	21739
854.451	21789
854.585	21641
854.72	21671
854.854	21652
854.988	21542
855.122	21720
855.256	21515
855.39	21572
855.524	21542
855.658	21625
855.792	21576
855.926	21629
856.06	21553
856.194	21644
856.327	21587
856.461	21511
856.595	21519
856.729	21641
856.862	21838
856.996	21713
857.13	21682
857.263	21724
857.397	21671
857.53	21663
857.664	21732
857.797	21698
857.931	21793
858.064	21580
858.197	21660
858.331	21500
858.464	21557
858.597	21671
858.731	21507
858.864	21519
858.997	21580
859.13	21656
859.263	21698
859.396	21713
859.529	21564
859.662	21625
859.795	21705
859.928	21641
860.061	21751
860.194	21884
860.327	21637
860.46	21682
860.592	21781
860.725	21732
860.858	21656
860.99	21660
861.123	21583
861.256	21652
861.388	21622
861.521	22360
861.653	21500
861.786	21367
861.918	21519
862.05	21412
862.183	21481
862.315	21557
862.447	21637
862.58	21382
862.712	21294
862.844	21237
862.976	21393
863.108	21439
863.24	21728
863.372	21298
863.504	21355
863.636	21226
863.768	21382
863.9	21291
864.032	21237
864.164	21279
864.296	21310
864.428	21355
864.559	21511
864.691	21351
864.823	21272
864.954	21222
865.086	21237
865.217	21165
865.349	21142
865.48	21199
865.612	21218
865.743	21374
865.875	21321
866.006	21233
866.137	21302
866.269	21188
866.4	21272
866.531	21131
866.662	21230
866.793	21176
866.924	21184
867.055	21306
867.186	21241
867.317	21138
867.448	20944
867.579	21112
867.71	21096
867.841	20986
867.972	21055
868.103	21093
868.233	21249
868.364	21062
868.495	21237
868.625	21325
868.756	21408
868.886	21233
869.017	21340
869.147	21507
869.278	21435
869.408	21481
869.539	21424
869.669	21534
869.799	21481
869.929	21416
870.06	21511
870.19	21694
870.32	21576
870.45	21622
870.58	21728
870.71	21880
870.84	21869
870.97	21785
871.1	21835
871.23	21888
871.36	21960
871.489	21979
871.619	21949
871.749	21903
871.879	21998
872.008	22188
872.138	22074
872.267	22036
872.397	21762
872.526	21861
872.656	21854
872.785	21751
872.915	21968
873.044	22044
873.173	21949
873.303	21953
873.432	22040
873.561	22055
873.69	22055
873.819	21930
873.948	22109
874.077	22116
874.206	21937
874.335	21983
874.464	22044
874.593	22207
874.722	22204
874.851	22280
874.979	22200
875.108	22276
875.237	22154
875.365	22223
875.494	22086
875.623	22314
875.751	22051
875.88	22223
876.008	22341
876.136	22390
876.265	22634
876.393	22641
876.521	22599
876.65	22691
876.778	22675
876.906	22554
877.034	22535
877.162	22542
877.29	22500
877.418	22519
877.546	22508
877.674	22565
877.802	22733
877.93	22565
878.058	22493
878.185	22428
878.313	22497
878.441	22645
878.568	22314
878.696	22474
878.824	22527
878.951	22687
879.079	22683
879.206	22748
879.333	22588
879.461	22622
879.588	22531
879.715	22694
879.842	22759
879.97	22698
880.097	22478
880.224	22363
880.351	22329
880.478	22348
880.605	22238
880.732	22234
880.859	22618
880.986	22402
881.112	22402
881.239	22139
881.366	22128
881.493	22074
881.619	21873
881.746	21941
881.872	22059
881.999	21907
882.125	21812
882.252	22032
882.378	21922
882.505	21998
882.631	21850
882.757	21660
882.883	21660
883.01	21698
883.136	21675
883.262	21534
883.388	21488
883.514	21667
883.64	21629
883.766	21614
883.892	21424
884.018	21534
884.143	21595
884.269	21599
884.395	21340
884.52	21241
884.646	21332
884.772	21138
884.897	21188
885.023	21214
885.148	21374
885.274	21492
885.399	21355
885.524	21412
885.65	21325
885.775	21272
885.9	21138
886.025	21374
886.15	21355
886.275	21332
886.4	21199
886.525	21306
886.65	21203
886.775	21176
886.9	21439
887.025	21378
887.149	21237
887.274	21062
887.399	21081
887.523	21104
887.648	20979
887.773	21009
887.897	21096
888.021	21104
888.146	20998
888.27	21237
888.395	21112
888.519	21138
888.643	21005
888.767	21138
888.891	20857
889.015	20880
889.139	20937
889.263	20781
889.387	20872
889.511	20982
889.635	20971
889.759	20845
889.883	20857
890.006	20906
890.13	20948
890.254	20796
890.377	20796
890.501	20583
890.624	20537
890.748	20609
890.871	20400
890.995	20469
891.118	20396
891.241	20454
891.364	20446
891.488	20427
891.611	20484
891.734	20442
891.857	20526
891.98	20457
892.103	20511
892.226	20339
892.349	20259
892.471	20214
892.594	20252
892.717	20419
892.839	20267
892.962	20343
893.085	20301
893.207	20408
893.33	20187
893.452	20225
893.575	20408
893.697	20317
893.819	20457
893.941	20552
894.064	20454
894.186	20161
894.308	20195
894.43	20339
894.552	20492
894.674	20396
894.796	20153
894.918	20328
895.04	20282
895.161	20336
895.283	20347
895.405	20161
895.526	20267
895.648	20195
895.769	20328
895.891	20275
896.012	20339
896.134	20313
896.255	20309
896.376	20343
896.498	20278
896.619	20374
896.74	20309
896.861	20434
896.982	20640
897.103	20708
897.224	20655
897.345	20552
897.466	20454
897.587	20408
897.708	20708
897.828	20526
897.949	20594
898.07	20404
898.19	20484
898.311	20552
898.431	20396
898.552	20484
898.672	20549
898.792	20568
898.913	20590
899.033	20412
899.153	20298
899.273	20180
899.393	20237
899.513	20252
899.633	20317
899.753	20259
899.873	20199
899.993	20180
900.113	20168
900.232	20301
900.352	20320
900.472	20115
900.591	20073
900.711	19967
900.83	19894
900.95	20130
901.069	20031
901.189	19959
901.308	19674
901.427	19639
901.546	19643
901.665	19628
901.784	19601
901.904	19464
902.023	19460
902.141	19274
902.26	19110
902.379	19228
902.498	19164
902.617	19057
902.735	19019
902.854	19084
902.973	19069
903.091	18787
903.21	18913
903.328	18776
903.446	18749
903.565	18612
903.683	18612
903.801	18532
903.919	18601
904.038	18589
904.156	18395
904.274	18483
904.392	18391
904.51	18334
904.627	18376
904.745	18372
904.863	18433
904.981	18194
905.098	18041
905.216	18034
905.334	18087
905.451	18114
905.569	18038
905.686	17984
905.803	18095
905.921	17714
906.038	17832
906.155	17939
906.272	17653
906.389	17802
906.506	17634
906.623	17547
906.74	17516
906.857	17452
906.974	17532
907.091	17547
907.208	17695
907.324	17547
907.441	17463
907.557	17242
907.674	17246
907.79	17181
907.907	17239
908.023	17220
908.139	17364
908.256	17200
908.372	17178
908.488	17151
908.604	17003
908.72	16900
908.836	16942
908.952	16965
909.068	16991
909.184	17060
909.3	16968
909.415	16965
909.531	16995
909.647	16694
909.762	16687
909.878	16660
909.993	16797
910.108	16653
910.224	16607
910.339	16596
910.454	16603
910.57	16485
910.685	16523
910.8	16649
910.915	16573
911.03	16527
911.145	16398
911.259	16310
911.374	16211
911.489	16181
911.604	16196
911.718	15998
911.833	16021
911.947	15907
912.062	15869
912.176	15956
912.291	15998
912.405	16013
912.519	16162
912.633	16150
912.748	16051
912.862	15979
912.976	15842
913.09	15755
913.204	15800
913.318	15724
913.431	15842
913.545	16002
913.659	15998
913.772	15846
913.886	15633
914	15637
914.113	15720
914.226	15701
914.34	15694
914.453	15591
914.566	15698
914.68	15557
914.793	15561
914.906	15214
915.019	15199
915.132	15207
915.245	15245
915.358	15310
915.47	15279
915.583	15207
915.696	15222
915.809	15382
915.921	15458
916.034	15256
916.146	15138
916.259	15104
916.371	15264
916.483	15230
916.595	15097
916.708	15070
916.82	15039
916.932	15051
917.044	15013
917.156	14952
917.268	14853
917.38	14944
917.491	14864
917.603	14876
917.715	15017
917.826	14891
917.938	14796
918.049	14792
918.161	14937
918.272	14971
918.384	14937
918.495	14792
918.606	14686
918.717	14598
918.828	14663
918.939	14807
919.05	14556
919.161	14617
919.272	14389
919.383	14499
919.494	14670
919.604	14868
919.715	14670
919.826	14507
919.936	14552
920.047	14598
920.157	14560
920.267	14758
920.378	14488
920.488	14625
920.598	14845
920.708	14857
920.818	14735
920.928	14632
921.038	14971
921.148	14735
921.258	14526
921.368	14495
921.477	14400
921.587	14393
921.697	14221
921.806	14442
921.916	14263
922.025	14123
922.134	13955
922.244	13940
922.353	14069
922.462	13890
922.571	13818
922.68	13632
922.789	13632
922.898	13578
923.007	13677
923.116	13704
923.224	13616
923.333	13518
923.442	13586
923.55	13476
923.659	13499
923.767	13472
923.876	13419
923.984	13400
924.092	13312
924.201	13392
924.309	13403
924.417	13396
924.525	13381
924.633	13278
924.741	14096
924.849	13053
924.956	13278
925.064	13129
925.172	13008
925.279	13057
925.387	13012
925.494	13050
925.602	13084
925.709	13103
925.816	12916
925.924	12947
926.031	13080
926.138	13031
926.245	13019
926.352	12890
926.459	13069
926.566	13004
926.673	12897
926.779	12829
926.886	12757
926.993	12654
927.099	12601
927.206	12635
927.312	12578
927.419	12528
927.525	12627
927.631	12532
927.737	12536
927.843	12414
927.95	12369
928.056	12422
928.162	12467
928.267	12471
928.373	13008
928.479	12513
928.585	12243
928.69	12456
928.796	12429
928.901	12220
929.007	12148
929.112	12342
929.218	12201
929.323	12091
929.428	12060
929.533	12258
929.638	12011
929.743	12095
929.848	12167
929.953	12121
930.058	11988
930.163	11802
930.267	11908
930.372	11935
930.477	11794
930.581	11980
930.685	11893
930.79	11714
930.894	11722
930.998	11611
931.103	11809
931.207	11417
931.311	11334
931.415	11345
931.519	11128
931.623	11079
