Data from test_V78500241_2884.txt Node
Date: Fri Mar 25 15:29:56 CST 2022
User: usil
Spectrometer: V785-0024
Trigger mode: 0
Integration Time (sec): 4.000000E-1
Scans to average: 1
Nonlinearity correction enabled: false
Boxcar width: 0
Storing dark spectrum: false
XAxis mode: Wavelengths
Number of Pixels in Spectrum: 1024
>>>>>Begin Spectral Data<<<<<
801.071	27283
801.214	27150
801.356	26857
801.499	26842
801.641	26720
801.783	26667
801.926	26895
802.068	26712
802.211	26552
802.353	26632
802.496	26469
802.638	26412
802.78	26366
802.923	26412
803.065	26328
803.208	26404
803.35	26450
803.492	26659
803.635	26537
803.777	26431
803.919	26727
804.061	26880
804.204	26587
804.346	26545
804.488	26530
804.63	26484
804.773	26362
804.915	26598
805.057	26678
805.199	26393
805.341	26609
805.483	26625
805.626	26606
805.768	26625
805.91	26693
806.052	26785
806.194	26549
806.336	26956
806.478	26701
806.62	26518
806.762	26872
806.904	27066
807.046	27176
807.188	27074
807.33	27154
807.472	27104
807.614	27104
807.756	27036
807.898	26906
808.04	26853
808.182	26826
808.324	26899
808.465	27138
808.607	27218
808.749	27268
808.891	27420
809.033	27370
809.174	27481
809.316	27226
809.458	27355
809.6	27173
809.741	27294
809.883	27370
810.025	27530
810.166	27447
810.308	27583
810.45	27523
810.591	27523
810.733	27397
810.875	27214
811.016	27058
811.158	27165
811.299	27462
811.441	27363
811.582	27477
811.724	27420
811.865	27363
812.007	27291
812.148	27283
812.29	27275
812.431	27374
812.573	27466
812.714	27542
812.855	27663
812.997	27861
813.138	27941
813.279	27850
813.421	27667
813.562	27709
813.703	27523
813.845	27492
813.986	27142
814.127	27047
814.268	26937
814.41	27074
814.551	26872
814.692	26975
814.833	26929
814.974	26944
815.115	26857
815.256	26716
815.397	26815
815.539	26765
815.68	26765
815.821	26640
815.962	26701
816.103	26731
816.244	26545
816.385	26453
816.526	26343
816.666	26290
816.807	26294
816.948	26195
817.089	26389
817.23	26248
817.371	26183
817.512	26210
817.653	26218
817.793	26084
817.934	26214
818.075	26122
818.216	26267
818.356	26046
818.497	25966
818.638	25921
818.778	25902
818.919	25909
819.06	25947
819.2	26035
819.341	26138
819.481	26119
819.622	26278
819.762	26514
819.903	26469
820.043	26332
820.184	26298
820.324	26195
820.465	26351
820.605	26206
820.746	26210
820.886	26096
821.026	26248
821.167	26161
821.307	26244
821.447	26244
821.588	26142
821.728	25875
821.868	25715
822.008	25643
822.149	25647
822.289	25681
822.429	25422
822.569	25263
822.709	25308
822.849	25175
822.99	25076
823.13	25107
823.27	25053
823.41	24932
823.55	24802
823.69	24920
823.83	24913
823.97	24875
824.11	24825
824.25	24730
824.389	24871
824.529	24856
824.669	24741
824.809	24852
824.949	24825
825.089	24859
825.228	24856
825.368	24760
825.508	24566
825.648	24589
825.787	24715
825.927	24798
826.067	24574
826.206	24730
826.346	24650
826.485	24593
826.625	24635
826.765	24711
826.904	24684
827.044	24369
827.183	24334
827.323	24258
827.462	24441
827.601	24296
827.741	24410
827.88	24403
828.02	24251
828.159	24205
828.298	24384
828.437	24361
828.577	24319
828.716	24433
828.855	24190
828.994	24136
829.134	23969
829.273	24034
829.412	23931
829.551	23798
829.69	24076
829.829	23950
829.968	24068
830.107	24197
830.246	23996
830.385	24064
830.524	23878
830.663	23767
830.802	23802
830.941	23512
831.08	23543
831.219	23687
831.357	23707
831.496	23866
831.635	23611
831.774	23554
831.913	23486
832.051	23284
832.19	23501
832.329	23341
832.467	23345
832.606	23284
832.744	23239
832.883	23208
833.022	23277
833.16	23330
833.299	23273
833.437	23330
833.576	23345
833.714	23318
833.852	23258
833.991	23474
834.129	23455
834.267	23452
834.406	23307
834.544	23410
834.682	23284
834.821	23315
834.959	23604
835.097	23246
835.235	23372
835.373	23436
835.511	23345
835.65	23178
835.788	23254
835.926	22995
836.064	22949
836.202	23136
836.34	23227
836.478	23242
836.615	23189
836.753	23178
836.891	23303
837.029	23105
837.167	23010
837.305	23086
837.443	23178
837.58	22930
837.718	23185
837.856	23170
837.993	23140
838.131	22942
838.269	22999
838.406	23025
838.544	22934
838.681	22744
838.819	22668
838.956	22516
839.094	22546
839.231	22546
839.369	22626
839.506	22987
839.643	22664
839.781	22493
839.918	22424
840.055	22504
840.193	22485
840.33	22382
840.467	22375
840.604	22348
840.742	22721
840.879	22333
841.016	22398
841.153	22337
841.29	22485
841.427	22371
841.564	22580
841.701	22367
841.838	22455
841.975	22223
842.112	22390
842.249	22287
842.385	22192
842.522	22394
842.659	22367
842.796	22196
842.933	22116
843.069	22169
843.206	22162
843.343	22306
843.479	22166
843.616	22265
843.752	21975
843.889	22032
844.025	22128
844.162	21846
844.298	21922
844.435	22048
844.571	21857
844.708	21956
844.844	22128
844.98	22112
845.117	22029
845.253	21911
845.389	21819
845.525	21804
845.661	21842
845.798	21778
845.934	21819
846.07	21690
846.206	21747
846.342	21728
846.478	21743
846.614	21576
846.75	21416
846.886	21504
847.022	21549
847.158	21515
847.294	21306
847.429	21428
847.565	21542
847.701	21698
847.837	21233
847.972	21081
848.108	21252
848.244	21287
848.379	21108
848.515	21017
848.65	21009
848.786	21028
848.921	21173
849.057	21135
849.192	21142
849.328	21112
849.463	21100
849.598	21051
849.734	20971
849.869	20849
850.004	20948
850.14	20853
850.275	20796
850.41	20682
850.545	20735
850.68	20735
850.815	20815
850.95	20819
851.085	20864
851.22	20971
851.355	20857
851.49	20708
851.625	20754
851.76	20826
851.895	20750
852.03	20651
852.165	20895
852.299	20944
852.434	20845
852.569	20724
852.703	20838
852.838	20826
852.973	20963
853.107	20914
853.242	20689
853.376	20655
853.511	20541
853.645	20526
853.78	20864
853.914	20594
854.048	20594
854.183	20499
854.317	20701
854.451	20918
854.585	20640
854.72	20632
854.854	20693
854.988	20579
855.122	20526
855.256	20571
855.39	20507
855.524	20746
855.658	20617
855.792	20735
855.926	20716
856.06	20625
856.194	20648
856.327	20518
856.461	20556
856.595	20587
856.729	20682
856.862	20667
856.996	20689
857.13	20629
857.263	20724
857.397	20651
857.53	20663
857.664	20579
857.797	20621
857.931	20724
858.064	20686
858.197	20689
858.331	20659
858.464	20476
858.597	20419
858.731	20644
858.864	20667
858.997	20499
859.13	20564
859.263	20648
859.396	20686
859.529	20659
859.662	20651
859.795	20590
859.928	20583
860.061	20876
860.194	20811
860.327	20602
860.46	20720
860.592	20655
860.725	20670
860.858	20785
860.99	20613
861.123	20625
861.256	20579
861.388	20518
861.521	21348
861.653	20549
861.786	20332
861.918	20511
862.05	20545
862.183	20423
862.315	20651
862.447	20598
862.58	20526
862.712	20252
862.844	20282
862.976	20366
863.108	20309
863.24	20769
863.372	20256
863.504	20423
863.636	20396
863.768	20495
863.9	20332
864.032	20218
864.164	20294
864.296	20324
864.428	20480
864.559	20457
864.691	20415
864.823	20332
864.954	20313
865.086	20309
865.217	20195
865.349	20149
865.48	20176
865.612	20267
865.743	20290
865.875	20362
866.006	20168
866.137	20313
866.269	20290
866.4	20214
866.531	20107
866.662	20130
866.793	20263
866.924	20218
867.055	20195
867.186	20107
867.317	20233
867.448	20050
867.579	20138
867.71	20050
867.841	20020
867.972	20168
868.103	20096
868.233	20176
868.364	20073
868.495	20256
868.625	20431
868.756	20530
868.886	20415
869.017	20427
869.147	20568
869.278	20408
869.408	20434
869.539	20381
869.669	20552
869.799	20469
869.929	20621
870.06	20693
870.19	20705
870.32	20727
870.45	20785
870.58	20849
870.71	20857
870.84	20891
870.97	20807
871.1	20868
871.23	20910
871.36	20876
871.489	20929
871.619	20979
871.749	20944
871.879	21009
872.008	21157
872.138	20986
872.267	20899
872.397	20918
872.526	20777
872.656	20735
872.785	21005
872.915	21104
873.044	21135
873.173	21039
873.303	21077
873.432	21043
873.561	21161
873.69	21070
873.819	20998
873.948	21131
874.077	21108
874.206	20998
874.335	21089
874.464	21165
874.593	21249
874.722	21241
874.851	21363
874.979	21302
875.108	21325
875.237	21237
875.365	21096
875.494	21230
875.623	21382
875.751	21169
875.88	21275
876.008	21420
876.136	21504
876.265	21717
876.393	21793
876.521	21770
876.65	21747
876.778	21682
876.906	21637
877.034	21557
877.162	21675
877.29	21526
877.418	21774
877.546	21641
877.674	21663
877.802	21568
877.93	21595
878.058	21644
878.185	21504
878.313	21641
878.441	21644
878.568	21507
878.696	21603
878.824	21587
878.951	21717
879.079	21816
879.206	21869
879.333	21823
879.461	21709
879.588	21679
879.715	21671
879.842	21827
879.97	21557
880.097	21466
880.224	21488
880.351	21511
880.478	21428
880.605	21294
880.732	21504
880.859	21618
880.986	21500
881.112	21458
881.239	21500
881.366	21260
881.493	21112
881.619	20982
881.746	21112
881.872	21116
881.999	21108
882.125	20971
882.252	21081
882.378	21005
882.505	21180
882.631	20876
882.757	20838
882.883	20769
883.01	20735
883.136	20640
883.262	20556
883.388	20571
883.514	20697
883.64	20792
883.766	20678
883.892	20587
884.018	20632
884.143	20724
884.269	20648
884.395	20514
884.52	20336
884.646	20427
884.772	20271
884.897	20275
885.023	20389
885.148	20526
885.274	20518
885.399	20446
885.524	20343
885.65	20427
885.775	20377
885.9	20419
886.025	20499
886.15	20473
886.275	20408
886.4	20381
886.525	20393
886.65	20256
886.775	20324
886.9	20549
887.025	20499
887.149	20301
887.274	20221
887.399	20172
887.523	20229
887.648	20157
887.773	20084
887.897	20298
888.021	20259
888.146	20180
888.27	20305
888.395	20134
888.519	20191
888.643	20221
888.767	20119
888.891	20126
889.015	20035
889.139	20092
889.263	19986
889.387	20084
889.511	20256
889.635	20210
889.759	19963
889.883	19974
890.006	19993
890.13	20081
890.254	19837
890.377	19902
890.501	19769
890.624	19670
890.748	19841
890.871	19677
890.995	19590
891.118	19521
891.241	19502
891.364	19594
891.488	19696
891.611	19464
891.734	19594
891.857	19590
891.98	19639
892.103	19590
892.226	19677
892.349	19468
892.471	19411
892.594	19540
892.717	19480
892.839	19354
892.962	19441
893.085	19491
893.207	19567
893.33	19274
893.452	19278
893.575	19434
893.697	19434
893.819	19689
893.941	19616
894.064	19647
894.186	19331
894.308	19381
894.43	19510
894.552	19635
894.674	19556
894.796	19327
894.918	19533
895.04	19472
895.161	19567
895.283	19521
895.405	19438
895.526	19476
895.648	19426
895.769	19590
895.891	19594
896.012	19647
896.134	19487
896.255	19521
896.376	19480
896.498	19563
896.619	19480
896.74	19548
896.861	19556
896.982	19776
897.103	19944
897.224	19731
897.345	19731
897.466	19776
897.587	19704
897.708	19818
897.828	19761
897.949	19738
898.07	19537
898.19	19693
898.311	19879
898.431	19822
898.552	19765
898.672	19845
898.792	19830
898.913	19662
899.033	19582
899.153	19628
899.273	19422
899.393	19506
899.513	19426
899.633	19613
899.753	19491
899.873	19419
899.993	19476
900.113	19480
900.232	19487
900.352	19537
900.472	19206
900.591	19187
900.711	19426
900.83	19171
900.95	19304
901.069	19365
901.189	19156
901.308	18920
901.427	18871
901.546	18802
901.665	18795
901.784	18772
901.904	18757
902.023	18798
902.141	18506
902.26	18475
902.379	18471
902.498	18380
902.617	18334
902.735	18410
902.854	18372
902.973	18388
903.091	18110
903.21	18129
903.328	17920
903.446	17942
903.565	17950
903.683	17809
903.801	17771
903.919	17813
904.038	17832
904.156	17627
904.274	17840
904.392	17684
904.51	17653
904.627	17676
904.745	17649
904.863	17703
904.981	17383
905.098	17334
905.216	17296
905.334	17337
905.451	17284
905.569	17356
905.686	17387
905.803	17299
905.921	17197
906.038	17250
906.155	17166
906.272	16995
906.389	17071
906.506	16809
906.623	16938
906.74	16824
906.857	16634
906.974	16672
907.091	16896
907.208	16984
907.324	16831
907.441	16675
907.557	16561
907.674	16653
907.79	16504
907.907	16523
908.023	16599
908.139	16546
908.256	16577
908.372	16474
908.488	16580
908.604	16390
908.72	16223
908.836	16299
908.952	16379
909.068	16337
909.184	16428
909.3	16265
909.415	16253
909.531	16192
909.647	16040
909.762	16097
909.878	15975
909.993	16051
910.108	15991
910.224	15915
910.339	15915
910.454	15888
910.57	15743
910.685	15739
910.8	16078
910.915	15865
911.03	15895
911.145	15625
911.259	15576
911.374	15656
911.489	15515
911.604	15496
911.718	15420
911.833	15378
911.947	15348
912.062	15245
912.176	15420
912.291	15458
912.405	15428
912.519	15561
912.633	15599
912.748	15450
912.862	15351
912.976	15188
913.09	15135
913.204	15169
913.318	15233
913.431	15252
913.545	15226
913.659	15302
913.772	15039
913.886	14994
914	14967
914.113	15104
914.226	15123
914.34	14960
914.453	14811
914.566	14952
914.68	14933
914.793	14906
914.906	14682
915.019	14621
915.132	14503
915.245	14571
915.358	14674
915.47	14648
915.583	14590
915.696	14746
915.809	14678
915.921	14731
916.034	14568
916.146	14492
916.259	14564
916.371	14655
916.483	14644
916.595	14495
916.708	14434
916.82	14377
916.932	14461
917.044	14480
917.156	14396
917.268	14301
917.38	14301
917.491	14263
917.603	14309
917.715	14328
917.826	14324
917.938	14237
918.049	14096
918.161	14149
918.272	14503
918.384	14366
918.495	14187
918.606	14130
918.717	13997
918.828	14157
918.939	14077
919.05	13986
919.161	14027
919.272	13871
919.383	13925
919.494	14077
919.604	14233
919.715	14069
919.826	13978
919.936	13959
920.047	14096
920.157	14058
920.267	14248
920.378	14092
920.488	13932
920.598	14134
920.708	14298
920.818	14237
920.928	14130
921.038	14343
921.148	14229
921.258	13978
921.368	13780
921.477	13750
921.587	13814
921.697	13639
921.806	13753
921.916	13636
922.025	13483
922.134	13457
922.244	13343
922.353	13506
922.462	13324
922.571	13259
922.68	13095
922.789	13137
922.898	13129
923.007	13065
923.116	13065
923.224	13023
923.333	13145
923.442	12962
923.55	12848
923.659	12909
923.767	12878
923.876	12848
923.984	12890
924.092	12760
924.201	12856
924.309	12894
924.417	12791
924.525	12806
924.633	12798
924.741	13750
924.849	12578
924.956	12677
925.064	12448
925.172	12380
925.279	12536
925.387	12555
925.494	12578
925.602	12563
925.709	12525
925.816	12403
925.924	12509
926.031	12559
926.138	12532
926.245	12429
926.352	12334
926.459	12566
926.566	12502
926.673	12433
926.779	12266
926.886	12296
926.993	12190
927.099	12136
927.206	12022
927.312	12110
927.419	12220
927.525	12159
927.631	12098
927.737	11969
927.843	11958
927.95	11897
928.056	12003
928.162	12011
928.267	12049
928.373	12570
928.479	11958
928.585	11779
928.69	11916
928.796	11882
928.901	11802
929.007	11604
929.112	11786
929.218	11786
929.323	11718
929.428	11802
929.533	11805
929.638	11577
929.743	11577
929.848	11646
929.953	11638
930.058	11528
930.163	11387
930.267	11345
930.372	11520
930.477	11383
930.581	11570
930.685	11414
930.79	11292
930.894	11303
930.998	11284
931.103	11315
931.207	11022
931.311	10930
931.415	10919
931.519	10637
931.623	10706
