Data from test_V78500241_1200.txt Node
Date: Fri Mar 25 15:18:12 CST 2022
User: usil
Spectrometer: V785-0024
Trigger mode: 0
Integration Time (sec): 4.000000E-1
Scans to average: 1
Nonlinearity correction enabled: false
Boxcar width: 0
Storing dark spectrum: false
XAxis mode: Wavelengths
Number of Pixels in Spectrum: 1024
>>>>>Begin Spectral Data<<<<<
801.071	28025
801.214	28097
801.356	27854
801.499	27736
801.641	27545
801.783	27713
801.926	27656
802.068	27564
802.211	27587
802.353	27549
802.496	27355
802.638	27485
802.78	27287
802.923	27302
803.065	27222
803.208	27203
803.35	27226
803.492	27488
803.635	27367
803.777	27188
803.919	27603
804.061	27816
804.204	27530
804.346	27485
804.488	27439
804.63	27496
804.773	27431
804.915	27553
805.057	27713
805.199	27629
805.341	27583
805.483	27698
805.626	27526
805.768	27507
805.91	27622
806.052	27736
806.194	27462
806.336	27709
806.478	27736
806.62	27663
806.762	27884
806.904	27979
807.046	28116
807.188	28032
807.33	28105
807.472	28181
807.614	27895
807.756	28074
807.898	27876
808.04	27930
808.182	28067
808.324	27876
808.465	27884
808.607	28116
808.749	28268
808.891	28386
809.033	28588
809.174	28398
809.316	28352
809.458	28265
809.6	28173
809.741	28516
809.883	28474
810.025	28538
810.166	28664
810.308	28535
810.45	28637
810.591	28527
810.733	28276
810.875	28192
811.016	28234
811.158	28276
811.299	28329
811.441	28413
811.582	28455
811.724	28295
811.865	28291
812.007	28310
812.148	28242
812.29	28367
812.431	28325
812.573	28702
812.714	28679
812.855	28957
812.997	28824
813.138	28774
813.279	28976
813.421	28850
813.562	28733
813.703	28630
813.845	28485
813.986	28352
814.127	28234
814.268	28063
814.41	28013
814.551	27888
814.692	28059
814.833	27972
814.974	27975
815.115	27907
815.256	27873
815.397	27774
815.539	27960
815.68	27717
815.821	27743
815.962	27667
816.103	27819
816.244	27698
816.385	27781
816.526	27633
816.666	27374
816.807	27192
816.948	27378
817.089	27408
817.23	27367
817.371	27351
817.512	27310
817.653	27272
817.793	27252
817.934	27405
818.075	27306
818.216	27310
818.356	27241
818.497	27218
818.638	27104
818.778	27127
818.919	27199
819.06	27100
819.2	27283
819.341	27287
819.481	27214
819.622	27545
819.762	27519
819.903	27568
820.043	27473
820.184	27511
820.324	27256
820.465	27538
820.605	27454
820.746	27458
820.886	27488
821.026	27401
821.167	27397
821.307	27481
821.447	27359
821.588	27055
821.728	27005
821.868	26963
822.008	26826
822.149	26765
822.289	26636
822.429	26518
822.569	26499
822.709	26442
822.849	26309
822.99	26248
823.13	26240
823.27	26286
823.41	26122
823.55	25993
823.69	26164
823.83	26100
823.97	26024
824.11	25959
824.25	25837
824.389	25928
824.529	26111
824.669	25887
824.809	26111
824.949	26069
825.089	26069
825.228	26031
825.368	25784
825.508	25837
825.648	25906
825.787	25894
825.927	25864
826.067	25883
826.206	25803
826.346	25852
826.485	25849
826.625	25887
826.765	26020
826.904	25959
827.044	25696
827.183	25476
827.323	25514
827.462	25582
827.601	25487
827.741	25506
827.88	25537
828.02	25457
828.159	25544
828.298	25495
828.437	25597
828.577	25575
828.716	25662
828.855	25556
828.994	25304
829.134	25362
829.273	25282
829.412	25175
829.551	25133
829.69	25240
829.829	25293
829.968	25343
830.107	25293
830.246	25160
830.385	25107
830.524	25133
830.663	25190
830.802	24992
830.941	24932
831.08	24806
831.219	25019
831.357	24909
831.496	25099
831.635	24871
831.774	24806
831.913	24806
832.051	24578
832.19	24745
832.329	24700
832.467	24460
832.606	24521
832.744	24570
832.883	24494
833.022	24494
833.16	24521
833.299	24639
833.437	24597
833.576	24711
833.714	24604
833.852	24623
833.991	24661
834.129	24654
834.267	24840
834.406	24631
834.544	24696
834.682	24654
834.821	24665
834.959	24726
835.097	24547
835.235	24639
835.373	24616
835.511	24604
835.65	24338
835.788	24437
835.926	24289
836.064	24262
836.202	24281
836.34	24418
836.478	24559
836.615	24334
836.753	24384
836.891	24452
837.029	24456
837.167	24372
837.305	24422
837.443	24327
837.58	24380
837.718	24342
837.856	24338
837.993	24285
838.131	24361
838.269	24182
838.406	24258
838.544	24133
838.681	23897
838.819	23927
838.956	23882
839.094	23764
839.231	23771
839.369	23939
839.506	24300
839.643	23973
839.781	23722
839.918	23676
840.055	23817
840.193	23703
840.33	23585
840.467	23737
840.604	23596
840.742	23923
840.879	23497
841.016	23570
841.153	23486
841.29	23684
841.427	23684
841.564	23680
841.701	23615
841.838	23535
841.975	23512
842.112	23547
842.249	23463
842.385	23383
842.522	23627
842.659	23543
842.796	23372
842.933	23277
843.069	23330
843.206	23410
843.343	23471
843.479	23474
843.616	23398
843.752	23315
843.889	23086
844.025	23307
844.162	23242
844.298	23303
844.435	23288
844.571	23075
844.708	23322
844.844	23288
844.98	23318
845.117	23296
845.253	23162
845.389	23060
845.525	23147
845.661	23090
845.798	22968
845.934	22892
846.07	22862
846.206	22946
846.342	23033
846.478	22889
846.614	22694
846.75	22694
846.886	22713
847.022	22702
847.158	22679
847.294	22504
847.429	22706
847.565	22565
847.701	22987
847.837	22390
847.972	22341
848.108	22443
848.244	22428
848.379	22405
848.515	22462
848.65	22291
848.786	22215
848.921	22261
849.057	22295
849.192	22306
849.328	22436
849.463	22265
849.598	22109
849.734	22109
849.869	22078
850.004	21987
850.14	22143
850.275	22147
850.41	21998
850.545	21994
850.68	21994
850.815	22059
850.95	22025
851.085	22158
851.22	22169
851.355	22169
851.49	22063
851.625	21979
851.76	22131
851.895	22006
852.03	21865
852.165	21968
852.299	22090
852.434	22032
852.569	21983
852.703	22120
852.838	21915
852.973	22215
853.107	22029
853.242	21907
853.376	21880
853.511	21701
853.645	21785
853.78	22025
853.914	21751
854.048	21709
854.183	21888
854.317	21766
854.451	22150
854.585	21705
854.72	21918
854.854	21781
854.988	21747
855.122	21842
855.256	21671
855.39	21709
855.524	21903
855.658	21850
855.792	21922
855.926	21937
856.06	21907
856.194	21964
856.327	21854
856.461	21747
856.595	21816
856.729	21781
856.862	21888
856.996	21926
857.13	21937
857.263	22025
857.397	21979
857.53	21804
857.664	21869
857.797	21903
857.931	21850
858.064	21880
858.197	22032
858.331	21698
858.464	21808
858.597	21698
858.731	21823
858.864	21857
858.997	21789
859.13	21922
859.263	21873
859.396	21873
859.529	21762
859.662	21755
859.795	21804
859.928	21869
860.061	21975
860.194	22078
860.327	21827
860.46	21865
860.592	21930
860.725	22013
860.858	22017
860.99	21876
861.123	21759
861.256	21751
861.388	21911
861.521	22645
861.653	21800
861.786	21603
861.918	21583
862.05	21652
862.183	21755
862.315	21762
862.447	21808
862.58	21580
862.712	21603
862.844	21614
862.976	21580
863.108	21755
863.24	21964
863.372	21424
863.504	21519
863.636	21526
863.768	21523
863.9	21595
864.032	21492
864.164	21492
864.296	21435
864.428	21633
864.559	21591
864.691	21618
864.823	21580
864.954	21538
865.086	21633
865.217	21450
865.349	21275
865.48	21439
865.612	21485
865.743	21637
865.875	21378
866.006	21507
866.137	21458
866.269	21344
866.4	21488
866.531	21374
866.662	21310
866.793	21405
866.924	21256
867.055	21428
867.186	21511
867.317	21291
867.448	21291
867.579	21340
867.71	21336
867.841	21317
867.972	21336
868.103	21336
868.233	21386
868.364	21348
868.495	21492
868.625	21595
868.756	21629
868.886	21504
869.017	21644
869.147	21618
869.278	21625
869.408	21637
869.539	21568
869.669	21698
869.799	21561
869.929	21778
870.06	21762
870.19	21869
870.32	21865
870.45	21975
870.58	22021
870.71	22055
870.84	22093
870.97	21964
871.1	21953
871.23	22177
871.36	22234
871.489	22093
871.619	22128
871.749	22242
871.879	22169
872.008	22207
872.138	22223
872.267	22348
872.397	21911
872.526	21972
872.656	22025
872.785	21937
872.915	22211
873.044	22265
873.173	22303
873.303	22158
873.432	22322
873.561	22333
873.69	22249
873.819	22097
873.948	22276
874.077	22192
874.206	22253
874.335	22181
874.464	22272
874.593	22508
874.722	22436
874.851	22485
874.979	22481
875.108	22516
875.237	22451
875.365	22371
875.494	22428
875.623	22531
875.751	22371
875.88	22436
876.008	22710
876.136	22611
876.265	22839
876.393	22881
876.521	22991
876.65	22915
876.778	22831
876.906	22683
877.034	22778
877.162	22812
877.29	22733
877.418	22892
877.546	22660
877.674	22672
877.802	22854
877.93	22824
878.058	22843
878.185	22668
878.313	22763
878.441	22641
878.568	22607
878.696	22793
878.824	22744
878.951	22778
879.079	22889
879.206	23033
879.333	22911
879.461	22828
879.588	22881
879.715	22908
879.842	22999
879.97	22847
880.097	22500
880.224	22653
880.351	22687
880.478	22656
880.605	22611
880.732	22577
880.859	22824
880.986	22634
881.112	22664
881.239	22516
881.366	22242
881.493	22181
881.619	22173
881.746	22219
881.872	22188
881.999	22177
882.125	22036
882.252	22185
882.378	22097
882.505	22306
882.631	22021
882.757	21895
882.883	21972
883.01	21846
883.136	21831
883.262	21812
883.388	21671
883.514	21873
883.64	21922
883.766	21656
883.892	21759
884.018	21698
884.143	21759
884.269	21960
884.395	21492
884.52	21462
884.646	21504
884.772	21500
884.897	21310
885.023	21564
885.148	21625
885.274	21679
885.399	21580
885.524	21443
885.65	21564
885.775	21416
885.9	21507
886.025	21618
886.15	21583
886.275	21557
886.4	21386
886.525	21374
886.65	21283
886.775	21355
886.9	21580
887.025	21732
887.149	21294
887.274	21310
887.399	21306
887.523	21233
887.648	21291
887.773	21150
887.897	21348
888.021	21226
888.146	21298
888.27	21298
888.395	21310
888.519	21325
888.643	21256
888.767	21321
888.891	21096
889.015	21093
889.139	21123
889.263	21138
889.387	21233
889.511	21218
889.635	21176
889.759	20868
889.883	21036
890.006	21108
890.13	21195
890.254	20937
890.377	20960
890.501	20758
890.624	20830
890.748	20910
890.871	20804
890.995	20609
891.118	20590
891.241	20583
891.364	20655
891.488	20712
891.611	20587
891.734	20705
891.857	20686
891.98	20568
892.103	20594
892.226	20541
892.349	20606
892.471	20423
892.594	20579
892.717	20560
892.839	20522
892.962	20495
893.085	20537
893.207	20495
893.33	20408
893.452	20385
893.575	20556
893.697	20434
893.819	20724
893.941	20735
894.064	20575
894.186	20343
894.308	20370
894.43	20541
894.552	20522
894.674	20545
894.796	20484
894.918	20446
895.04	20461
895.161	20625
895.283	20514
895.405	20533
895.526	20541
895.648	20511
895.769	20518
895.891	20454
896.012	20564
896.134	20575
896.255	20503
896.376	20294
896.498	20442
896.619	20461
896.74	20492
896.861	20514
896.982	20754
897.103	20830
897.224	20777
897.345	20609
897.466	20606
897.587	20587
897.708	20826
897.828	20781
897.949	20552
898.07	20575
898.19	20571
898.311	20781
898.431	20697
898.552	20613
898.672	20823
898.792	20701
898.913	20735
899.033	20644
899.153	20507
899.273	20400
899.393	20495
899.513	20473
899.633	20488
899.753	20442
899.873	20427
899.993	20465
900.113	20263
900.232	20461
900.352	20336
900.472	20229
900.591	20252
900.711	20176
900.83	20134
900.95	20248
901.069	20423
901.189	20062
901.308	19791
901.427	19818
901.546	19712
901.665	19769
901.784	19799
901.904	19518
902.023	19540
902.141	19422
902.26	19343
902.379	19365
902.498	19274
902.617	19293
902.735	19320
902.854	19301
902.973	19145
903.091	18993
903.21	18871
903.328	18951
903.446	18932
903.565	18707
903.683	18802
903.801	18707
903.919	18635
904.038	18669
904.156	18563
904.274	18570
904.392	18502
904.51	18566
904.627	18544
904.745	18639
904.863	18650
904.981	18243
905.098	18125
905.216	18174
905.334	18289
905.451	18304
905.569	18243
905.686	18159
905.803	18083
905.921	17950
906.038	18102
906.155	17954
906.272	17950
906.389	17733
906.506	17710
906.623	17672
906.74	17923
906.857	17592
906.974	17672
907.091	17790
907.208	17847
907.324	17745
907.441	17634
907.557	17433
907.674	17501
907.79	17391
907.907	17379
908.023	17482
908.139	17444
908.256	17330
908.372	17322
908.488	17296
908.604	17242
908.72	17121
908.836	17174
908.952	17159
909.068	17147
909.184	17223
909.3	17212
909.415	17113
909.531	17143
909.647	16892
909.762	16919
909.878	16820
909.993	16877
910.108	16930
910.224	16858
910.339	16752
910.454	16725
910.57	16679
910.685	16577
910.8	16930
910.915	16809
911.03	16675
911.145	16653
911.259	16394
911.374	16421
911.489	16299
911.604	16314
911.718	16158
911.833	16219
911.947	16109
912.062	16059
912.176	16207
912.291	16154
912.405	16166
912.519	16398
912.633	16466
912.748	16249
912.862	16143
912.976	15918
913.09	15850
913.204	15945
913.318	16021
913.431	16162
913.545	16188
913.659	16074
913.772	15937
913.886	15835
914	15816
914.113	15926
914.226	15937
914.34	15873
914.453	15705
914.566	15808
914.68	15641
914.793	15747
914.906	15553
915.019	15473
915.132	15367
915.245	15462
915.358	15492
915.47	15450
915.583	15408
915.696	15393
915.809	15519
915.921	15564
916.034	15310
916.146	15279
916.259	15389
916.371	15477
916.483	15302
916.595	15188
916.708	15218
916.82	15226
916.932	15279
917.044	15188
917.156	15100
917.268	14990
917.38	14990
917.491	15051
917.603	15017
917.715	15024
917.826	15097
917.938	14994
918.049	14910
918.161	14952
918.272	15089
918.384	15055
918.495	14967
918.606	14876
918.717	14762
918.828	14804
918.939	14815
919.05	14754
919.161	14712
919.272	14518
919.383	14663
919.494	14899
919.604	14944
919.715	14807
919.826	14731
919.936	14697
920.047	14735
920.157	14708
920.267	14899
920.378	14754
920.488	14670
920.598	14834
920.708	15020
920.818	14823
920.928	14906
921.038	14979
921.148	15047
921.258	14655
921.368	14590
921.477	14469
921.587	14446
921.697	14290
921.806	14461
921.916	14347
922.025	14183
922.134	14035
922.244	14084
922.353	14119
922.462	13959
922.571	13932
922.68	13883
922.789	13776
922.898	13780
923.007	13700
923.116	13788
923.224	13734
923.333	13753
923.442	13636
923.55	13658
923.659	13677
923.767	13674
923.876	13609
923.984	13578
924.092	13518
924.201	13548
924.309	13521
924.417	13540
924.525	13373
924.633	13396
924.741	14195
924.849	13244
924.956	13381
925.064	13377
925.172	13152
925.279	13236
925.387	13114
925.494	13122
925.602	13369
925.709	13236
925.816	13072
925.924	13091
926.031	13202
926.138	13057
926.245	13103
926.352	12913
926.459	13076
926.566	13187
926.673	13053
926.779	12886
926.886	12913
926.993	12745
927.099	12711
927.206	12722
927.312	12654
927.419	12791
927.525	12662
927.631	12753
927.737	12642
927.843	12525
927.95	12563
928.056	12597
928.162	12570
928.267	12585
928.373	13099
928.479	12662
928.585	12296
928.69	12498
928.796	12452
928.901	12342
929.007	12289
929.112	12414
929.218	12376
929.323	12308
929.428	12292
929.533	12437
929.638	12239
929.743	12171
929.848	12311
929.953	12178
930.058	12106
930.163	11969
930.267	12030
930.372	12064
930.477	11843
930.581	12133
930.685	11969
930.79	11878
930.894	11794
930.998	11817
931.103	11954
931.207	11623
931.311	11543
931.415	11398
931.519	11303
931.623	11143
