Data from test_V78500241_1417.txt Node
Date: Fri Mar 25 15:19:43 CST 2022
User: usil
Spectrometer: V785-0024
Trigger mode: 0
Integration Time (sec): 4.000000E-1
Scans to average: 1
Nonlinearity correction enabled: false
Boxcar width: 0
Storing dark spectrum: false
XAxis mode: Wavelengths
Number of Pixels in Spectrum: 1024
>>>>>Begin Spectral Data<<<<<
801.071	28112
801.214	27998
801.356	27759
801.499	27797
801.641	27412
801.783	27644
801.926	27747
802.068	27526
802.211	27595
802.353	27412
802.496	27226
802.638	27195
802.78	27291
802.923	27252
803.065	27131
803.208	27245
803.35	27222
803.492	27325
803.635	27355
803.777	27173
803.919	27462
804.061	27804
804.204	27637
804.346	27534
804.488	27291
804.63	27549
804.773	27488
804.915	27492
805.057	27698
805.199	27439
805.341	27701
805.483	27644
805.626	27603
805.768	27481
805.91	27603
806.052	27709
806.194	27599
806.336	27808
806.478	27652
806.62	27652
806.762	27827
806.904	27842
807.046	28048
807.188	28139
807.33	28097
807.472	28169
807.614	28063
807.756	27975
807.898	27793
808.04	27861
808.182	27857
808.324	27914
808.465	27975
808.607	28238
808.749	28211
808.891	28325
809.033	28451
809.174	28382
809.316	28166
809.458	28409
809.6	28382
809.741	28280
809.883	28360
810.025	28645
810.166	28607
810.308	28557
810.45	28436
810.591	28390
810.733	28455
810.875	28154
811.016	28261
811.158	28158
811.299	28238
811.441	28382
811.582	28421
811.724	28287
811.865	28150
812.007	28356
812.148	28196
812.29	28344
812.431	28466
812.573	28474
812.714	28691
812.855	28957
812.997	28961
813.138	29037
813.279	28965
813.421	28831
813.562	28748
813.703	28713
813.845	28508
813.986	28249
814.127	28067
814.268	27972
814.41	28013
814.551	27926
814.692	28116
814.833	27914
814.974	27934
815.115	27888
815.256	28063
815.397	27899
815.539	27823
815.68	27827
815.821	27591
815.962	27755
816.103	27747
816.244	27587
816.385	27576
816.526	27576
816.666	27344
816.807	27218
816.948	27447
817.089	27469
817.23	27302
817.371	27344
817.512	27176
817.653	27237
817.793	27233
817.934	27294
818.075	27214
818.216	27313
818.356	27386
818.497	27264
818.638	27017
818.778	26918
818.919	26967
819.06	27085
819.2	27245
819.341	27321
819.481	27355
819.622	27389
819.762	27648
819.903	27443
820.043	27492
820.184	27256
820.324	27367
820.465	27367
820.605	27344
820.746	27355
820.886	27184
821.026	27420
821.167	27085
821.307	27386
821.447	27245
821.588	27195
821.728	27138
821.868	26838
822.008	26602
822.149	26701
822.289	26594
822.429	26438
822.569	26503
822.709	26408
822.849	26271
822.99	26164
823.13	26237
823.27	26187
823.41	25989
823.55	25993
823.69	26149
823.83	26084
823.97	26103
824.11	25845
824.25	25887
824.389	25852
824.529	26054
824.669	25940
824.809	26020
824.949	25955
825.089	25841
825.228	25986
825.368	25700
825.508	25681
825.648	25723
825.787	25807
825.927	25837
826.067	25708
826.206	25685
826.346	25696
826.485	25826
826.625	25734
826.765	25913
826.904	25871
827.044	25537
827.183	25616
827.323	25540
827.462	25597
827.601	25464
827.741	25350
827.88	25411
828.02	25407
828.159	25460
828.298	25521
828.437	25666
828.577	25354
828.716	25518
828.855	25434
828.994	25263
829.134	25126
829.273	25183
829.412	25179
829.551	25091
829.69	25027
829.829	25236
829.968	25122
830.107	25221
830.246	25156
830.385	25061
830.524	24954
830.663	24973
830.802	25000
830.941	24734
831.08	24734
831.219	24802
831.357	24757
831.496	24840
831.635	24894
831.774	24582
831.913	24776
832.051	24582
832.19	24555
832.329	24627
832.467	24486
832.606	24403
832.744	24384
832.883	24384
833.022	24391
833.16	24399
833.299	24460
833.437	24658
833.576	24471
833.714	24525
833.852	24464
833.991	24490
834.129	24509
834.267	24399
834.406	24517
834.544	24517
834.682	24502
834.821	24372
834.959	24616
835.097	24357
835.235	24521
835.373	24426
835.511	24582
835.65	24254
835.788	24395
835.926	24254
836.064	24133
836.202	24232
836.34	24403
836.478	24528
836.615	24384
836.753	24330
836.891	24330
837.029	24350
837.167	24239
837.305	24129
837.443	24365
837.58	24239
837.718	24171
837.856	24357
837.993	24011
838.131	24152
838.269	24038
838.406	23950
838.544	23824
838.681	23745
838.819	23805
838.956	23623
839.094	23573
839.231	23687
839.369	23866
839.506	24022
839.643	23843
839.781	23611
839.918	23535
840.055	23737
840.193	23623
840.33	23463
840.467	23551
840.604	23524
840.742	23748
840.879	23398
841.016	23311
841.153	23349
841.29	23737
841.427	23444
841.564	23577
841.701	23444
841.838	23433
841.975	23406
842.112	23330
842.249	23246
842.385	23299
842.522	23440
842.659	23341
842.796	23368
842.933	23242
843.069	23242
843.206	23269
843.343	23204
843.479	23277
843.616	23341
843.752	22999
843.889	23098
844.025	23303
844.162	23060
844.298	23170
844.435	22995
844.571	23003
844.708	23166
844.844	23242
844.98	23181
845.117	23064
845.253	22980
845.389	22866
845.525	23083
845.661	22889
845.798	22740
845.934	23048
846.07	22717
846.206	22778
846.342	22930
846.478	22736
846.614	22569
846.75	22421
846.886	22512
847.022	22592
847.158	22470
847.294	22516
847.429	22584
847.565	22478
847.701	22717
847.837	22143
847.972	22185
848.108	22276
848.244	22238
848.379	22154
848.515	22128
848.65	22025
848.786	22063
848.921	22177
849.057	22204
849.192	22253
849.328	22116
849.463	22128
849.598	22021
849.734	21918
849.869	21998
850.004	21895
850.14	21876
850.275	21857
850.41	21739
850.545	21770
850.68	21778
850.815	21876
850.95	21838
851.085	22143
851.22	21880
851.355	21797
851.49	21926
851.625	21857
851.76	21842
851.895	21842
852.03	21675
852.165	21835
852.299	21968
852.434	21895
852.569	21956
852.703	21873
852.838	21892
852.973	21926
853.107	22070
853.242	21778
853.376	21701
853.511	21622
853.645	21679
853.78	21789
853.914	21747
854.048	21701
854.183	21766
854.317	21739
854.451	21892
854.585	21694
854.72	21610
854.854	21690
854.988	21618
855.122	21622
855.256	21530
855.39	21583
855.524	21781
855.658	21739
855.792	21705
855.926	21766
856.06	21701
856.194	21743
856.327	21717
856.461	21797
856.595	21458
856.729	21694
856.862	21774
856.996	21713
857.13	21793
857.263	21781
857.397	21694
857.53	21755
857.664	21739
857.797	21774
857.931	21850
858.064	21766
858.197	21873
858.331	21610
858.464	21614
858.597	21599
858.731	21724
858.864	21504
858.997	21553
859.13	21580
859.263	21701
859.396	21827
859.529	21686
859.662	21671
859.795	21625
859.928	21679
860.061	21918
860.194	21949
860.327	21701
860.46	21690
860.592	21770
860.725	21918
860.858	21770
860.99	21751
861.123	21622
861.256	21587
861.388	21583
861.521	22181
861.653	21568
861.786	21473
861.918	21405
862.05	21576
862.183	21557
862.315	21606
862.447	21557
862.58	21686
862.712	21302
862.844	21397
862.976	21378
863.108	21447
863.24	21720
863.372	21287
863.504	21359
863.636	21408
863.768	21389
863.9	21374
864.032	21268
864.164	21317
864.296	21386
864.428	21523
864.559	21488
864.691	21355
864.823	21348
864.954	21393
865.086	21336
865.217	21332
865.349	21100
865.48	21211
865.612	21275
865.743	21389
865.875	21336
866.006	21348
866.137	21188
866.269	21291
866.4	21283
866.531	21184
866.662	21222
866.793	21192
866.924	21146
867.055	21275
867.186	21332
867.317	21089
867.448	21184
867.579	21001
867.71	21150
867.841	21070
867.972	21207
868.103	21214
868.233	21081
868.364	21176
868.495	21256
868.625	21412
868.756	21389
868.886	21374
869.017	21393
869.147	21469
869.278	21534
869.408	21428
869.539	21302
869.669	21450
869.799	21568
869.929	21583
870.06	21496
870.19	21667
870.32	21698
870.45	21907
870.58	21838
870.71	21884
870.84	21991
870.97	21835
871.1	21842
871.23	21991
871.36	22063
871.489	21960
871.619	22013
871.749	22029
871.879	22048
872.008	22101
872.138	22070
872.267	22040
872.397	21930
872.526	21854
872.656	21785
872.785	21842
872.915	21975
873.044	22162
873.173	21975
873.303	22131
873.432	22082
873.561	22105
873.69	22025
873.819	22006
873.948	22120
874.077	22021
874.206	21895
874.335	22040
874.464	22135
874.593	22367
874.722	22124
874.851	22375
874.979	22261
875.108	22268
875.237	22204
875.365	22287
875.494	22265
875.623	22284
875.751	22192
875.88	22314
876.008	22352
876.136	22466
876.265	22649
876.393	22725
876.521	22706
876.65	22675
876.778	22603
876.906	22516
877.034	22550
877.162	22691
877.29	22508
877.418	22584
877.546	22702
877.674	22630
877.802	22649
877.93	22641
878.058	22607
878.185	22394
878.313	22531
878.441	22683
878.568	22440
878.696	22493
878.824	22649
878.951	22706
879.079	22710
879.206	22949
879.333	22729
879.461	22565
879.588	22683
879.715	22717
879.842	22839
879.97	22569
880.097	22451
880.224	22531
880.351	22413
880.478	22394
880.605	22405
880.732	22356
880.859	22603
880.986	22500
881.112	22451
881.239	22303
881.366	22185
881.493	22059
881.619	22051
881.746	21930
881.872	22010
881.999	21926
882.125	21983
882.252	21975
882.378	22120
882.505	21960
882.631	21797
882.757	21705
882.883	21785
883.01	21774
883.136	21591
883.262	21500
883.388	21675
883.514	21587
883.64	21701
883.766	21610
883.892	21485
884.018	21580
884.143	21622
884.269	21781
884.395	21389
884.52	21287
884.646	21420
884.772	21291
884.897	21195
885.023	21268
885.148	21412
885.274	21557
885.399	21431
885.524	21382
885.65	21386
885.775	21370
885.9	21268
886.025	21359
886.15	21351
886.275	21256
886.4	21180
886.525	21291
886.65	21256
886.775	21325
886.9	21450
887.025	21447
887.149	21230
887.274	21089
887.399	21055
887.523	21165
887.648	20971
887.773	21020
887.897	21195
888.021	21081
888.146	20918
888.27	21146
888.395	21123
888.519	21116
888.643	21017
888.767	21161
888.891	20982
889.015	20937
889.139	20990
889.263	20792
889.387	20941
889.511	21081
889.635	21047
889.759	20910
889.883	20883
890.006	20941
890.13	21020
890.254	20762
890.377	20765
890.501	20617
890.624	20636
890.748	20765
890.871	20552
890.995	20358
891.118	20339
891.241	20454
891.364	20362
891.488	20488
891.611	20393
891.734	20385
891.857	20446
891.98	20381
892.103	20415
892.226	20431
892.349	20423
892.471	20126
892.594	20336
892.717	20427
892.839	20347
892.962	20324
893.085	20404
893.207	20343
893.33	20320
893.452	20294
893.575	20339
893.697	20423
893.819	20427
893.941	20560
894.064	20526
894.186	20347
894.308	20320
894.43	20480
894.552	20480
894.674	20275
894.796	20176
894.918	20233
895.04	20282
895.161	20377
895.283	20434
895.405	20351
895.526	20298
895.648	20286
895.769	20294
895.891	20400
896.012	20454
896.134	20275
896.255	20377
896.376	20248
896.498	20358
896.619	20286
896.74	20309
896.861	20366
896.982	20629
897.103	20697
897.224	20507
897.345	20705
897.466	20469
897.587	20526
897.708	20716
897.828	20644
897.949	20590
898.07	20408
898.19	20381
898.311	20526
898.431	20450
898.552	20594
898.672	20606
898.792	20579
898.913	20594
899.033	20450
899.153	20461
899.273	20092
899.393	20309
899.513	20374
899.633	20199
899.753	20336
899.873	20309
899.993	20278
900.113	20214
900.232	20294
900.352	20244
900.472	20119
900.591	19959
900.711	20043
900.83	19993
900.95	20218
901.069	20081
901.189	19993
901.308	19700
901.427	19601
901.546	19708
901.665	19674
901.784	19632
901.904	19510
902.023	19419
902.141	19198
902.26	19346
902.379	19247
902.498	19206
902.617	19091
902.735	19206
902.854	19061
902.973	19046
903.091	18943
903.21	18859
903.328	18749
903.446	18749
903.565	18627
903.683	18563
903.801	18426
903.919	18608
904.038	18536
904.156	18585
904.274	18376
904.392	18391
904.51	18292
904.627	18380
904.745	18422
904.863	18433
904.981	18319
905.098	18076
905.216	18007
905.334	18110
905.451	18106
905.569	18079
905.686	18136
905.803	17988
905.921	17863
906.038	17878
906.155	17885
906.272	17775
906.389	17828
906.506	17604
906.623	17619
906.74	17615
906.857	17455
906.974	17558
907.091	17707
907.208	17745
907.324	17596
907.441	17535
907.557	17429
907.674	17349
907.79	17345
907.907	17315
908.023	17360
908.139	17273
908.256	17265
908.372	17159
908.488	17143
908.604	17079
908.72	17060
908.836	17022
908.952	16991
909.068	17060
909.184	17162
909.3	16999
909.415	17033
909.531	16987
909.647	16752
909.762	16812
909.878	16717
909.993	16763
910.108	16740
910.224	16611
910.339	16771
910.454	16573
910.57	16580
910.685	16489
910.8	16729
910.915	16645
911.03	16466
911.145	16360
911.259	16382
911.374	16341
911.489	16211
911.604	16135
911.718	16013
911.833	16116
911.947	16025
912.062	15922
912.176	16097
912.291	15975
912.405	16040
912.519	16211
912.633	16150
912.748	16055
912.862	16150
912.976	15865
913.09	15838
913.204	15918
913.318	15888
913.431	15903
913.545	15949
913.659	16032
913.772	15895
913.886	15736
914	15667
914.113	15671
914.226	15785
914.34	15728
914.453	15591
914.566	15656
914.68	15523
914.793	15492
914.906	15382
915.019	15325
915.132	15199
915.245	15313
915.358	15321
915.47	15313
915.583	15275
915.696	15374
915.809	15447
915.921	15325
916.034	15142
916.146	15051
916.259	15180
916.371	15275
916.483	15230
916.595	15150
916.708	15116
916.82	15157
916.932	15036
917.044	15066
917.156	15089
917.268	14918
917.38	14956
917.491	14906
917.603	14933
917.715	15028
917.826	15077
917.938	14868
918.049	14701
918.161	14800
918.272	14891
918.384	15028
918.495	14857
918.606	14720
918.717	14701
918.828	14727
918.939	14613
919.05	14598
919.161	14708
919.272	14415
919.383	14587
919.494	14746
919.604	14800
919.715	14549
919.826	14606
919.936	14674
920.047	14686
920.157	14644
920.267	14686
920.378	14579
920.488	14598
920.598	14880
920.708	14941
920.818	14849
920.928	14708
921.038	14952
921.148	14842
921.258	14701
921.368	14522
921.477	14454
921.587	14377
921.697	14275
921.806	14336
921.916	14244
922.025	14115
922.134	14043
922.244	14100
922.353	14096
922.462	13978
922.571	13959
922.68	13708
922.789	13651
922.898	13734
923.007	13620
923.116	13693
923.224	13537
923.333	13582
923.442	13464
923.55	13510
923.659	13464
923.767	13514
923.876	13457
923.984	13559
924.092	13400
924.201	13476
924.309	13422
924.417	13373
924.525	13354
924.633	13247
924.741	14084
924.849	13156
924.956	13285
925.064	13046
925.172	13031
925.279	13027
925.387	13114
925.494	13076
925.602	13156
925.709	13019
925.816	12943
925.924	13034
926.031	13015
926.138	13061
926.245	13110
926.352	12932
926.459	12996
926.566	13015
926.673	12954
926.779	12821
926.886	12852
926.993	12582
927.099	12627
927.206	12536
927.312	12593
927.419	12696
927.525	12665
927.631	12673
927.737	12464
927.843	12498
927.95	12315
928.056	12426
928.162	12426
928.267	12418
928.373	13137
928.479	12494
928.585	12300
928.69	12437
928.796	12456
928.901	12346
929.007	12232
929.112	12296
929.218	12273
929.323	12171
929.428	12072
929.533	12327
929.638	12038
929.743	12148
929.848	12197
929.953	12102
930.058	12026
930.163	11866
930.267	11828
930.372	11954
930.477	11756
930.581	12034
930.685	11889
930.79	11767
930.894	11805
930.998	11665
931.103	11752
931.207	11455
931.311	11345
931.415	11368
931.519	11132
931.623	11071
