Data from test_V78500241_2808.txt Node
Date: Fri Mar 25 15:29:24 CST 2022
User: usil
Spectrometer: V785-0024
Trigger mode: 0
Integration Time (sec): 4.000000E-1
Scans to average: 1
Nonlinearity correction enabled: false
Boxcar width: 0
Storing dark spectrum: false
XAxis mode: Wavelengths
Number of Pixels in Spectrum: 1024
>>>>>Begin Spectral Data<<<<<
801.071	27184
801.214	27051
801.356	26906
801.499	26933
801.641	26735
801.783	26765
801.926	26663
802.068	26621
802.211	26689
802.353	26492
802.496	26294
802.638	26362
802.78	26259
802.923	26210
803.065	26161
803.208	26328
803.35	26336
803.492	26396
803.635	26613
803.777	26290
803.919	26423
804.061	26762
804.204	26434
804.346	26488
804.488	26469
804.63	26484
804.773	26450
804.915	26648
805.057	26697
805.199	26507
805.341	26564
805.483	26613
805.626	26545
805.768	26484
805.91	26655
806.052	26507
806.194	26583
806.336	26743
806.478	26655
806.62	26514
806.762	26735
806.904	26762
807.046	27100
807.188	27123
807.33	27146
807.472	27077
807.614	27032
807.756	26975
807.898	26773
808.04	26929
808.182	26811
808.324	26769
808.465	26902
808.607	26967
808.749	27241
808.891	27313
809.033	27298
809.174	27207
809.316	27180
809.458	27161
809.6	27119
809.741	27348
809.883	27416
810.025	27462
810.166	27462
810.308	27466
810.45	27504
810.591	27310
810.733	27241
810.875	27173
811.016	27047
811.158	27074
811.299	27355
811.441	27344
811.582	27397
811.724	27233
811.865	27283
812.007	27119
812.148	27093
812.29	27355
812.431	27226
812.573	27477
812.714	27629
812.855	27595
812.997	27785
813.138	27888
813.279	27656
813.421	27644
813.562	27747
813.703	27462
813.845	27298
813.986	27028
814.127	26979
814.268	26937
814.41	26876
814.551	26792
814.692	26914
814.833	26857
814.974	26735
815.115	26849
815.256	26674
815.397	26670
815.539	26735
815.68	26617
815.821	26590
815.962	26693
816.103	26617
816.244	26541
816.385	26347
816.526	26332
816.666	26100
816.807	26111
816.948	26256
817.089	26214
817.23	26130
817.371	26168
817.512	26153
817.653	26058
817.793	25986
817.934	26138
818.075	25993
818.216	26126
818.356	26043
818.497	26031
818.638	25864
818.778	25761
818.919	25921
819.06	25890
819.2	26020
819.341	26119
819.481	26134
819.622	26122
819.762	26328
819.903	26415
820.043	26176
820.184	26275
820.324	26161
820.465	26233
820.605	26195
820.746	26210
820.886	26039
821.026	26138
821.167	26050
821.307	26164
821.447	26107
821.588	25913
821.728	25742
821.868	25772
822.008	25635
822.149	25502
822.289	25635
822.429	25396
822.569	25255
822.709	25175
822.849	25107
822.99	25012
823.13	24924
823.27	24935
823.41	24947
823.55	24722
823.69	25019
823.83	24795
823.97	24814
824.11	24711
824.25	24578
824.389	24776
824.529	24795
824.669	24700
824.809	24757
824.949	24665
825.089	24760
825.228	24814
825.368	24391
825.508	24471
825.648	24616
825.787	24681
825.927	24627
826.067	24604
826.206	24517
826.346	24631
826.485	24544
826.625	24494
826.765	24692
826.904	24608
827.044	24391
827.183	24399
827.323	24220
827.462	24365
827.601	24277
827.741	24315
827.88	24277
828.02	24190
828.159	24197
828.298	24243
828.437	24361
828.577	23980
828.716	24407
828.855	24190
828.994	24083
829.134	23969
829.273	24015
829.412	23904
829.551	23965
829.69	23931
829.829	23988
829.968	23992
830.107	23946
830.246	23809
830.385	23916
830.524	23885
830.663	23935
830.802	23642
830.941	23592
831.08	23589
831.219	23646
831.357	23760
831.496	23718
831.635	23665
831.774	23497
831.913	23501
832.051	23296
832.19	23395
832.329	23250
832.467	23258
832.606	23193
832.744	23185
832.883	23239
833.022	23174
833.16	23204
833.299	23208
833.437	23284
833.576	23311
833.714	23204
833.852	23292
833.991	23421
834.129	23330
834.267	23337
834.406	23242
834.544	23250
834.682	23273
834.821	23250
834.959	23368
835.097	23200
835.235	23307
835.373	23284
835.511	23334
835.65	23162
835.788	23227
835.926	23010
836.064	22869
836.202	23006
836.34	23212
836.478	23261
836.615	23147
836.753	23208
836.891	23265
837.029	23189
837.167	23102
837.305	23064
837.443	22866
837.58	23037
837.718	22984
837.856	23033
837.993	23010
838.131	22946
838.269	22850
838.406	22854
838.544	22771
838.681	22645
838.819	22603
838.956	22497
839.094	22440
839.231	22573
839.369	22569
839.506	22915
839.643	22748
839.781	22519
839.918	22333
840.055	22382
840.193	22352
840.33	22375
840.467	22436
840.604	22405
840.742	22733
840.879	22306
841.016	22333
841.153	22287
841.29	22409
841.427	22424
841.564	22424
841.701	22409
841.838	22295
841.975	22306
842.112	22382
842.249	22356
842.385	22185
842.522	22493
842.659	22268
842.796	22188
842.933	22276
843.069	22124
843.206	22131
843.343	22150
843.479	22177
843.616	22143
843.752	21888
843.889	21930
844.025	22086
844.162	21854
844.298	22078
844.435	22021
844.571	21922
844.708	21968
844.844	22112
844.98	22029
845.117	22013
845.253	21827
845.389	21732
845.525	21842
845.661	21774
845.798	21633
845.934	21762
846.07	21739
846.206	21728
846.342	21759
846.478	21633
846.614	21466
846.75	21355
846.886	21378
847.022	21370
847.158	21523
847.294	21416
847.429	21389
847.565	21393
847.701	21625
847.837	21218
847.972	21142
848.108	21165
848.244	21138
848.379	20998
848.515	21058
848.65	21085
848.786	21017
848.921	21039
849.057	21131
849.192	21043
849.328	21062
849.463	21024
849.598	20845
849.734	20883
849.869	20849
850.004	20788
850.14	20804
850.275	20773
850.41	20648
850.545	20629
850.68	20674
850.815	20777
850.95	20667
851.085	21001
851.22	20842
851.355	20754
851.49	20773
851.625	20663
851.76	20716
851.895	20754
852.03	20731
852.165	20689
852.299	20845
852.434	20849
852.569	20689
852.703	20727
852.838	20712
852.973	20918
853.107	20823
853.242	20629
853.376	20621
853.511	20503
853.645	20644
853.78	20655
853.914	20492
854.048	20575
854.183	20503
854.317	20621
854.451	20842
854.585	20541
854.72	20682
854.854	20571
854.988	20583
855.122	20727
855.256	20465
855.39	20564
855.524	20701
855.658	20590
855.792	20606
855.926	20590
856.06	20712
856.194	20819
856.327	20564
856.461	20438
856.595	20499
856.729	20537
856.862	20644
856.996	20640
857.13	20556
857.263	20724
857.397	20697
857.53	20632
857.664	20514
857.797	20659
857.931	20727
858.064	20686
858.197	20632
858.331	20602
858.464	20629
858.597	20514
858.731	20587
858.864	20629
858.997	20636
859.13	20541
859.263	20655
859.396	20819
859.529	20640
859.662	20674
859.795	20537
859.928	20632
860.061	20758
860.194	20735
860.327	20625
860.46	20720
860.592	20697
860.725	20705
860.858	20754
860.99	20583
861.123	20632
861.256	20590
861.388	20556
861.521	21192
861.653	20393
861.786	20358
861.918	20473
862.05	20507
862.183	20579
862.315	20682
862.447	20632
862.58	20598
862.712	20393
862.844	20301
862.976	20400
863.108	20454
863.24	20739
863.372	20248
863.504	20301
863.636	20225
863.768	20290
863.9	20438
864.032	20282
864.164	20286
864.296	20336
864.428	20457
864.559	20263
864.691	20347
864.823	20336
864.954	20339
865.086	20278
865.217	20313
865.349	20233
865.48	20191
865.612	20210
865.743	20237
865.875	20244
866.006	20210
866.137	20195
866.269	20256
866.4	20305
866.531	20157
866.662	20096
866.793	20138
866.924	20058
867.055	20252
867.186	20157
867.317	20214
867.448	20134
867.579	20122
867.71	20077
867.841	20081
867.972	20187
868.103	20031
868.233	20168
868.364	20153
868.495	20218
868.625	20324
868.756	20457
868.886	20358
869.017	20282
869.147	20564
869.278	20461
869.408	20442
869.539	20412
869.669	20644
869.799	20377
869.929	20617
870.06	20503
870.19	20670
870.32	20701
870.45	20811
870.58	20868
870.71	20880
870.84	20880
870.97	20800
871.1	20868
871.23	21070
871.36	21062
871.489	20849
871.619	20910
871.749	20975
871.879	20971
872.008	21146
872.138	20967
872.267	21077
872.397	20971
872.526	20826
872.656	20872
872.785	20864
872.915	21131
873.044	21096
873.173	21066
873.303	21017
873.432	21032
873.561	21055
873.69	20979
873.819	21036
873.948	21222
874.077	21093
874.206	20979
874.335	21047
874.464	21195
874.593	21416
874.722	21218
874.851	21310
874.979	21237
875.108	21332
875.237	21192
875.365	21233
875.494	21211
875.623	21405
875.751	21287
875.88	21249
876.008	21416
876.136	21496
876.265	21698
876.393	21747
876.521	21701
876.65	21766
876.778	21682
876.906	21583
877.034	21545
877.162	21606
877.29	21595
877.418	21660
877.546	21720
877.674	21580
877.802	21618
877.93	21622
878.058	21519
878.185	21481
878.313	21500
878.441	21572
878.568	21507
878.696	21660
878.824	21603
878.951	21759
879.079	21774
879.206	21903
879.333	21686
879.461	21800
879.588	21637
879.715	21778
879.842	21937
879.97	21739
880.097	21526
880.224	21378
880.351	21557
880.478	21405
880.605	21275
880.732	21336
880.859	21732
880.986	21420
881.112	21458
881.239	21302
881.366	21249
881.493	21329
881.619	21089
881.746	21131
881.872	21085
881.999	20937
882.125	21024
882.252	21081
882.378	21001
882.505	21188
882.631	20891
882.757	20838
882.883	20937
883.01	20750
883.136	20746
883.262	20705
883.388	20648
883.514	20845
883.64	20746
883.766	20716
883.892	20526
884.018	20507
884.143	20705
884.269	20777
884.395	20404
884.52	20336
884.646	20351
884.772	20343
884.897	20237
885.023	20476
885.148	20651
885.274	20511
885.399	20377
885.524	20400
885.65	20396
885.775	20381
885.9	20400
886.025	20434
886.15	20465
886.275	20343
886.4	20385
886.525	20423
886.65	20358
886.775	20450
886.9	20549
887.025	20571
887.149	20446
887.274	20256
887.399	20214
887.523	20202
887.648	19989
887.773	20046
887.897	20237
888.021	20153
888.146	20062
888.27	20142
888.395	20309
888.519	20115
888.643	20210
888.767	20168
888.891	20035
889.015	19925
889.139	20024
889.263	20008
889.387	20065
889.511	20168
889.635	20065
889.759	19963
889.883	19868
890.006	19925
890.13	20081
890.254	19932
890.377	19788
890.501	19841
890.624	19742
890.748	19715
890.871	19738
890.995	19601
891.118	19495
891.241	19616
891.364	19540
891.488	19628
891.611	19540
891.734	19525
891.857	19601
891.98	19518
892.103	19460
892.226	19445
892.349	19400
892.471	19362
892.594	19506
892.717	19502
892.839	19487
892.962	19453
893.085	19434
893.207	19434
893.33	19381
893.452	19365
893.575	19514
893.697	19533
893.819	19571
893.941	19689
894.064	19616
894.186	19403
894.308	19289
894.43	19552
894.552	19639
894.674	19597
894.796	19377
894.918	19495
895.04	19464
895.161	19483
895.283	19597
895.405	19472
895.526	19415
895.648	19422
895.769	19537
895.891	19419
896.012	19647
896.134	19582
896.255	19525
896.376	19411
896.498	19480
896.619	19632
896.74	19510
896.861	19586
896.982	19860
897.103	19963
897.224	19708
897.345	19727
897.466	19712
897.587	19674
897.708	19788
897.828	19693
897.949	19647
898.07	19510
898.19	19601
898.311	19731
898.431	19624
898.552	19677
898.672	19784
898.792	19795
898.913	19769
899.033	19594
899.153	19544
899.273	19369
899.393	19499
899.513	19597
899.633	19529
899.753	19495
899.873	19430
899.993	19381
900.113	19464
900.232	19426
900.352	19480
900.472	19320
900.591	19183
900.711	19236
900.83	19209
900.95	19422
901.069	19221
901.189	19114
901.308	18989
901.427	18833
901.546	18856
901.665	18798
901.784	18715
901.904	18681
902.023	18661
902.141	18494
902.26	18361
902.379	18410
902.498	18471
902.617	18296
902.735	18437
902.854	18334
902.973	18270
903.091	18114
903.21	18053
903.328	18057
903.446	18053
903.565	17984
903.683	17889
903.801	17775
903.919	17813
904.038	17767
904.156	17657
904.274	17722
904.392	17596
904.51	17577
904.627	17653
904.745	17634
904.863	17748
904.981	17417
905.098	17311
905.216	17311
905.334	17311
905.451	17299
905.569	17273
905.686	17288
905.803	17254
905.921	17109
906.038	17261
906.155	17147
906.272	16946
906.389	17041
906.506	16877
906.623	16831
906.74	16839
906.857	16717
906.974	16797
907.091	16820
907.208	16927
907.324	16866
907.441	16637
907.557	16668
907.674	16618
907.79	16489
907.907	16565
908.023	16687
908.139	16580
908.256	16512
908.372	16447
908.488	16371
908.604	16322
908.72	16325
908.836	16390
908.952	16314
909.068	16344
909.184	16363
909.3	16287
909.415	16287
909.531	16287
909.647	16131
909.762	16006
909.878	15979
909.993	16109
910.108	16021
910.224	15854
910.339	16044
910.454	15888
910.57	15770
910.685	15751
910.8	15975
910.915	15915
911.03	15861
911.145	15759
911.259	15538
911.374	15622
911.489	15481
911.604	15481
911.718	15370
911.833	15306
911.947	15340
912.062	15279
912.176	15367
912.291	15443
912.405	15351
912.519	15584
912.633	15549
912.748	15397
912.862	15291
912.976	15165
913.09	15093
913.204	15138
913.318	15150
913.431	15241
913.545	15260
913.659	15336
913.772	15013
913.886	15077
914	15043
914.113	15116
914.226	15173
914.34	15039
914.453	14849
914.566	15055
914.68	14914
914.793	14857
914.906	14674
915.019	14602
915.132	14476
915.245	14632
915.358	14613
915.47	14686
915.583	14598
915.696	14663
915.809	14724
915.921	14754
916.034	14473
916.146	14404
916.259	14377
916.371	14590
916.483	14533
916.595	14465
916.708	14442
916.82	14454
916.932	14461
917.044	14347
917.156	14434
917.268	14282
917.38	14301
917.491	14164
917.603	14339
917.715	14366
917.826	14351
917.938	14195
918.049	14077
918.161	14210
918.272	14358
918.384	14351
918.495	14237
918.606	14092
918.717	14054
918.828	14107
918.939	14126
919.05	13959
919.161	14024
919.272	13803
919.383	13944
919.494	14050
919.604	14164
919.715	14031
919.826	13928
919.936	14027
920.047	14073
920.157	14046
920.267	14195
920.378	14016
920.488	14027
920.598	14111
920.708	14320
920.818	14221
920.928	14081
921.038	14267
921.148	14237
921.258	13997
921.368	13841
921.477	13879
921.587	13818
921.697	13559
921.806	13795
921.916	13632
922.025	13426
922.134	13445
922.244	13438
922.353	13468
922.462	13301
922.571	13263
922.68	13088
922.789	13149
922.898	13160
923.007	13012
923.116	13110
923.224	13057
923.333	13076
923.442	12951
923.55	12909
923.659	12935
923.767	13019
923.876	12867
923.984	12928
924.092	12840
924.201	12837
924.309	12932
924.417	12837
924.525	12711
924.633	12806
924.741	13514
924.849	12559
924.956	12719
925.064	12566
925.172	12467
925.279	12448
925.387	12604
925.494	12532
925.602	12566
925.709	12563
925.816	12384
925.924	12429
926.031	12486
926.138	12494
926.245	12486
926.352	12327
926.459	12490
926.566	12494
926.673	12399
926.779	12216
926.886	12232
926.993	12152
927.099	12110
927.206	12015
927.312	12041
927.419	11977
927.525	12038
927.631	12148
927.737	12007
927.843	11969
927.95	11916
928.056	11882
928.162	11980
928.267	12003
928.373	12574
928.479	12030
928.585	11714
928.69	11828
928.796	11901
928.901	11863
929.007	11661
929.112	11737
929.218	11821
929.323	11722
929.428	11623
929.533	11745
929.638	11589
929.743	11642
929.848	11775
929.953	11676
930.058	11509
930.163	11433
930.267	11406
930.372	11520
930.477	11296
930.581	11547
930.685	11444
930.79	11246
930.894	11261
930.998	11239
931.103	11379
931.207	11090
931.311	10949
931.415	10869
931.519	10679
931.623	10645
