Data from test_V78500241_869.txt Node
Date: Fri Mar 25 15:15:54 CST 2022
User: usil
Spectrometer: V785-0024
Trigger mode: 0
Integration Time (sec): 4.000000E-1
Scans to average: 1
Nonlinearity correction enabled: false
Boxcar width: 0
Storing dark spectrum: false
XAxis mode: Wavelengths
Number of Pixels in Spectrum: 1024
>>>>>Begin Spectral Data<<<<<
801.071	28124
801.214	28166
801.356	27983
801.499	27911
801.641	27709
801.783	27717
801.926	27838
802.068	27808
802.211	27816
802.353	27572
802.496	27443
802.638	27466
802.78	27500
802.923	27580
803.065	27458
803.208	27287
803.35	27439
803.492	27515
803.635	27485
803.777	27405
803.919	27534
804.061	27945
804.204	27648
804.346	27591
804.488	27557
804.63	27667
804.773	27549
804.915	27789
805.057	27869
805.199	27644
805.341	27804
805.483	27682
805.626	27724
805.768	27656
805.91	27808
806.052	27736
806.194	27774
806.336	27846
806.478	27759
806.62	27873
806.762	27975
806.904	28074
807.046	28348
807.188	28253
807.33	28112
807.472	28162
807.614	28013
807.756	28150
807.898	27983
808.04	28029
808.182	28002
808.324	28029
808.465	28169
808.607	28348
808.749	28455
808.891	28512
809.033	28554
809.174	28557
809.316	28405
809.458	28421
809.6	28497
809.741	28497
809.883	28637
810.025	28748
810.166	28767
810.308	28835
810.45	28592
810.591	28664
810.733	28546
810.875	28500
811.016	28489
811.158	28280
811.299	28401
811.441	28672
811.582	28554
811.724	28504
811.865	28508
812.007	28363
812.148	28554
812.29	28538
812.431	28630
812.573	28767
812.714	28881
812.855	28938
812.997	28991
813.138	29220
813.279	29083
813.421	28995
813.562	28915
813.703	28957
813.845	28790
813.986	28481
814.127	28299
814.268	28196
814.41	28204
814.551	28173
814.692	28166
814.833	28074
814.974	28090
815.115	28215
815.256	27979
815.397	28112
815.539	28002
815.68	27926
815.821	27884
815.962	27998
816.103	27880
816.244	27888
816.385	27778
816.526	27895
816.666	27519
816.807	27568
816.948	27614
817.089	27694
817.23	27538
817.371	27511
817.512	27515
817.653	27504
817.793	27416
817.934	27545
818.075	27504
818.216	27568
818.356	27340
818.497	27351
818.638	27226
818.778	27310
818.919	27306
819.06	27237
819.2	27313
819.341	27519
819.481	27477
819.622	27603
819.762	27781
819.903	27816
820.043	27705
820.184	27633
820.324	27507
820.465	27671
820.605	27488
820.746	27690
820.886	27447
821.026	27603
821.167	27549
821.307	27671
821.447	27610
821.588	27469
821.728	27230
821.868	27066
822.008	26910
822.149	26937
822.289	26830
822.429	26659
822.569	26564
822.709	26587
822.849	26537
822.99	26530
823.13	26412
823.27	26313
823.41	26229
823.55	26199
823.69	26355
823.83	26355
823.97	26244
824.11	26092
824.25	26027
824.389	26088
824.529	26214
824.669	26180
824.809	26153
824.949	26130
825.089	26309
825.228	26202
825.368	26001
825.508	25868
825.648	25902
825.787	26096
825.927	26001
826.067	25898
826.206	25921
826.346	25925
826.485	26031
826.625	25921
826.765	26130
826.904	26096
827.044	25818
827.183	25791
827.323	25757
827.462	25731
827.601	25586
827.741	25700
827.88	25742
828.02	25601
828.159	25742
828.298	25791
828.437	25791
828.577	25609
828.716	25750
828.855	25693
828.994	25506
829.134	25381
829.273	25445
829.412	25457
829.551	25282
829.69	25453
829.829	25468
829.968	25495
830.107	25464
830.246	25358
830.385	25449
830.524	25320
830.663	25236
830.802	25141
830.941	24985
831.08	24833
831.219	25088
831.357	25080
831.496	25232
831.635	25023
831.774	25000
831.913	24863
832.051	24852
832.19	24783
832.329	24920
832.467	24783
832.606	24684
832.744	24700
832.883	24806
833.022	24665
833.16	24791
833.299	24749
833.437	24795
833.576	24764
833.714	24734
833.852	24734
833.991	24821
834.129	24867
834.267	24764
834.406	24905
834.544	24688
834.682	24700
834.821	24677
834.959	24856
835.097	24673
835.235	24684
835.373	24715
835.511	24707
835.65	24639
835.788	24681
835.926	24426
836.064	24525
836.202	24452
836.34	24585
836.478	24730
836.615	24540
836.753	24582
836.891	24623
837.029	24604
837.167	24418
837.305	24525
837.443	24570
837.58	24528
837.718	24654
837.856	24494
837.993	24403
838.131	24254
838.269	24315
838.406	24292
838.544	24194
838.681	24026
838.819	24018
838.956	23901
839.094	24026
839.231	23855
839.369	24106
839.506	24182
839.643	24114
839.781	23828
839.918	23920
840.055	23889
840.193	23859
840.33	23836
840.467	23866
840.604	23920
840.742	24102
840.879	23767
841.016	23726
841.153	23847
841.29	23901
841.427	23866
841.564	23771
841.701	23752
841.838	23691
841.975	23566
842.112	23680
842.249	23577
842.385	23573
842.522	23684
842.659	23562
842.796	23444
842.933	23756
843.069	23509
843.206	23459
843.343	23471
843.479	23554
843.616	23493
843.752	23265
843.889	23417
844.025	23459
844.162	23288
844.298	23543
844.435	23444
844.571	23296
844.708	23425
844.844	23482
844.98	23455
845.117	23497
845.253	23220
845.389	23159
845.525	23162
845.661	23151
845.798	23029
845.934	23075
846.07	23025
846.206	23037
846.342	23178
846.478	23060
846.614	22843
846.75	22736
846.886	22771
847.022	22869
847.158	22835
847.294	22843
847.429	22854
847.565	22763
847.701	22911
847.837	22561
847.972	22481
848.108	22497
848.244	22573
848.379	22531
848.515	22390
848.65	22493
848.786	22382
848.921	22337
849.057	22478
849.192	22428
849.328	22421
849.463	22341
849.598	22333
849.734	22249
849.869	22337
850.004	22109
850.14	22032
850.275	22116
850.41	22074
850.545	22101
850.68	21983
850.815	22223
850.95	22154
851.085	22352
851.22	22169
851.355	22177
851.49	22086
851.625	22063
851.76	22128
851.895	22025
852.03	22120
852.165	22090
852.299	22207
852.434	22230
852.569	22116
852.703	22131
852.838	22276
852.973	22287
853.107	22310
853.242	21972
853.376	21991
853.511	21812
853.645	21827
853.78	22074
853.914	22010
854.048	21953
854.183	21953
854.317	21907
854.451	22150
854.585	21975
854.72	21930
854.854	22055
854.988	21922
855.122	21937
855.256	21865
855.39	21922
855.524	21937
855.658	22063
855.792	21915
855.926	21960
856.06	22002
856.194	21934
856.327	21975
856.461	21960
856.595	21846
856.729	21956
856.862	22017
856.996	21975
857.13	21888
857.263	21968
857.397	22074
857.53	21854
857.664	21895
857.797	22029
857.931	22135
858.064	21960
858.197	22116
858.331	21899
858.464	21823
858.597	21797
858.731	21819
858.864	21941
858.997	21873
859.13	21987
859.263	21892
859.396	22040
859.529	21831
859.662	21838
859.795	21930
859.928	21968
860.061	22093
860.194	22150
860.327	22010
860.46	21888
860.592	22044
860.725	22230
860.858	21991
860.99	21945
861.123	21934
861.256	21960
861.388	22051
861.521	22778
861.653	21797
861.786	21751
861.918	21800
862.05	21876
862.183	21869
862.315	21816
862.447	21968
862.58	21865
862.712	21713
862.844	21641
862.976	21724
863.108	21800
863.24	22105
863.372	21500
863.504	21568
863.636	21637
863.768	21622
863.9	21629
864.032	21530
864.164	21644
864.296	21679
864.428	21774
864.559	21762
864.691	21797
864.823	21576
864.954	21660
865.086	21610
865.217	21622
865.349	21477
865.48	21530
865.612	21549
865.743	21538
865.875	21595
866.006	21500
866.137	21568
866.269	21519
866.4	21507
866.531	21469
866.662	21462
866.793	21431
866.924	21458
867.055	21450
867.186	21450
867.317	21389
867.448	21302
867.579	21504
867.71	21389
867.841	21386
867.972	21492
868.103	21500
868.233	21458
868.364	21428
868.495	21515
868.625	21732
868.756	21895
868.886	21713
869.017	21671
869.147	21743
869.278	21850
869.408	21614
869.539	21610
869.669	21701
869.799	21789
869.929	21785
870.06	21793
870.19	21998
870.32	22055
870.45	22150
870.58	22090
870.71	22284
870.84	22112
870.97	22135
871.1	22128
871.23	22257
871.36	22382
871.489	22086
871.619	22295
871.749	22181
871.879	22299
872.008	22363
872.138	22306
872.267	22272
872.397	22150
872.526	22051
872.656	22109
872.785	22116
872.915	22341
873.044	22447
873.173	22386
873.303	22405
873.432	22402
873.561	22276
873.69	22386
873.819	22306
873.948	22405
874.077	22356
874.206	22341
874.335	22299
874.464	22379
874.593	22459
874.722	22447
874.851	22599
874.979	22592
875.108	22622
875.237	22428
875.365	22405
875.494	22462
875.623	22504
875.751	22417
875.88	22550
876.008	22557
876.136	22691
876.265	22763
876.393	22938
876.521	22812
876.65	23003
876.778	22908
876.906	22843
877.034	22908
877.162	22953
877.29	22805
877.418	22915
877.546	22919
877.674	22839
877.802	22866
877.93	22930
878.058	22900
878.185	22599
878.313	22755
878.441	22854
878.568	22740
878.696	22831
878.824	22881
878.951	22896
879.079	23010
879.206	23060
879.333	23006
879.461	22843
879.588	22850
879.715	22957
879.842	23102
879.97	22892
880.097	22736
880.224	22687
880.351	22755
880.478	22691
880.605	22744
880.732	22740
880.859	22980
880.986	22702
881.112	22736
881.239	22504
881.366	22550
881.493	22341
881.619	22272
881.746	22303
881.872	22268
881.999	22185
882.125	22059
882.252	22200
882.378	22249
882.505	22325
882.631	22147
882.757	22021
882.883	21998
883.01	21895
883.136	21876
883.262	21838
883.388	21827
883.514	21941
883.64	21861
883.766	21743
883.892	21732
884.018	21717
884.143	21934
884.269	21835
884.395	21686
884.52	21572
884.646	21690
884.772	21553
884.897	21473
885.023	21576
885.148	21587
885.274	21857
885.399	21698
885.524	21545
885.65	21519
885.775	21618
885.9	21610
886.025	21618
886.15	21667
886.275	21511
886.4	21469
886.525	21599
886.65	21500
886.775	21500
886.9	21667
887.025	21690
887.149	21500
887.274	21454
887.399	21367
887.523	21382
887.648	21207
887.773	21256
887.897	21424
888.021	21291
888.146	21344
888.27	21447
888.395	21397
888.519	21249
888.643	21348
888.767	21325
888.891	21237
889.015	21108
889.139	21173
889.263	21211
889.387	21226
889.511	21298
889.635	21249
889.759	21180
889.883	21138
890.006	21184
890.13	21230
890.254	20929
890.377	21032
890.501	20819
890.624	20826
890.748	20956
890.871	20788
890.995	20769
891.118	20686
891.241	20807
891.364	20762
891.488	20819
891.611	20644
891.734	20708
891.857	20800
891.98	20716
892.103	20807
892.226	20727
892.349	20648
892.471	20446
892.594	20625
892.717	20705
892.839	20655
892.962	20571
893.085	20750
893.207	20484
893.33	20613
893.452	20507
893.575	20659
893.697	20549
893.819	20762
893.941	20689
894.064	20781
894.186	20442
894.308	20533
894.43	20735
894.552	20792
894.674	20640
894.796	20431
894.918	20446
895.04	20404
895.161	20712
895.283	20693
895.405	20499
895.526	20606
895.648	20549
895.769	20571
895.891	20598
896.012	20651
896.134	20640
896.255	20571
896.376	20552
896.498	20613
896.619	20488
896.74	20617
896.861	20613
896.982	20948
897.103	21036
897.224	20792
897.345	20712
897.466	20705
897.587	20845
897.708	20906
897.828	20857
897.949	20792
898.07	20651
898.19	20807
898.311	20883
898.431	20765
898.552	20724
898.672	20876
898.792	20670
898.913	20735
899.033	20689
899.153	20541
899.273	20613
899.393	20492
899.513	20537
899.633	20648
899.753	20511
899.873	20427
899.993	20526
900.113	20419
900.232	20514
900.352	20366
900.472	20385
900.591	20259
900.711	20298
900.83	20168
900.95	20465
901.069	20415
901.189	20290
901.308	19997
901.427	19864
901.546	19917
901.665	19890
901.784	19845
901.904	19803
902.023	19715
902.141	19441
902.26	19449
902.379	19388
902.498	19396
902.617	19301
902.735	19335
902.854	19362
902.973	19282
903.091	19118
903.21	18985
903.328	19152
903.446	19027
903.565	18837
903.683	18741
903.801	18696
903.919	18859
904.038	18749
904.156	18608
904.274	18631
904.392	18654
904.51	18642
904.627	18608
904.745	18760
904.863	18627
904.981	18391
905.098	18308
905.216	18361
905.334	18353
905.451	18213
905.569	18152
905.686	18262
905.803	18296
905.921	18087
906.038	18152
906.155	18041
906.272	17984
906.389	17908
906.506	17805
906.623	17699
906.74	17790
906.857	17703
906.974	17691
907.091	17764
907.208	17988
907.324	17863
907.441	17710
907.557	17444
907.674	17630
907.79	17554
907.907	17440
908.023	17528
908.139	17543
908.256	17547
908.372	17440
908.488	17395
908.604	17398
908.72	17212
908.836	17189
908.952	17227
909.068	17261
909.184	17402
909.3	17193
909.415	17265
909.531	17246
909.647	16862
909.762	16957
909.878	17037
909.993	16968
910.108	16934
910.224	16908
910.339	16850
910.454	16866
910.57	16702
910.685	16744
910.8	16866
910.915	16908
911.03	16729
911.145	16538
911.259	16462
911.374	16508
911.489	16508
911.604	16348
911.718	16303
911.833	16322
911.947	16211
912.062	16120
912.176	16223
912.291	16265
912.405	16234
912.519	16508
912.633	16459
912.748	16306
912.862	16257
912.976	16063
913.09	15972
913.204	16036
913.318	16067
913.431	16249
913.545	16147
913.659	16101
913.772	16048
913.886	15873
914	15861
914.113	15987
914.226	16059
914.34	15941
914.453	15739
914.566	15903
914.68	15804
914.793	15705
914.906	15557
915.019	15500
915.132	15500
915.245	15420
915.358	15538
915.47	15477
915.583	15553
915.696	15408
915.809	15633
915.921	15549
916.034	15386
916.146	15351
916.259	15275
916.371	15283
916.483	15332
916.595	15336
916.708	15298
916.82	15260
916.932	15207
917.044	15283
917.156	15203
917.268	15169
917.38	15184
917.491	15097
917.603	15116
917.715	15157
917.826	15142
917.938	15013
918.049	14948
918.161	15066
918.272	15245
918.384	15306
918.495	15089
918.606	14971
918.717	14941
918.828	14891
918.939	14845
919.05	14743
919.161	14689
919.272	14705
919.383	14720
919.494	14906
919.604	14982
919.715	14807
919.826	14785
919.936	14838
920.047	14868
920.157	14823
920.267	14941
920.378	14845
920.488	14796
920.598	14952
920.708	15081
920.818	14921
920.928	14918
921.038	15085
921.148	15043
921.258	14769
921.368	14663
921.477	14533
921.587	14526
921.697	14404
921.806	14450
921.916	14385
922.025	14256
922.134	14248
922.244	14103
922.353	14145
922.462	14043
922.571	14001
922.68	13898
922.789	13841
922.898	13731
923.007	13757
923.116	13750
923.224	13803
923.333	13795
923.442	13620
923.55	13723
923.659	13655
923.767	13696
923.876	13620
923.984	13681
924.092	13563
924.201	13685
924.309	13533
924.417	13529
924.525	13483
924.633	13499
924.741	14229
924.849	13289
924.956	13335
925.064	13225
925.172	13160
925.279	13247
925.387	13236
925.494	13213
925.602	13263
925.709	13339
925.816	13168
925.924	13171
926.031	13236
926.138	13076
926.245	13190
926.352	13012
926.459	13206
926.566	13206
926.673	13061
926.779	13042
926.886	12909
926.993	12707
927.099	12776
927.206	12738
927.312	12764
927.419	12844
927.525	12814
927.631	12791
927.737	12616
927.843	12623
927.95	12486
928.056	12601
928.162	12589
928.267	12532
928.373	13221
928.479	12677
928.585	12418
928.69	12566
928.796	12528
928.901	12498
929.007	12300
929.112	12506
929.218	12456
929.323	12357
929.428	12277
929.533	12399
929.638	12224
929.743	12277
929.848	12285
929.953	12186
930.058	12163
930.163	11996
930.267	11996
930.372	12121
930.477	11904
930.581	12140
930.685	12140
930.79	11893
930.894	11870
930.998	11828
931.103	11901
931.207	11646
931.311	11577
931.415	11463
931.519	11235
931.623	11250
