Data from test_V78500241_3266.txt Node
Date: Fri Mar 25 15:32:36 CST 2022
User: usil
Spectrometer: V785-0024
Trigger mode: 0
Integration Time (sec): 4.000000E-1
Scans to average: 1
Nonlinearity correction enabled: false
Boxcar width: 0
Storing dark spectrum: false
XAxis mode: Wavelengths
Number of Pixels in Spectrum: 1024
>>>>>Begin Spectral Data<<<<<
801.071	27192
801.214	27310
801.356	27093
801.499	27005
801.641	26823
801.783	26887
801.926	26963
802.068	26933
802.211	26785
802.353	26804
802.496	26549
802.638	26533
802.78	26393
802.923	26324
803.065	26313
803.208	26453
803.35	26423
803.492	26617
803.635	26655
803.777	26594
803.919	26674
804.061	26952
804.204	26579
804.346	26511
804.488	26575
804.63	26640
804.773	26625
804.915	26598
805.057	26705
805.199	26575
805.341	26670
805.483	26785
805.626	26678
805.768	26621
805.91	26708
806.052	26804
806.194	26678
806.336	26914
806.478	26659
806.62	26686
806.762	26788
806.904	26906
807.046	27226
807.188	27291
807.33	27203
807.472	27226
807.614	27070
807.756	27245
807.898	27062
808.04	26937
808.182	26975
808.324	27024
808.465	27039
808.607	27150
808.749	27321
808.891	27401
809.033	27416
809.174	27454
809.316	27298
809.458	27268
809.6	27214
809.741	27332
809.883	27386
810.025	27515
810.166	27496
810.308	27564
810.45	27576
810.591	27511
810.733	27393
810.875	27260
811.016	27241
811.158	27355
811.299	27526
811.441	27481
811.582	27443
811.724	27355
811.865	27420
812.007	27313
812.148	27306
812.29	27370
812.431	27553
812.573	27671
812.714	27838
812.855	27690
812.997	27888
813.138	28063
813.279	27838
813.421	27922
813.562	27766
813.703	27606
813.845	27454
813.986	27260
814.127	27036
814.268	27055
814.41	26956
814.551	26990
814.692	27161
814.833	26876
814.974	26960
815.115	26979
815.256	26906
815.397	26819
815.539	26735
815.68	26823
815.821	26629
815.962	26781
816.103	26613
816.244	26533
816.385	26511
816.526	26556
816.666	26393
816.807	26210
816.948	26320
817.089	26301
817.23	26263
817.371	26130
817.512	26183
817.653	26202
817.793	26275
817.934	26202
818.075	26332
818.216	26256
818.356	26191
818.497	26187
818.638	26119
818.778	26031
818.919	26001
819.06	26062
819.2	26145
819.341	26206
819.481	26172
819.622	26374
819.762	26629
819.903	26488
820.043	26351
820.184	26347
820.324	26358
820.465	26317
820.605	26343
820.746	26351
820.886	26138
821.026	26237
821.167	26271
821.307	26370
821.447	26161
821.588	26180
821.728	25974
821.868	25830
822.008	25582
822.149	25746
822.289	25628
822.429	25529
822.569	25350
822.709	25407
822.849	25324
822.99	25148
823.13	25304
823.27	25198
823.41	25103
823.55	24802
823.69	25015
823.83	25095
823.97	24916
824.11	24852
824.25	24749
824.389	24821
824.529	25027
824.669	24810
824.809	24871
824.949	24901
825.089	24859
825.228	24943
825.368	24852
825.508	24669
825.648	24684
825.787	24764
825.927	24772
826.067	24707
826.206	24738
826.346	24886
826.485	24757
826.625	24852
826.765	24859
826.904	24738
827.044	24650
827.183	24551
827.323	24369
827.462	24517
827.601	24437
827.741	24388
827.88	24460
828.02	24334
828.159	24365
828.298	24574
828.437	24578
828.577	24334
828.716	24490
828.855	24410
828.994	24178
829.134	24163
829.273	24106
829.412	24152
829.551	24136
829.69	24232
829.829	24247
829.968	24300
830.107	24273
830.246	24254
830.385	24171
830.524	24121
830.663	24022
830.802	23855
830.941	23824
831.08	23783
831.219	23870
831.357	23874
831.496	24011
831.635	23794
831.774	23714
831.913	23726
832.051	23668
832.19	23581
832.329	23581
832.467	23512
832.606	23406
832.744	23406
832.883	23577
833.022	23406
833.16	23398
833.299	23376
833.437	23547
833.576	23505
833.714	23577
833.852	23531
833.991	23634
834.129	23493
834.267	23623
834.406	23668
834.544	23570
834.682	23467
834.821	23474
834.959	23714
835.097	23520
835.235	23623
835.373	23551
835.511	23490
835.65	23440
835.788	23414
835.926	23231
836.064	23155
836.202	23242
836.34	23379
836.478	23493
836.615	23334
836.753	23554
836.891	23474
837.029	23307
837.167	23330
837.305	23299
837.443	23227
837.58	23181
837.718	23387
837.856	23155
837.993	23162
838.131	23223
838.269	23067
838.406	23189
838.544	23067
838.681	22740
838.819	22820
838.956	22656
839.094	22679
839.231	22748
839.369	22900
839.506	23071
839.643	22923
839.781	22630
839.918	22649
840.055	22733
840.193	22607
840.33	22675
840.467	22725
840.604	22694
840.742	23003
840.879	22569
841.016	22584
841.153	22592
841.29	22759
841.427	22580
841.564	22744
841.701	22573
841.838	22478
841.975	22485
842.112	22485
842.249	22447
842.385	22417
842.522	22694
842.659	22470
842.796	22417
842.933	22493
843.069	22207
843.206	22329
843.343	22424
843.479	22363
843.616	22470
843.752	22211
843.889	22181
844.025	22238
844.162	22078
844.298	22276
844.435	22086
844.571	22090
844.708	22291
844.844	22246
844.98	22242
845.117	22272
845.253	22154
845.389	22002
845.525	22048
845.661	22006
845.798	21857
845.934	21987
846.07	21907
846.206	21922
846.342	22055
846.478	21888
846.614	21797
846.75	21587
846.886	21633
847.022	21724
847.158	21736
847.294	21610
847.429	21667
847.565	21519
847.701	21797
847.837	21378
847.972	21431
848.108	21458
848.244	21336
848.379	21374
848.515	21275
848.65	21207
848.786	21298
848.921	21279
849.057	21180
849.192	21389
849.328	21298
849.463	21298
849.598	21146
849.734	21161
849.869	21104
850.004	20956
850.14	21024
850.275	20960
850.41	20963
850.545	21024
850.68	20823
850.815	21058
850.95	21077
851.085	21150
851.22	21108
851.355	20982
851.49	20956
851.625	21043
851.76	21028
851.895	20998
852.03	21062
852.165	20933
852.299	21001
852.434	21154
852.569	21058
852.703	20960
852.838	21142
852.973	21146
853.107	21039
853.242	21058
853.376	20830
853.511	20674
853.645	20777
853.78	20979
853.914	20765
854.048	20788
854.183	20731
854.317	20819
854.451	20952
854.585	20788
854.72	20830
854.854	20944
854.988	20853
855.122	20807
855.256	20743
855.39	20857
855.524	20895
855.658	20857
855.792	20914
855.926	20880
856.06	20830
856.194	20819
856.327	20758
856.461	20762
856.595	20800
856.729	20689
856.862	20857
856.996	20830
857.13	20883
857.263	20853
857.397	20948
857.53	20834
857.664	20811
857.797	21009
857.931	21005
858.064	20769
858.197	21009
858.331	20880
858.464	20712
858.597	20682
858.731	20830
858.864	20754
858.997	20826
859.13	20899
859.263	20804
859.396	20925
859.529	20853
859.662	20750
859.795	20781
859.928	20910
860.061	20952
860.194	20956
860.327	20979
860.46	20762
860.592	21001
860.725	21093
860.858	20979
860.99	20842
861.123	20689
861.256	20693
861.388	20925
861.521	21397
861.653	20773
861.786	20636
861.918	20514
862.05	20693
862.183	20701
862.315	20743
862.447	20876
862.58	20743
862.712	20598
862.844	20651
862.976	20640
863.108	20587
863.24	20880
863.372	20434
863.504	20549
863.636	20549
863.768	20545
863.9	20503
864.032	20454
864.164	20518
864.296	20484
864.428	20648
864.559	20541
864.691	20609
864.823	20625
864.954	20480
865.086	20549
865.217	20446
865.349	20336
865.48	20461
865.612	20415
865.743	20575
865.875	20492
866.006	20377
866.137	20423
866.269	20507
866.4	20412
866.531	20271
866.662	20446
866.793	20328
866.924	20423
867.055	20404
867.186	20377
867.317	20396
867.448	20351
867.579	20275
867.71	20259
867.841	20298
867.972	20286
868.103	20400
868.233	20495
868.364	20457
868.495	20556
868.625	20644
868.756	20644
868.886	20549
869.017	20663
869.147	20727
869.278	20724
869.408	20667
869.539	20663
869.669	20640
869.799	20697
869.929	20758
870.06	20773
870.19	21020
870.32	20975
870.45	20990
870.58	20994
870.71	21051
870.84	21180
870.97	21032
871.1	21055
871.23	21195
871.36	21256
871.489	21203
871.619	21161
871.749	21154
871.879	21237
872.008	21393
872.138	21214
872.267	21260
872.397	21081
872.526	21104
872.656	21058
872.785	21036
872.915	21294
873.044	21382
873.173	21310
873.303	21283
873.432	21245
873.561	21367
873.69	21291
873.819	21275
873.948	21268
874.077	21279
874.206	21176
874.335	21230
874.464	21367
874.593	21492
874.722	21340
874.851	21591
874.979	21561
875.108	21538
875.237	21485
875.365	21466
875.494	21454
875.623	21534
875.751	21435
875.88	21473
876.008	21648
876.136	21701
876.265	21945
876.393	21994
876.521	21972
876.65	22036
876.778	21956
876.906	21930
877.034	21766
877.162	21888
877.29	21835
877.418	21819
877.546	21972
877.674	21842
877.802	21949
877.93	21747
878.058	21895
878.185	21675
878.313	21842
878.441	21953
878.568	21751
878.696	21762
878.824	21781
878.951	21987
879.079	21991
879.206	22185
879.333	22059
879.461	21930
879.588	22101
879.715	21968
879.842	22097
879.97	21816
880.097	21690
880.224	21660
880.351	21686
880.478	21679
880.605	21724
880.732	21637
880.859	21964
880.986	21690
881.112	21549
881.239	21553
881.366	21420
881.493	21378
881.619	21237
881.746	21389
881.872	21207
881.999	21241
882.125	21070
882.252	21207
882.378	21195
882.505	21214
882.631	21165
882.757	21005
882.883	20979
883.01	20853
883.136	20864
883.262	20963
883.388	20891
883.514	20933
883.64	20979
883.766	20826
883.892	20777
884.018	20823
884.143	20952
884.269	20971
884.395	20735
884.52	20541
884.646	20724
884.772	20495
884.897	20556
885.023	20663
885.148	20644
885.274	20762
885.399	20583
885.524	20598
885.65	20629
885.775	20583
885.9	20560
886.025	20769
886.15	20564
886.275	20503
886.4	20499
886.525	20693
886.65	20533
886.775	20511
886.9	20724
887.025	20712
887.149	20533
887.274	20370
887.399	20434
887.523	20282
887.648	20256
887.773	20290
887.897	20518
888.021	20362
888.146	20434
888.27	20374
888.395	20495
888.519	20374
888.643	20294
888.767	20370
888.891	20271
889.015	20298
889.139	20290
889.263	20157
889.387	20290
889.511	20381
889.635	20294
889.759	20145
889.883	20172
890.006	20275
890.13	20324
890.254	20062
890.377	20122
890.501	20001
890.624	19864
890.748	19951
890.871	19845
890.995	19719
891.118	19651
891.241	19757
891.364	19753
891.488	19750
891.611	19723
891.734	19769
891.857	19864
891.98	19753
892.103	19849
892.226	19826
892.349	19712
892.471	19582
892.594	19712
892.717	19761
892.839	19734
892.962	19685
893.085	19791
893.207	19662
893.33	19662
893.452	19738
893.575	19738
893.697	19662
893.819	19875
893.941	19780
894.064	19818
894.186	19590
894.308	19734
894.43	19757
894.552	19833
894.674	19712
894.796	19704
894.918	19635
895.04	19651
895.161	19803
895.283	19784
895.405	19632
895.526	19632
895.648	19662
895.769	19616
895.891	19738
896.012	19803
896.134	19712
896.255	19731
896.376	19635
896.498	19662
896.619	19696
896.74	19765
896.861	19723
896.982	19993
897.103	20218
897.224	20001
897.345	19913
897.466	19788
897.587	19883
897.708	19959
897.828	20069
897.949	19883
898.07	19719
898.19	19940
898.311	19875
898.431	19940
898.552	19879
898.672	19883
898.792	20020
898.913	19997
899.033	19837
899.153	19814
899.273	19632
899.393	19761
899.513	19731
899.633	19693
899.753	19738
899.873	19609
899.993	19674
900.113	19529
900.232	19700
900.352	19453
900.472	19506
900.591	19460
900.711	19514
900.83	19377
900.95	19518
901.069	19464
901.189	19324
901.308	19194
901.427	18958
901.546	19015
901.665	19095
901.784	18928
901.904	18909
902.023	18795
902.141	18692
902.26	18627
902.379	18620
902.498	18589
902.617	18551
902.735	18593
902.854	18441
902.973	18376
903.091	18235
903.21	18239
903.328	18140
903.446	18186
903.565	18011
903.683	18041
903.801	18015
903.919	18038
904.038	17954
904.156	17798
904.274	17882
904.392	17805
904.51	17809
904.627	17729
904.745	17821
904.863	17802
904.981	17448
905.098	17532
905.216	17535
905.334	17535
905.451	17444
905.569	17520
905.686	17528
905.803	17486
905.921	17220
906.038	17501
906.155	17349
906.272	17185
906.389	17121
906.506	17025
906.623	17071
906.74	16995
906.857	16900
906.974	16984
907.091	17060
907.208	17045
907.324	17029
907.441	16953
907.557	16759
907.674	16801
907.79	16618
907.907	16721
908.023	16679
908.139	16664
908.256	16733
908.372	16653
908.488	16508
908.604	16432
908.72	16535
908.836	16512
908.952	16436
909.068	16390
909.184	16523
909.3	16405
909.415	16500
909.531	16363
909.647	16128
909.762	16147
909.878	16196
909.993	16143
910.108	16204
910.224	16131
910.339	16067
910.454	16059
910.57	15979
910.685	15941
910.8	16192
910.915	16211
911.03	15945
911.145	15804
911.259	15781
911.374	15736
911.489	15671
911.604	15606
911.718	15584
911.833	15568
911.947	15435
912.062	15325
912.176	15599
912.291	15462
912.405	15462
912.519	15728
912.633	15713
912.748	15511
912.862	15450
912.976	15405
913.09	15222
913.204	15222
913.318	15306
913.431	15408
913.545	15408
913.659	15443
913.772	15378
913.886	15192
914	15032
914.113	15268
914.226	15272
914.34	15294
914.453	15047
914.566	15131
914.68	15028
914.793	14929
914.906	14815
915.019	14678
915.132	14754
915.245	14724
915.358	14792
915.47	14743
915.583	14731
915.696	14731
915.809	14975
915.921	14895
916.034	14697
916.146	14625
916.259	14655
916.371	14758
916.483	14743
916.595	14598
916.708	14648
916.82	14564
916.932	14549
917.044	14457
917.156	14526
917.268	14438
917.38	14438
917.491	14419
917.603	14446
917.715	14469
917.826	14594
917.938	14339
918.049	14202
918.161	14366
918.272	14610
918.384	14469
918.495	14385
918.606	14343
918.717	14142
918.828	14168
918.939	14210
919.05	14111
919.161	14153
919.272	13913
919.383	14123
919.494	14259
919.604	14442
919.715	14153
919.826	14065
919.936	14054
920.047	14202
920.157	14252
920.267	14434
920.378	14096
920.488	14180
920.598	14370
920.708	14423
920.818	14259
920.928	14317
921.038	14457
921.148	14427
921.258	14191
921.368	13993
921.477	13955
921.587	13826
921.697	13803
921.806	13856
921.916	13704
922.025	13601
922.134	13537
922.244	13540
922.353	13613
922.462	13529
922.571	13441
922.68	13244
922.789	13247
922.898	13225
923.007	13187
923.116	13259
923.224	13247
923.333	13194
923.442	13084
923.55	13053
923.659	13050
923.767	13126
923.876	13118
923.984	13038
924.092	12958
924.201	12985
924.309	13015
924.417	13057
924.525	12909
924.633	12856
924.741	13978
924.849	12707
924.956	12863
925.064	12722
925.172	12703
925.279	12627
925.387	12692
925.494	12654
925.602	12802
925.709	12753
925.816	12612
925.924	12730
926.031	12726
926.138	12681
926.245	12696
926.352	12566
926.459	12635
926.566	12673
926.673	12559
926.779	12441
926.886	12433
926.993	12464
927.099	12197
927.206	12197
927.312	12239
927.419	12311
927.525	12296
927.631	12319
927.737	12190
927.843	12182
927.95	12030
928.056	12091
928.162	12114
928.267	12232
928.373	12730
928.479	12194
928.585	11897
928.69	12060
928.796	12106
928.901	12030
929.007	11760
929.112	11893
929.218	11813
929.323	11908
929.428	11798
929.533	11935
929.638	11756
929.743	11771
929.848	11805
929.953	11703
930.058	11703
930.163	11486
930.267	11554
930.372	11646
930.477	11452
930.581	11615
930.685	11497
930.79	11395
930.894	11414
930.998	11376
931.103	11535
931.207	11113
931.311	11079
931.415	10946
931.519	10771
931.623	10759
