Data from test_V78500241_1481.txt Node
Date: Fri Mar 25 15:20:10 CST 2022
User: usil
Spectrometer: V785-0024
Trigger mode: 0
Integration Time (sec): 4.000000E-1
Scans to average: 1
Nonlinearity correction enabled: false
Boxcar width: 0
Storing dark spectrum: false
XAxis mode: Wavelengths
Number of Pixels in Spectrum: 1024
>>>>>Begin Spectral Data<<<<<
801.071	28128
801.214	28048
801.356	27747
801.499	27625
801.641	27561
801.783	27595
801.926	27800
802.068	27542
802.211	27633
802.353	27507
802.496	27249
802.638	27332
802.78	27230
802.923	27108
803.065	27135
803.208	27207
803.35	27188
803.492	27306
803.635	27389
803.777	27192
803.919	27424
804.061	27766
804.204	27557
804.346	27462
804.488	27264
804.63	27378
804.773	27287
804.915	27496
805.057	27549
805.199	27416
805.341	27466
805.483	27660
805.626	27511
805.768	27405
805.91	27656
806.052	27538
806.194	27412
806.336	27633
806.478	27663
806.62	27572
806.762	27629
806.904	27778
807.046	27956
807.188	28055
807.33	27956
807.472	27979
807.614	27816
807.756	28002
807.898	27736
808.04	27781
808.182	27709
808.324	27857
808.465	27873
808.607	28090
808.749	28124
808.891	28215
809.033	28466
809.174	28314
809.316	28268
809.458	28101
809.6	28246
809.741	28257
809.883	28341
810.025	28421
810.166	28409
810.308	28478
810.45	28447
810.591	28265
810.733	28162
810.875	28169
811.016	28124
811.158	27888
811.299	28257
811.441	28314
811.582	28348
811.724	28333
811.865	28196
812.007	28272
812.148	28211
812.29	28211
812.431	28413
812.573	28580
812.714	28649
812.855	28736
812.997	28831
813.138	29029
813.279	28888
813.421	28820
813.562	28736
813.703	28333
813.845	28382
813.986	28158
814.127	28059
814.268	27865
814.41	27899
814.551	27922
814.692	27926
814.833	27873
814.974	28021
815.115	27880
815.256	27739
815.397	27755
815.539	27800
815.68	27736
815.821	27618
815.962	27679
816.103	27720
816.244	27534
816.385	27488
816.526	27443
816.666	27336
816.807	27260
816.948	27214
817.089	27214
817.23	27180
817.371	27173
817.512	27230
817.653	27252
817.793	27081
817.934	27154
818.075	27279
818.216	27218
818.356	27268
818.497	26975
818.638	26823
818.778	26994
818.919	26956
819.06	26872
819.2	27127
819.341	27135
819.481	27188
819.622	27283
819.762	27538
819.903	27458
820.043	27256
820.184	27226
820.324	27226
820.465	27420
820.605	27192
820.746	27344
820.886	27233
821.026	27195
821.167	27222
821.307	27241
821.447	27237
821.588	27131
821.728	26940
821.868	26701
822.008	26773
822.149	26476
822.289	26568
822.429	26218
822.569	26419
822.709	26271
822.849	26183
822.99	26153
823.13	26058
823.27	26043
823.41	25951
823.55	25963
823.69	26005
823.83	26031
823.97	26073
824.11	25757
824.25	25826
824.389	25807
824.529	25871
824.669	25818
824.809	25883
824.949	25921
825.089	25970
825.228	25780
825.368	25616
825.508	25693
825.648	25784
825.787	25784
825.927	25689
826.067	25712
826.206	25746
826.346	25742
826.485	25723
826.625	25742
826.765	25788
826.904	25746
827.044	25373
827.183	25525
827.323	25377
827.462	25510
827.601	25392
827.741	25259
827.88	25491
828.02	25236
828.159	25350
828.298	25411
828.437	25472
828.577	25369
828.716	25548
828.855	25289
828.994	25076
829.134	25103
829.273	25141
829.412	25107
829.551	25061
829.69	25091
829.829	25164
829.968	25251
830.107	25198
830.246	25251
830.385	25015
830.524	25107
830.663	25000
830.802	24791
830.941	24582
831.08	24646
831.219	24833
831.357	24650
831.496	24954
831.635	24719
831.774	24513
831.913	24654
832.051	24593
832.19	24456
832.329	24601
832.467	24365
832.606	24369
832.744	24311
832.883	24388
833.022	24232
833.16	24350
833.299	24384
833.437	24407
833.576	24407
833.714	24494
833.852	24448
833.991	24544
834.129	24464
834.267	24441
834.406	24418
834.544	24525
834.682	24422
834.821	24418
834.959	24620
835.097	24315
835.235	24490
835.373	24350
835.511	24433
835.65	24140
835.788	24239
835.926	24060
836.064	24114
836.202	24125
836.34	24273
836.478	24174
836.615	24228
836.753	24178
836.891	24273
837.029	24270
837.167	24216
837.305	24136
837.443	23996
837.58	23965
837.718	24098
837.856	24011
837.993	23950
838.131	23992
838.269	23817
838.406	24007
838.544	23874
838.681	23726
838.819	23775
838.956	23608
839.094	23512
839.231	23676
839.369	23752
839.506	23916
839.643	23901
839.781	23566
839.918	23486
840.055	23509
840.193	23471
840.33	23368
840.467	23547
840.604	23440
840.742	23657
840.879	23436
841.016	23417
841.153	23349
841.29	23528
841.427	23452
841.564	23524
841.701	23452
841.838	23345
841.975	23417
842.112	23296
842.249	23200
842.385	23261
842.522	23455
842.659	23288
842.796	23147
842.933	23307
843.069	23083
843.206	23208
843.343	23170
843.479	23147
843.616	23231
843.752	22953
843.889	23052
844.025	23113
844.162	23033
844.298	23102
844.435	22984
844.571	22927
844.708	22934
844.844	23132
844.98	23060
845.117	23128
845.253	22908
845.389	22873
845.525	22805
845.661	22801
845.798	22622
845.934	22892
846.07	22672
846.206	22675
846.342	22801
846.478	22660
846.614	22599
846.75	22268
846.886	22500
847.022	22656
847.158	22455
847.294	22394
847.429	22485
847.565	22459
847.701	22812
847.837	22051
847.972	22192
848.108	22200
848.244	22211
848.379	21998
848.515	22090
848.65	22059
848.786	22120
848.921	21987
849.057	22173
849.192	22090
849.328	22040
849.463	22006
849.598	21956
849.734	21907
849.869	21842
850.004	21941
850.14	21762
850.275	21751
850.41	21705
850.545	21774
850.68	21698
850.815	21781
850.95	21770
851.085	22032
851.22	21812
851.355	21850
851.49	21709
851.625	21694
851.76	21682
851.895	21789
852.03	21591
852.165	21842
852.299	21903
852.434	21861
852.569	21865
852.703	21797
852.838	21797
852.973	21876
853.107	21911
853.242	21789
853.376	21591
853.511	21496
853.645	21633
853.78	21743
853.914	21644
854.048	21507
854.183	21568
854.317	21660
854.451	21827
854.585	21618
854.72	21622
854.854	21747
854.988	21583
855.122	21591
855.256	21386
855.39	21561
855.524	21610
855.658	21686
855.792	21614
855.926	21587
856.06	21694
856.194	21819
856.327	21553
856.461	21485
856.595	21591
856.729	21595
856.862	21717
856.996	21671
857.13	21720
857.263	21660
857.397	21717
857.53	21759
857.664	21595
857.797	21705
857.931	21747
858.064	21698
858.197	21717
858.331	21561
858.464	21519
858.597	21420
858.731	21587
858.864	21530
858.997	21603
859.13	21679
859.263	21557
859.396	21751
859.529	21656
859.662	21424
859.795	21595
859.928	21682
860.061	21755
860.194	21911
860.327	21663
860.46	21606
860.592	21736
860.725	21759
860.858	21759
860.99	21652
861.123	21519
861.256	21557
861.388	21599
861.521	22185
861.653	21488
861.786	21306
861.918	21401
862.05	21420
862.183	21603
862.315	21526
862.447	21564
862.58	21561
862.712	21226
862.844	21329
862.976	21424
863.108	21355
863.24	21778
863.372	21252
863.504	21237
863.636	21382
863.768	21268
863.9	21287
864.032	21150
864.164	21233
864.296	21435
864.428	21378
864.559	21321
864.691	21466
864.823	21363
864.954	21268
865.086	21279
865.217	21310
865.349	21192
865.48	21123
865.612	21104
865.743	21340
865.875	21230
866.006	21184
866.137	21226
866.269	21188
866.4	21176
866.531	21222
866.662	21074
866.793	21203
866.924	21142
867.055	21089
867.186	21157
867.317	21005
867.448	21028
867.579	21131
867.71	21081
867.841	20971
867.972	21211
868.103	21138
868.233	21066
868.364	21226
868.495	21249
868.625	21428
868.756	21507
868.886	21272
869.017	21321
869.147	21355
869.278	21538
869.408	21389
869.539	21450
869.669	21488
869.799	21405
869.929	21542
870.06	21507
870.19	21641
870.32	21679
870.45	21724
870.58	21701
870.71	21827
870.84	21850
870.97	21705
871.1	21759
871.23	21911
871.36	21895
871.489	21857
871.619	21915
871.749	21953
871.879	21915
872.008	21991
872.138	21994
872.267	22067
872.397	21876
872.526	21800
872.656	21751
872.785	21907
872.915	22162
873.044	22032
873.173	22010
873.303	22135
873.432	21918
873.561	21934
873.69	21903
873.819	21968
873.948	22093
874.077	21873
874.206	21838
874.335	21998
874.464	22181
874.593	22284
874.722	22101
874.851	22070
874.979	22287
875.108	22173
875.237	22272
875.365	22063
875.494	22261
875.623	22242
875.751	22105
875.88	22268
876.008	22242
876.136	22394
876.265	22607
876.393	22721
876.521	22759
876.65	22634
876.778	22527
876.906	22474
877.034	22500
877.162	22512
877.29	22470
877.418	22546
877.546	22470
877.674	22577
877.802	22443
877.93	22596
878.058	22508
878.185	22333
878.313	22455
878.441	22557
878.568	22329
878.696	22519
878.824	22497
878.951	22546
879.079	22706
879.206	22812
879.333	22607
879.461	22634
879.588	22713
879.715	22569
879.842	22774
879.97	22565
880.097	22382
880.224	22386
880.351	22417
880.478	22291
880.605	22344
880.732	22310
880.859	22470
880.986	22333
881.112	22363
881.239	22253
881.366	22188
881.493	21926
881.619	22010
881.746	21907
881.872	21972
881.999	21831
882.125	21880
882.252	21998
882.378	21930
882.505	22063
882.631	21770
882.757	21709
882.883	21732
883.01	21675
883.136	21625
883.262	21443
883.388	21439
883.514	21603
883.64	21633
883.766	21599
883.892	21389
884.018	21523
884.143	21530
884.269	21557
884.395	21378
884.52	21233
884.646	21245
884.772	21180
884.897	21116
885.023	21260
885.148	21287
885.274	21268
885.399	21317
885.524	21211
885.65	21313
885.775	21211
885.9	21249
886.025	21428
886.15	21443
886.275	21237
886.4	21085
886.525	21313
886.65	21119
886.775	21214
886.9	21218
887.025	21469
887.149	21127
887.274	21062
887.399	21089
887.523	20914
887.648	20979
887.773	20948
887.897	21142
888.021	21081
888.146	20853
888.27	21165
888.395	21123
888.519	21013
888.643	21036
888.767	21123
888.891	20975
889.015	20857
889.139	20861
889.263	20746
889.387	20990
889.511	21017
889.635	20963
889.759	20716
889.883	20785
890.006	20895
890.13	20861
890.254	20701
890.377	20739
890.501	20693
890.624	20473
890.748	20606
890.871	20461
890.995	20324
891.118	20278
891.241	20347
891.364	20423
891.488	20530
891.611	20442
891.734	20320
891.857	20480
891.98	20389
892.103	20526
892.226	20389
892.349	20248
892.471	20084
892.594	20206
892.717	20389
892.839	20355
892.962	20305
893.085	20320
893.207	20294
893.33	20298
893.452	20206
893.575	20244
893.697	20233
893.819	20332
893.941	20446
894.064	20450
894.186	20252
894.308	20180
894.43	20385
894.552	20442
894.674	20415
894.796	20084
894.918	20259
895.04	20298
895.161	20355
895.283	20286
895.405	20218
895.526	20259
895.648	20210
895.769	20419
895.891	20393
896.012	20404
896.134	20412
896.255	20263
896.376	20263
896.498	20282
896.619	20385
896.74	20218
896.861	20271
896.982	20571
897.103	20773
897.224	20617
897.345	20549
897.466	20446
897.587	20480
897.708	20621
897.828	20541
897.949	20446
898.07	20358
898.19	20339
898.311	20571
898.431	20412
898.552	20434
898.672	20590
898.792	20556
898.913	20568
899.033	20332
899.153	20290
899.273	20088
899.393	20195
899.513	20267
899.633	20362
899.753	20343
899.873	20096
899.993	20275
900.113	20202
900.232	20336
900.352	20259
900.472	20050
900.591	20088
900.711	19963
900.83	20012
900.95	20073
901.069	20039
901.189	19993
901.308	19567
901.427	19586
901.546	19674
901.665	19731
901.784	19605
901.904	19430
902.023	19426
902.141	19251
902.26	19213
902.379	19198
902.498	19091
902.617	19152
902.735	19061
902.854	19019
902.973	18970
903.091	18764
903.21	18806
903.328	18707
903.446	18696
903.565	18506
903.683	18623
903.801	18525
903.919	18616
904.038	18448
904.156	18376
904.274	18448
904.392	18300
904.51	18270
904.627	18372
904.745	18289
904.863	18403
904.981	18155
905.098	18057
905.216	18026
905.334	18129
905.451	18076
905.569	18038
905.686	18003
905.803	17977
905.921	17722
906.038	17817
906.155	17786
906.272	17638
906.389	17710
906.506	17547
906.623	17653
906.74	17623
906.857	17478
906.974	17497
907.091	17596
907.208	17703
907.324	17596
907.441	17433
907.557	17318
907.674	17299
907.79	17250
907.907	17231
908.023	17277
908.139	17216
908.256	17166
908.372	17105
908.488	17189
908.604	16991
908.72	17006
908.836	17010
908.952	16915
909.068	17025
909.184	17105
909.3	17033
909.415	17014
909.531	16976
909.647	16679
909.762	16736
909.878	16679
909.993	16706
910.108	16588
910.224	16679
910.339	16679
910.454	16546
910.57	16596
910.685	16470
910.8	16717
910.915	16702
911.03	16455
911.145	16291
911.259	16265
911.374	16306
911.489	16246
911.604	16257
911.718	16124
911.833	16055
911.947	15945
912.062	15785
912.176	16032
912.291	16143
912.405	16002
912.519	16147
912.633	16219
912.748	16029
912.862	16017
912.976	15854
913.09	15739
913.204	15808
913.318	15751
913.431	15865
913.545	15956
913.659	15895
913.772	15804
913.886	15694
914	15736
914.113	15648
914.226	15705
914.34	15675
914.453	15557
914.566	15644
914.68	15488
914.793	15507
914.906	15310
915.019	15211
915.132	15135
915.245	15256
915.358	15249
915.47	15291
915.583	15173
915.696	15241
915.809	15443
915.921	15408
916.034	15119
916.146	15062
916.259	15097
916.371	15180
916.483	15169
916.595	15108
916.708	15024
916.82	15108
916.932	15093
917.044	15058
917.156	15039
917.268	14880
917.38	14925
917.491	14777
917.603	14982
917.715	14906
917.826	15009
917.938	14861
918.049	14720
918.161	14864
918.272	14941
918.384	14887
918.495	14826
918.606	14610
918.717	14579
918.828	14701
918.939	14617
919.05	14533
919.161	14629
919.272	14461
919.383	14469
919.494	14621
919.604	14834
919.715	14640
919.826	14507
919.936	14629
920.047	14712
920.157	14621
920.267	14853
920.378	14625
920.488	14583
920.598	14792
920.708	14823
920.818	14735
920.928	14670
921.038	14902
921.148	14792
921.258	14613
921.368	14419
921.477	14336
921.587	14347
921.697	14202
921.806	14412
921.916	14210
922.025	14001
922.134	13932
922.244	13898
922.353	14012
922.462	13769
922.571	13811
922.68	13738
922.789	13605
922.898	13666
923.007	13590
923.116	13639
923.224	13636
923.333	13548
923.442	13544
923.55	13411
923.659	13407
923.767	13483
923.876	13350
923.984	13464
924.092	13247
924.201	13411
924.309	13266
924.417	13403
924.525	13274
924.633	13343
924.741	14031
924.849	13057
924.956	13251
925.064	13004
925.172	12958
925.279	13057
925.387	13095
925.494	12958
925.602	13179
925.709	13053
925.816	12890
925.924	13004
926.031	13004
926.138	12989
926.245	13046
926.352	12886
926.459	12973
926.566	13000
926.673	12890
926.779	12837
926.886	12859
926.993	12616
927.099	12631
927.206	12601
927.312	12582
927.419	12635
927.525	12608
927.631	12589
927.737	12506
927.843	12445
927.95	12243
928.056	12380
928.162	12452
928.267	12418
928.373	12989
928.479	12536
928.585	12220
928.69	12414
928.796	12365
928.901	12285
929.007	12098
929.112	12376
929.218	12270
929.323	12213
929.428	12133
929.533	12262
929.638	12110
929.743	12095
929.848	12129
929.953	12072
930.058	11996
930.163	11927
930.267	11874
930.372	11961
930.477	11733
930.581	11999
930.685	11821
930.79	11695
930.894	11726
930.998	11634
931.103	11775
931.207	11452
931.311	11356
931.415	11239
931.519	11086
931.623	11041
