Data from test_V78500241_2747.txt Node
Date: Fri Mar 25 15:28:59 CST 2022
User: usil
Spectrometer: V785-0024
Trigger mode: 0
Integration Time (sec): 4.000000E-1
Scans to average: 1
Nonlinearity correction enabled: false
Boxcar width: 0
Storing dark spectrum: false
XAxis mode: Wavelengths
Number of Pixels in Spectrum: 1024
>>>>>Begin Spectral Data<<<<<
801.071	27062
801.214	26807
801.356	26636
801.499	26625
801.641	26507
801.783	26465
801.926	26488
802.068	26389
802.211	26355
802.353	26343
802.496	26298
802.638	26020
802.78	26168
802.923	26092
803.065	26024
803.208	26031
803.35	26237
803.492	26271
803.635	26320
803.777	26088
803.919	26275
804.061	26511
804.204	26240
804.346	26294
804.488	26256
804.63	26370
804.773	26119
804.915	26218
805.057	26400
805.199	26248
805.341	26309
805.483	26374
805.626	26377
805.768	26328
805.91	26469
806.052	26393
806.194	26168
806.336	26450
806.478	26282
806.62	26404
806.762	26389
806.904	26469
807.046	26933
807.188	26811
807.33	26792
807.472	26724
807.614	26674
807.756	26670
807.898	26712
808.04	26453
808.182	26613
808.324	26636
808.465	26746
808.607	26727
808.749	27020
808.891	27039
809.033	27195
809.174	26933
809.316	26773
809.458	26842
809.6	26891
809.741	26975
809.883	27154
810.025	27249
810.166	27245
810.308	27291
810.45	27127
810.591	27150
810.733	26963
810.875	27020
811.016	26830
811.158	26796
811.299	27055
811.441	27123
811.582	27074
811.724	26830
811.865	26952
812.007	26895
812.148	26982
812.29	26982
812.431	27055
812.573	27230
812.714	27222
812.855	27359
812.997	27336
813.138	27728
813.279	27427
813.421	27492
813.562	27279
813.703	27157
813.845	26986
813.986	26876
814.127	26731
814.268	26552
814.41	26488
814.551	26556
814.692	26609
814.833	26518
814.974	26480
815.115	26640
815.256	26495
815.397	26442
815.539	26343
815.68	26278
815.821	26339
815.962	26415
816.103	26309
816.244	26263
816.385	26039
816.526	26134
816.666	25959
816.807	25772
816.948	25849
817.089	25871
817.23	25894
817.371	25795
817.512	25662
817.653	25814
817.793	25651
817.934	25795
818.075	25879
818.216	25845
818.356	25753
818.497	25495
818.638	25483
818.778	25540
818.919	25651
819.06	25552
819.2	25605
819.341	25780
819.481	25715
819.622	26081
819.762	26153
819.903	26134
820.043	25963
820.184	25970
820.324	25940
820.465	25887
820.605	25913
820.746	25940
820.886	25757
821.026	25894
821.167	25837
821.307	25966
821.447	25822
821.588	25761
821.728	25563
821.868	25514
822.008	25312
822.149	25362
822.289	25304
822.429	25015
822.569	24970
822.709	25046
822.849	24806
822.99	24863
823.13	24867
823.27	24703
823.41	24642
823.55	24410
823.69	24631
823.83	24620
823.97	24513
824.11	24334
824.25	24334
824.389	24456
824.529	24566
824.669	24407
824.809	24490
824.949	24498
825.089	24502
825.228	24445
825.368	24319
825.508	24216
825.648	24281
825.787	24292
825.927	24311
826.067	24285
826.206	24296
826.346	24483
826.485	24391
826.625	24140
826.765	24399
826.904	24311
827.044	24045
827.183	24087
827.323	24011
827.462	23980
827.601	24049
827.741	24095
827.88	23950
828.02	23828
828.159	24049
828.298	24102
828.437	23954
828.577	24003
828.716	24136
828.855	23950
828.994	23691
829.134	23771
829.273	23691
829.412	23623
829.551	23573
829.69	23581
829.829	23691
829.968	23874
830.107	23783
830.246	23942
830.385	23661
830.524	23627
830.663	23520
830.802	23448
830.941	23299
831.08	23284
831.219	23322
831.357	23436
831.496	23577
831.635	23288
831.774	23242
831.913	23166
832.051	23090
832.19	22991
832.329	23064
832.467	22953
832.606	22866
832.744	22949
832.883	22968
833.022	22991
833.16	23018
833.299	23143
833.437	23079
833.576	23083
833.714	23143
833.852	23067
833.991	22942
834.129	23143
834.267	23105
834.406	23064
834.544	23014
834.682	23105
834.821	23083
834.959	23159
835.097	22927
835.235	23079
835.373	23037
835.511	23033
835.65	22873
835.788	22854
835.926	22706
836.064	22687
836.202	22790
836.34	22748
836.478	22919
836.615	22828
836.753	22843
836.891	23006
837.029	22862
837.167	22881
837.305	22790
837.443	22824
837.58	22763
837.718	22774
837.856	22782
837.993	22801
838.131	22653
838.269	22736
838.406	22698
838.544	22557
838.681	22508
838.819	22291
838.956	22166
839.094	22306
839.231	22299
839.369	22207
839.506	22691
839.643	22489
839.781	22272
839.918	22147
840.055	22230
840.193	22238
840.33	22093
840.467	22226
840.604	22162
840.742	22504
840.879	21968
841.016	22105
841.153	22124
841.29	22230
841.427	22055
841.564	22150
841.701	22257
841.838	22040
841.975	22086
842.112	22166
842.249	21953
842.385	22036
842.522	22219
842.659	22131
842.796	21975
842.933	21975
843.069	21930
843.206	21755
843.343	21956
843.479	21838
843.616	21994
843.752	21622
843.889	21686
844.025	21835
844.162	21576
844.298	21762
844.435	21603
844.571	21759
844.708	21660
844.844	21926
844.98	21865
845.117	21797
845.253	21705
845.389	21618
845.525	21629
845.661	21545
845.798	21431
845.934	21469
846.07	21279
846.206	21580
846.342	21511
846.478	21469
846.614	21188
846.75	21222
846.886	21211
847.022	21218
847.158	21066
847.294	21165
847.429	21207
847.565	21146
847.701	21412
847.837	20944
847.972	20849
848.108	21013
848.244	20883
848.379	20906
848.515	20765
848.65	20655
848.786	20849
848.921	20788
849.057	20929
849.192	20807
849.328	20830
849.463	20834
849.598	20644
849.734	20663
849.869	20617
850.004	20606
850.14	20575
850.275	20552
850.41	20507
850.545	20434
850.68	20499
850.815	20541
850.95	20431
851.085	20712
851.22	20541
851.355	20537
851.49	20492
851.625	20526
851.76	20545
851.895	20522
852.03	20415
852.165	20488
852.299	20644
852.434	20526
852.569	20625
852.703	20518
852.838	20560
852.973	20598
853.107	20617
853.242	20473
853.376	20381
853.511	20275
853.645	20347
853.78	20457
853.914	20442
854.048	20256
854.183	20347
854.317	20404
854.451	20495
854.585	20320
854.72	20339
854.854	20431
854.988	20290
855.122	20332
855.256	20134
855.39	20370
855.524	20446
855.658	20256
855.792	20427
855.926	20252
856.06	20362
856.194	20408
856.327	20290
856.461	20271
856.595	20343
856.729	20317
856.862	20476
856.996	20434
857.13	20377
857.263	20423
857.397	20396
857.53	20370
857.664	20469
857.797	20351
857.931	20423
858.064	20313
858.197	20526
858.331	20393
858.464	20347
858.597	20206
858.731	20309
858.864	20343
858.997	20290
859.13	20457
859.263	20461
859.396	20579
859.529	20355
859.662	20431
859.795	20267
859.928	20294
860.061	20503
860.194	20492
860.327	20415
860.46	20419
860.592	20507
860.725	20606
860.858	20408
860.99	20343
861.123	20252
861.256	20351
861.388	20347
861.521	20937
861.653	20180
861.786	20142
861.918	20138
862.05	20168
862.183	20282
862.315	20298
862.447	20400
862.58	20282
862.712	20020
862.844	19947
862.976	20157
863.108	20100
863.24	20518
863.372	19982
863.504	20103
863.636	20096
863.768	20161
863.9	20020
864.032	19947
864.164	20001
864.296	20096
864.428	20119
864.559	20153
864.691	20191
864.823	20176
864.954	20161
865.086	19989
865.217	19936
865.349	19864
865.48	19902
865.612	20008
865.743	20039
865.875	20027
866.006	20024
866.137	20024
866.269	20001
866.4	20039
866.531	19818
866.662	20008
866.793	19890
866.924	19947
867.055	19879
867.186	19989
867.317	19925
867.448	19795
867.579	19898
867.71	19830
867.841	19772
867.972	19978
868.103	19925
868.233	19921
868.364	19955
868.495	20050
868.625	20073
868.756	20278
868.886	20107
869.017	20100
869.147	20294
869.278	20271
869.408	20210
869.539	20126
869.669	20275
869.799	20206
869.929	20309
870.06	20278
870.19	20419
870.32	20415
870.45	20465
870.58	20530
870.71	20522
870.84	20625
870.97	20606
871.1	20564
871.23	20823
871.36	20773
871.489	20686
871.619	20773
871.749	20838
871.879	20735
872.008	20769
872.138	20815
872.267	20785
872.397	20537
872.526	20606
872.656	20640
872.785	20507
872.915	20754
873.044	20872
873.173	20792
873.303	20861
873.432	20845
873.561	20868
873.69	20716
873.819	20785
873.948	20857
874.077	20807
874.206	20708
874.335	20727
874.464	20857
874.593	20979
874.722	20998
874.851	20998
874.979	21085
875.108	21066
875.237	21039
875.365	20948
875.494	20982
875.623	21108
875.751	21074
875.88	20982
876.008	21081
876.136	21222
876.265	21405
876.393	21504
876.521	21561
876.65	21519
876.778	21435
876.906	21348
877.034	21370
877.162	21431
877.29	21344
877.418	21416
877.546	21431
877.674	21310
877.802	21218
877.93	21435
878.058	21310
878.185	21222
878.313	21405
878.441	21313
878.568	21218
878.696	21264
878.824	21428
878.951	21485
879.079	21492
879.206	21675
879.333	21481
879.461	21469
879.588	21507
879.715	21488
879.842	21709
879.97	21477
880.097	21184
880.224	21089
880.351	21306
880.478	21195
880.605	21199
880.732	21249
880.859	21485
880.986	21218
881.112	21230
881.239	21119
881.366	20921
881.493	20929
881.619	20746
881.746	20868
881.872	20853
881.999	20785
882.125	20845
882.252	20868
882.378	20750
882.505	20880
882.631	20670
882.757	20568
882.883	20636
883.01	20514
883.136	20469
883.262	20320
883.388	20320
883.514	20568
883.64	20530
883.766	20488
883.892	20256
884.018	20343
884.143	20446
884.269	20575
884.395	20290
884.52	20225
884.646	20142
884.772	20161
884.897	20031
885.023	20161
885.148	20271
885.274	20309
885.399	20332
885.524	20191
885.65	20100
885.775	20142
885.9	20168
886.025	20267
886.15	20191
886.275	20100
886.4	20092
886.525	20058
886.65	20092
886.775	20062
886.9	20282
887.025	20282
887.149	20206
887.274	19928
887.399	20005
887.523	20008
887.648	19978
887.773	19875
887.897	19936
888.021	20043
888.146	19852
888.27	20035
888.395	20043
888.519	20096
888.643	19978
888.767	19936
888.891	19833
889.015	19746
889.139	19769
889.263	19795
889.387	19841
889.511	19963
889.635	19909
889.759	19594
889.883	19723
890.006	19772
890.13	19822
890.254	19674
890.377	19784
890.501	19506
890.624	19407
890.748	19502
890.871	19415
890.995	19381
891.118	19289
891.241	19304
891.364	19324
891.488	19411
891.611	19369
891.734	19400
891.857	19255
891.98	19312
892.103	19293
892.226	19350
892.349	19324
892.471	19076
892.594	19187
892.717	19304
892.839	19282
892.962	19194
893.085	19304
893.207	19278
893.33	19076
893.452	19236
893.575	19327
893.697	19187
893.819	19316
893.941	19472
894.064	19407
894.186	19160
894.308	19148
894.43	19335
894.552	19480
894.674	19346
894.796	19198
894.918	19183
895.04	19232
895.161	19327
895.283	19278
895.405	19236
895.526	19175
895.648	19190
895.769	19304
895.891	19358
896.012	19282
896.134	19289
896.255	19339
896.376	19266
896.498	19384
896.619	19335
896.74	19168
896.861	19415
896.982	19616
897.103	19696
897.224	19449
897.345	19453
897.466	19491
897.587	19533
897.708	19681
897.828	19628
897.949	19506
898.07	19411
898.19	19407
898.311	19537
898.431	19441
898.552	19529
898.672	19491
898.792	19605
898.913	19491
899.033	19457
899.153	19168
899.273	19274
899.393	19225
899.513	19278
899.633	19308
899.753	19202
899.873	19274
899.993	19278
900.113	19168
900.232	19259
900.352	19164
900.472	19034
900.591	19061
900.711	19152
900.83	19015
900.95	19126
901.069	19080
901.189	19004
901.308	18620
901.427	18764
901.546	18570
901.665	18726
901.784	18707
901.904	18498
902.023	18506
902.141	18319
902.26	18232
902.379	18289
902.498	18224
902.617	18041
902.735	18258
902.854	18102
902.973	18049
903.091	17802
903.21	17931
903.328	17866
903.446	17764
903.565	17691
903.683	17733
903.801	17585
903.919	17653
904.038	17630
904.156	17455
904.274	17501
904.392	17543
904.51	17459
904.627	17429
904.745	17455
904.863	17463
904.981	17311
905.098	17159
905.216	17124
905.334	17166
905.451	17178
905.569	17124
905.686	17117
905.803	17045
905.921	16961
906.038	16972
906.155	16786
906.272	16896
906.389	16900
906.506	16649
906.623	16694
906.74	16683
906.857	16565
906.974	16535
907.091	16664
907.208	16679
907.324	16694
907.441	16546
907.557	16402
907.674	16405
907.79	16367
907.907	16230
908.023	16409
908.139	16451
908.256	16390
908.372	16219
908.488	16303
908.604	16219
908.72	16147
908.836	16204
908.952	16032
909.068	16105
909.184	16196
909.3	16112
909.415	16013
909.531	16048
909.647	15827
909.762	15895
909.878	15759
909.993	15854
910.108	15869
910.224	15816
910.339	15770
910.454	15720
910.57	15595
910.685	15538
910.8	15793
910.915	15793
911.03	15561
911.145	15477
911.259	15397
911.374	15370
911.489	15420
911.604	15348
911.718	15116
911.833	15112
911.947	15188
912.062	15138
912.176	15203
912.291	15302
912.405	15192
912.519	15416
912.633	15534
912.748	15176
912.862	15097
912.976	15070
913.09	14910
913.204	14925
913.318	14876
913.431	15135
913.545	15093
913.659	15104
913.772	15043
913.886	14807
914	14727
914.113	14754
914.226	14899
914.34	14845
914.453	14674
914.566	14838
914.68	14686
914.793	14758
914.906	14549
915.019	14400
915.132	14355
915.245	14450
915.358	14484
915.47	14400
915.583	14473
915.696	14434
915.809	14545
915.921	14495
916.034	14431
916.146	14347
916.259	14343
916.371	14374
916.483	14434
916.595	14267
916.708	14370
916.82	14294
916.932	14256
917.044	14221
917.156	14149
917.268	14100
917.38	14084
917.491	14107
917.603	14069
917.715	14229
917.826	14195
917.938	14031
918.049	13982
918.161	14050
918.272	14168
918.384	14088
918.495	14100
918.606	13944
918.717	13883
918.828	13986
918.939	13879
919.05	13776
919.161	13917
919.272	13655
919.383	13723
919.494	13902
919.604	14046
919.715	13894
919.826	13734
919.936	13822
920.047	13837
920.157	13875
920.267	14100
920.378	13826
920.488	13871
920.598	13959
920.708	14210
920.818	14020
920.928	13970
921.038	14180
921.148	14088
921.258	13795
921.368	13761
921.477	13601
921.587	13651
921.697	13518
921.806	13632
921.916	13533
922.025	13297
922.134	13308
922.244	13255
922.353	13240
922.462	13152
922.571	13057
922.68	12977
922.789	12890
922.898	12970
923.007	12859
923.116	12935
923.224	12859
923.333	12913
923.442	12810
923.55	12654
923.659	12757
923.767	12798
923.876	12692
923.984	12768
924.092	12631
924.201	12722
924.309	12745
924.417	12585
924.525	12650
924.633	12620
924.741	13571
924.849	12471
924.956	12536
925.064	12422
925.172	12266
925.279	12266
925.387	12422
925.494	12323
925.602	12483
925.709	12418
925.816	12277
925.924	12346
926.031	12410
926.138	12262
926.245	12308
926.352	12296
926.459	12273
926.566	12350
926.673	12194
926.779	12186
926.886	12232
926.993	12007
927.099	12030
927.206	11942
927.312	11927
927.419	12022
927.525	12015
927.631	11969
927.737	11760
927.843	11718
927.95	11733
928.056	11813
928.162	11756
928.267	11855
928.373	12342
928.479	11832
928.585	11562
928.69	11802
928.796	11714
928.901	11665
929.007	11520
929.112	11611
929.218	11691
929.323	11581
929.428	11512
929.533	11657
929.638	11391
929.743	11497
929.848	11562
929.953	11421
930.058	11379
930.163	11242
930.267	11296
930.372	11391
930.477	11235
930.581	11414
930.685	11269
930.79	11136
930.894	11136
930.998	11071
931.103	11220
931.207	10869
931.311	10904
931.415	10736
931.519	10546
931.623	10527
