Data from test_V78500241_387.txt Node
Date: Fri Mar 25 15:12:33 CST 2022
User: usil
Spectrometer: V785-0024
Trigger mode: 0
Integration Time (sec): 4.000000E-1
Scans to average: 1
Nonlinearity correction enabled: false
Boxcar width: 0
Storing dark spectrum: false
XAxis mode: Wavelengths
Number of Pixels in Spectrum: 1024
>>>>>Begin Spectral Data<<<<<
801.071	26952
801.214	26880
801.356	26720
801.499	26697
801.641	26648
801.783	26473
801.926	26575
802.068	26526
802.211	26545
802.353	26453
802.496	26218
802.638	26218
802.78	26130
802.923	26244
803.065	26096
803.208	26191
803.35	26164
803.492	26324
803.635	26427
803.777	26248
803.919	26377
804.061	26571
804.204	26381
804.346	26237
804.488	26199
804.63	26362
804.773	26149
804.915	26248
805.057	26423
805.199	26370
805.341	26438
805.483	26412
805.626	26355
805.768	26267
805.91	26473
806.052	26476
806.194	26461
806.336	26636
806.478	26328
806.62	26473
806.762	26503
806.904	26667
807.046	26864
807.188	26743
807.33	26861
807.472	26944
807.614	26819
807.756	26838
807.898	26598
808.04	26556
808.182	26648
808.324	26678
808.465	26697
808.607	26872
808.749	26899
808.891	27039
809.033	27180
809.174	27142
809.316	26918
809.458	27028
809.6	26956
809.741	27237
809.883	27093
810.025	27237
810.166	27313
810.308	27256
810.45	27188
810.591	27222
810.733	26990
810.875	26887
811.016	26895
811.158	26811
811.299	26979
811.441	27066
811.582	27192
811.724	26967
811.865	26918
812.007	26979
812.148	26971
812.29	27066
812.431	27024
812.573	27306
812.714	27397
812.855	27523
812.997	27599
813.138	27686
813.279	27545
813.421	27599
813.562	27412
813.703	27534
813.845	27249
813.986	26819
814.127	26864
814.268	26708
814.41	26697
814.551	26705
814.692	26785
814.833	26556
814.974	26651
815.115	26739
815.256	26400
815.397	26598
815.539	26499
815.68	26419
815.821	26305
815.962	26484
816.103	26431
816.244	26526
816.385	26176
816.526	26062
816.666	25925
816.807	25944
816.948	25936
817.089	26035
817.23	25982
817.371	26065
817.512	25856
817.653	25883
817.793	25852
817.934	25837
818.075	25928
818.216	25868
818.356	25841
818.497	25883
818.638	25696
818.778	25540
818.919	25719
819.06	25784
819.2	25898
819.341	25974
819.481	25731
819.622	26001
819.762	26221
819.903	26058
820.043	26100
820.184	26065
820.324	25868
820.465	26142
820.605	25913
820.746	25974
820.886	25917
821.026	26073
821.167	26016
821.307	26172
821.447	25944
821.588	25864
821.728	25742
821.868	25609
822.008	25441
822.149	25346
822.289	25343
822.429	25316
822.569	25129
822.709	24992
822.849	25008
822.99	24954
823.13	24829
823.27	24878
823.41	24711
823.55	24684
823.69	24589
823.83	24749
823.97	24654
824.11	24403
824.25	24429
824.389	24502
824.529	24483
824.669	24479
824.809	24616
824.949	24479
825.089	24464
825.228	24593
825.368	24323
825.508	24300
825.648	24395
825.787	24410
825.927	24384
826.067	24338
826.206	24296
826.346	24369
826.485	24403
826.625	24372
826.765	24475
826.904	24433
827.044	24076
827.183	24038
827.323	23889
827.462	24133
827.601	24095
827.741	24209
827.88	24049
828.02	23969
828.159	23942
828.298	24155
828.437	24266
828.577	24083
828.716	24167
828.855	24011
828.994	23748
829.134	23870
829.273	23908
829.412	23786
829.551	23642
829.69	23828
829.829	23790
829.968	23923
830.107	23942
830.246	23786
830.385	23836
830.524	23718
830.663	23592
830.802	23467
830.941	23353
831.08	23356
831.219	23414
831.357	23600
831.496	23703
831.635	23349
831.774	23318
831.913	23334
832.051	23239
832.19	23307
832.329	23216
832.467	23220
832.606	23090
832.744	23041
832.883	23220
833.022	23067
833.16	23037
833.299	23143
833.437	23166
833.576	23246
833.714	23223
833.852	23299
833.991	23227
834.129	23166
834.267	23288
834.406	23280
834.544	23208
834.682	23204
834.821	23121
834.959	23292
835.097	23200
835.235	23235
835.373	23121
835.511	23075
835.65	23033
835.788	23041
835.926	22961
836.064	22793
836.202	22877
836.34	23018
836.478	23204
836.615	23033
836.753	23010
836.891	23185
837.029	23136
837.167	22957
837.305	22968
837.443	22904
837.58	22828
837.718	22812
837.856	22991
837.993	22812
838.131	22915
838.269	22698
838.406	22759
838.544	22649
838.681	22443
838.819	22516
838.956	22409
839.094	22303
839.231	22478
839.369	22584
839.506	22683
839.643	22622
839.781	22428
839.918	22207
840.055	22421
840.193	22333
840.33	22295
840.467	22348
840.604	22409
840.742	22432
840.879	22158
841.016	22169
841.153	22162
841.29	22428
841.427	22318
841.564	22303
841.701	22204
841.838	22063
841.975	22295
842.112	22150
842.249	22238
842.385	22036
842.522	22303
842.659	22150
842.796	22101
842.933	22173
843.069	22029
843.206	21998
843.343	22200
843.479	22124
843.616	22067
843.752	21823
843.889	21755
844.025	21983
844.162	21903
844.298	21850
844.435	21899
844.571	21838
844.708	21895
844.844	22055
844.98	22025
845.117	22044
845.253	21800
845.389	21812
845.525	21720
845.661	21694
845.798	21625
845.934	21682
846.07	21545
846.206	21637
846.342	21679
846.478	21633
846.614	21325
846.75	21264
846.886	21340
847.022	21370
847.158	21317
847.294	21458
847.429	21443
847.565	21336
847.701	21519
847.837	21116
847.972	20971
848.108	21268
848.244	21176
848.379	20982
848.515	20887
848.65	20990
848.786	20967
848.921	21157
849.057	21093
849.192	21047
849.328	20998
849.463	20842
849.598	20891
849.734	20906
849.869	20830
850.004	20830
850.14	20842
850.275	20762
850.41	20708
850.545	20674
850.68	20583
850.815	20792
850.95	20632
851.085	20941
851.22	20735
851.355	20731
851.49	20659
851.625	20739
851.76	20583
851.895	20522
852.03	20602
852.165	20769
852.299	20727
852.434	20838
852.569	20697
852.703	20682
852.838	20777
852.973	20842
853.107	20811
853.242	20678
853.376	20492
853.511	20457
853.645	20484
853.78	20708
853.914	20495
854.048	20606
854.183	20518
854.317	20492
854.451	20724
854.585	20492
854.72	20465
854.854	20499
854.988	20415
855.122	20590
855.256	20480
855.39	20488
855.524	20617
855.658	20480
855.792	20590
855.926	20518
856.06	20674
856.194	20644
856.327	20518
856.461	20552
856.595	20442
856.729	20450
856.862	20705
856.996	20659
857.13	20590
857.263	20526
857.397	20575
857.53	20412
857.664	20522
857.797	20587
857.931	20701
858.064	20583
858.197	20735
858.331	20461
858.464	20545
858.597	20374
858.731	20442
858.864	20495
858.997	20415
859.13	20678
859.263	20636
859.396	20579
859.529	20457
859.662	20564
859.795	20431
859.928	20549
860.061	20697
860.194	20777
860.327	20606
860.46	20518
860.592	20667
860.725	20697
860.858	20541
860.99	20457
861.123	20423
861.256	20568
861.388	20537
861.521	21207
861.653	20389
861.786	20355
861.918	20396
862.05	20480
862.183	20473
862.315	20537
862.447	20545
862.58	20404
862.712	20336
862.844	20225
862.976	20286
863.108	20240
863.24	20674
863.372	20168
863.504	20161
863.636	20252
863.768	20259
863.9	20229
864.032	20263
864.164	20244
864.296	20202
864.428	20358
864.559	20282
864.691	20263
864.823	20423
864.954	20347
865.086	20225
865.217	20244
865.349	20130
865.48	20229
865.612	20206
865.743	20377
865.875	20180
866.006	20100
866.137	20164
866.269	20142
866.4	20172
866.531	20187
866.662	20012
866.793	20050
866.924	20111
867.055	20301
867.186	20126
867.317	20016
867.448	19997
867.579	20062
867.71	20065
867.841	20065
867.972	20172
868.103	20050
868.233	19989
868.364	19993
868.495	20176
868.625	20351
868.756	20503
868.886	20263
869.017	20324
869.147	20442
869.278	20533
869.408	20393
869.539	20347
869.669	20434
869.799	20507
869.929	20621
870.06	20404
870.19	20651
870.32	20750
870.45	20727
870.58	20678
870.71	20762
870.84	20902
870.97	20819
871.1	20667
871.23	20925
871.36	20952
871.489	20899
871.619	20834
871.749	21119
871.879	20948
872.008	20956
872.138	21020
872.267	20906
872.397	20777
872.526	20815
872.656	20796
872.785	20804
872.915	21017
873.044	20941
873.173	20986
873.303	21112
873.432	20994
873.561	21028
873.69	21005
873.819	21024
873.948	21089
874.077	21005
874.206	20952
874.335	20979
874.464	21180
874.593	21131
874.722	21116
874.851	21233
874.979	21207
875.108	21241
875.237	21154
875.365	21058
875.494	21142
875.623	21245
875.751	21188
875.88	21298
876.008	21336
876.136	21428
876.265	21603
876.393	21781
876.521	21656
876.65	21698
876.778	21656
876.906	21553
877.034	21549
877.162	21492
877.29	21481
877.418	21622
877.546	21694
877.674	21561
877.802	21534
877.93	21542
878.058	21473
878.185	21496
878.313	21553
878.441	21622
878.568	21431
878.696	21332
878.824	21603
878.951	21717
879.079	21652
879.206	21762
879.333	21736
879.461	21553
879.588	21884
879.715	21759
879.842	21854
879.97	21629
880.097	21447
880.224	21348
880.351	21447
880.478	21355
880.605	21279
880.732	21443
880.859	21679
880.986	21310
881.112	21340
881.239	21249
881.366	21100
881.493	21001
881.619	20990
881.746	21005
881.872	20975
881.999	21032
882.125	20823
882.252	20967
882.378	20937
882.505	21127
882.631	20838
882.757	20773
882.883	20788
883.01	20648
883.136	20602
883.262	20625
883.388	20480
883.514	20720
883.64	20670
883.766	20503
883.892	20511
884.018	20503
884.143	20648
884.269	20632
884.395	20355
884.52	20202
884.646	20366
884.772	20187
884.897	20191
885.023	20343
885.148	20461
885.274	20419
885.399	20446
885.524	20259
885.65	20366
885.775	20286
885.9	20275
886.025	20423
886.15	20351
886.275	20298
886.4	20187
886.525	20248
886.65	20180
886.775	20229
886.9	20404
887.025	20587
887.149	20423
887.274	20130
887.399	20130
887.523	20122
887.648	20050
887.773	19936
887.897	20191
888.021	20142
888.146	19982
888.27	20286
888.395	20218
888.519	20172
888.643	20103
888.767	20161
888.891	20031
889.015	19936
889.139	19913
889.263	19913
889.387	20058
889.511	20111
889.635	20012
889.759	19925
889.883	19883
890.006	19986
890.13	20020
890.254	19830
890.377	19727
890.501	19731
890.624	19628
890.748	19780
890.871	19529
890.995	19400
891.118	19396
891.241	19491
891.364	19529
891.488	19556
891.611	19491
891.734	19449
891.857	19544
891.98	19460
892.103	19537
892.226	19533
892.349	19441
892.471	19312
892.594	19327
892.717	19377
892.839	19449
892.962	19472
893.085	19464
893.207	19289
893.33	19327
893.452	19263
893.575	19457
893.697	19384
893.819	19529
893.941	19639
894.064	19502
894.186	19324
894.308	19335
894.43	19563
894.552	19639
894.674	19441
894.796	19263
894.918	19419
895.04	19304
895.161	19582
895.283	19499
895.405	19335
895.526	19400
895.648	19240
895.769	19362
895.891	19445
896.012	19445
896.134	19518
896.255	19426
896.376	19430
896.498	19438
896.619	19457
896.74	19327
896.861	19525
896.982	19742
897.103	19890
897.224	19693
897.345	19685
897.466	19487
897.587	19715
897.708	19814
897.828	19685
897.949	19563
898.07	19499
898.19	19594
898.311	19719
898.431	19597
898.552	19518
898.672	19753
898.792	19750
898.913	19544
899.033	19525
899.153	19525
899.273	19365
899.393	19343
899.513	19373
899.633	19426
899.753	19282
899.873	19202
899.993	19468
900.113	19506
900.232	19396
900.352	19247
900.472	19335
900.591	19156
900.711	19110
900.83	19145
900.95	19198
901.069	19244
901.189	19133
901.308	18810
901.427	18749
901.546	18738
901.665	18886
901.784	18753
901.904	18639
902.023	18574
902.141	18414
902.26	18350
902.379	18304
902.498	18254
902.617	18300
902.735	18357
902.854	18391
902.973	18178
903.091	18053
903.21	17866
903.328	17920
903.446	17802
903.565	17783
903.683	17809
903.801	17699
903.919	17718
904.038	17722
904.156	17600
904.274	17684
904.392	17577
904.51	17459
904.627	17520
904.745	17493
904.863	17600
904.981	17315
905.098	17292
905.216	17189
905.334	17185
905.451	17269
905.569	17280
905.686	17326
905.803	17208
905.921	16961
906.038	17132
906.155	17136
906.272	17086
906.389	17064
906.506	16793
906.623	16824
906.74	16702
906.857	16618
906.974	16702
907.091	16873
907.208	16839
907.324	16839
907.441	16790
907.557	16485
907.674	16561
907.79	16504
907.907	16413
908.023	16497
908.139	16500
908.256	16443
908.372	16295
908.488	16386
908.604	16230
908.72	16150
908.836	16223
908.952	16169
909.068	16238
909.184	16360
909.3	16181
909.415	16226
909.531	16242
909.647	16086
909.762	15968
909.878	15854
909.993	15945
910.108	15956
910.224	15865
910.339	15873
910.454	15816
910.57	15778
910.685	15606
910.8	15998
910.915	15934
911.03	15762
911.145	15652
911.259	15511
911.374	15603
911.489	15542
911.604	15469
911.718	15188
911.833	15348
911.947	15245
912.062	15188
912.176	15268
912.291	15348
912.405	15260
912.519	15515
912.633	15466
912.748	15317
912.862	15169
912.976	15097
913.09	15005
913.204	15032
913.318	15142
913.431	15176
913.545	15199
913.659	15222
913.772	15043
913.886	14998
914	14880
914.113	15028
914.226	15020
914.34	14982
914.453	14826
914.566	14963
914.68	14792
914.793	14758
914.906	14552
915.019	14670
915.132	14499
915.245	14533
915.358	14541
915.47	14492
915.583	14568
915.696	14560
915.809	14712
915.921	14659
916.034	14469
916.146	14518
916.259	14492
916.371	14552
916.483	14545
916.595	14374
916.708	14313
916.82	14507
916.932	14404
917.044	14305
917.156	14313
917.268	14164
917.38	14275
917.491	14229
917.603	14225
917.715	14199
917.826	14317
917.938	14138
918.049	14058
918.161	14123
918.272	14320
918.384	14294
918.495	14187
918.606	14012
918.717	14001
918.828	14043
918.939	14016
919.05	13955
919.161	13936
919.272	13788
919.383	13864
919.494	14050
919.604	14161
919.715	13993
919.826	13845
919.936	13925
920.047	14077
920.157	13993
920.267	14130
920.378	13917
920.488	13871
920.598	14126
920.708	14202
920.818	14092
920.928	14100
921.038	14157
921.148	14263
921.258	14027
921.368	13791
921.477	13658
921.587	13761
921.697	13559
921.806	13734
921.916	13609
922.025	13460
922.134	13426
922.244	13274
922.353	13354
922.462	13190
922.571	13171
922.68	13122
922.789	12996
922.898	13046
923.007	13012
923.116	13057
923.224	13012
923.333	12962
923.442	12821
923.55	12825
923.659	12848
923.767	12924
923.876	12871
923.984	12875
924.092	12768
924.201	12837
924.309	12901
924.417	12757
924.525	12722
924.633	12684
924.741	13396
924.849	12517
924.956	12700
925.064	12544
925.172	12498
925.279	12479
925.387	12494
925.494	12441
925.602	12589
925.709	12525
925.816	12437
925.924	12426
926.031	12540
926.138	12445
926.245	12410
926.352	12296
926.459	12441
926.566	12464
926.673	12311
926.779	12338
926.886	12243
926.993	12148
927.099	12022
927.206	12041
927.312	11992
927.419	12057
927.525	11958
927.631	12102
927.737	11954
927.843	11965
927.95	11741
928.056	11798
928.162	11920
928.267	11882
928.373	12597
928.479	11961
928.585	11718
928.69	11851
928.796	11840
928.901	11783
929.007	11615
929.112	11695
929.218	11722
929.323	11646
929.428	11600
929.533	11688
929.638	11562
929.743	11619
929.848	11539
929.953	11592
930.058	11509
930.163	11280
930.267	11345
930.372	11429
930.477	11261
930.581	11623
930.685	11277
930.79	11201
930.894	11254
930.998	11178
931.103	11372
931.207	10938
931.311	10938
931.415	10805
931.519	10523
931.623	10550
