Data from test_V78500241_1519.txt Node
Date: Fri Mar 25 15:20:26 CST 2022
User: usil
Spectrometer: V785-0024
Trigger mode: 0
Integration Time (sec): 4.000000E-1
Scans to average: 1
Nonlinearity correction enabled: false
Boxcar width: 0
Storing dark spectrum: false
XAxis mode: Wavelengths
Number of Pixels in Spectrum: 1024
>>>>>Begin Spectral Data<<<<<
801.071	28177
801.214	28074
801.356	28051
801.499	27743
801.641	27709
801.783	27747
801.926	27694
802.068	27652
802.211	27424
802.353	27625
802.496	27405
802.638	27397
802.78	27313
802.923	27329
803.065	27100
803.208	27161
803.35	27188
803.492	27397
803.635	27485
803.777	27340
803.919	27462
804.061	27835
804.204	27587
804.346	27477
804.488	27454
804.63	27564
804.773	27412
804.915	27576
805.057	27485
805.199	27599
805.341	27614
805.483	27667
805.626	27747
805.768	27523
805.91	27587
806.052	27637
806.194	27424
806.336	27827
806.478	27625
806.62	27622
806.762	27797
806.904	27903
807.046	28185
807.188	28036
807.33	28185
807.472	28192
807.614	28185
807.756	28185
807.898	27861
808.04	27930
808.182	27960
808.324	27903
808.465	28006
808.607	28097
808.749	28363
808.891	28390
809.033	28481
809.174	28268
809.316	28322
809.458	28188
809.6	28329
809.741	28417
809.883	28310
810.025	28611
810.166	28656
810.308	28759
810.45	28538
810.591	28459
810.733	28341
810.875	28276
811.016	28234
811.158	28200
811.299	28478
811.441	28531
811.582	28508
811.724	28462
811.865	28390
812.007	28363
812.148	28382
812.29	28379
812.431	28516
812.573	28607
812.714	28752
812.855	28919
812.997	28858
813.138	29033
813.279	29025
813.421	28771
813.562	28923
813.703	28641
813.845	28577
813.986	28333
814.127	28162
814.268	28006
814.41	28150
814.551	27975
814.692	28131
814.833	27945
814.974	28040
815.115	28105
815.256	27953
815.397	27816
815.539	27778
815.68	27968
815.821	27698
815.962	27739
816.103	27694
816.244	27709
816.385	27610
816.526	27576
816.666	27485
816.807	27351
816.948	27325
817.089	27374
817.23	27424
817.371	27367
817.512	27310
817.653	27195
817.793	27214
817.934	27180
818.075	27424
818.216	27241
818.356	27214
818.497	27173
818.638	27070
818.778	27085
818.919	27039
819.06	27062
819.2	27169
819.341	27351
819.481	27340
819.622	27408
819.762	27614
819.903	27625
820.043	27553
820.184	27447
820.324	27329
820.465	27534
820.605	27408
820.746	27367
820.886	27119
821.026	27329
821.167	27332
821.307	27477
821.447	27340
821.588	27332
821.728	26971
821.868	26975
822.008	26773
822.149	26762
822.289	26720
822.429	26415
822.569	26461
822.709	26400
822.849	26389
822.99	26347
823.13	26358
823.27	26244
823.41	26202
823.55	25947
823.69	26012
823.83	26096
823.97	26058
824.11	25974
824.25	25974
824.389	25917
824.529	25883
824.669	25947
824.809	25978
824.949	26001
825.089	26001
825.228	25944
825.368	25757
825.508	25791
825.648	25841
825.787	25765
825.927	25814
826.067	25757
826.206	25708
826.346	25879
826.485	25742
826.625	25803
826.765	25811
826.904	25883
827.044	25601
827.183	25499
827.323	25354
827.462	25476
827.601	25521
827.741	25365
827.88	25628
828.02	25438
828.159	25525
828.298	25499
828.437	25590
828.577	25403
828.716	25540
828.855	25419
828.994	25141
829.134	25206
829.273	25221
829.412	25050
829.551	25183
829.69	25183
829.829	25141
829.968	25400
830.107	25171
830.246	25183
830.385	25198
830.524	25061
830.663	24958
830.802	24985
830.941	24783
831.08	24787
831.219	25027
831.357	24852
831.496	25084
831.635	24700
831.774	24741
831.913	24749
832.051	24677
832.19	24669
832.329	24669
832.467	24464
832.606	24551
832.744	24357
832.883	24422
833.022	24353
833.16	24479
833.299	24635
833.437	24410
833.576	24570
833.714	24490
833.852	24612
833.991	24551
834.129	24665
834.267	24566
834.406	24452
834.544	24426
834.682	24509
834.821	24505
834.959	24688
835.097	24475
835.235	24589
835.373	24498
835.511	24494
835.65	24422
835.788	24334
835.926	24235
836.064	24213
836.202	24251
836.34	24350
836.478	24357
836.615	24281
836.753	24422
836.891	24418
837.029	24433
837.167	24365
837.305	24174
837.443	24148
837.58	24129
837.718	24277
837.856	24270
837.993	24235
838.131	24133
838.269	24277
838.406	24079
838.544	24129
838.681	23767
838.819	23714
838.956	23745
839.094	23665
839.231	23794
839.369	23916
839.506	24049
839.643	23942
839.781	23665
839.918	23497
840.055	23638
840.193	23611
840.33	23455
840.467	23615
840.604	23665
840.742	23882
840.879	23501
841.016	23452
841.153	23433
841.29	23714
841.427	23516
841.564	23558
841.701	23531
841.838	23516
841.975	23414
842.112	23493
842.249	23353
842.385	23269
842.522	23547
842.659	23334
842.796	23284
842.933	23402
843.069	23235
843.206	23303
843.343	23315
843.479	23220
843.616	23372
843.752	23189
843.889	23159
844.025	23303
844.162	23064
844.298	23220
844.435	23041
844.571	22946
844.708	23193
844.844	23200
844.98	23299
845.117	23124
845.253	23056
845.389	23037
845.525	23006
845.661	22908
845.798	22736
845.934	22706
846.07	22858
846.206	22759
846.342	22881
846.478	22725
846.614	22519
846.75	22424
846.886	22653
847.022	22474
847.158	22588
847.294	22592
847.429	22592
847.565	22550
847.701	22736
847.837	22226
847.972	22177
848.108	22478
848.244	22306
848.379	22230
848.515	22120
848.65	22097
848.786	22120
848.921	22135
849.057	22215
849.192	22204
849.328	22265
849.463	22048
849.598	21987
849.734	22070
849.869	21979
850.004	21888
850.14	21956
850.275	21854
850.41	21804
850.545	21861
850.68	21903
850.815	21945
850.95	21979
851.085	21975
851.22	22070
851.355	21835
851.49	21835
851.625	21827
851.76	21876
851.895	21903
852.03	21876
852.165	21975
852.299	21968
852.434	21998
852.569	21960
852.703	21880
852.838	21861
852.973	22036
853.107	22078
853.242	21888
853.376	21797
853.511	21713
853.645	21652
853.78	21789
853.914	21804
854.048	21618
854.183	21747
854.317	21686
854.451	21827
854.585	21682
854.72	21720
854.854	21793
854.988	21644
855.122	21705
855.256	21652
855.39	21732
855.524	21781
855.658	21743
855.792	21766
855.926	21717
856.06	21663
856.194	21762
856.327	21599
856.461	21694
856.595	21682
856.729	21637
856.862	21823
856.996	21739
857.13	21663
857.263	21865
857.397	21842
857.53	21682
857.664	21724
857.797	21743
857.931	21816
858.064	21637
858.197	21785
858.331	21656
858.464	21576
858.597	21530
858.731	21644
858.864	21686
858.997	21717
859.13	21652
859.263	21690
859.396	21827
859.529	21682
859.662	21606
859.795	21625
859.928	21736
860.061	21842
860.194	21903
860.327	21861
860.46	21774
860.592	21812
860.725	21789
860.858	21816
860.99	21755
861.123	21671
861.256	21663
861.388	21629
861.521	22409
861.653	21633
861.786	21523
861.918	21576
862.05	21629
862.183	21637
862.315	21686
862.447	21717
862.58	21705
862.712	21321
862.844	21481
862.976	21561
863.108	21450
863.24	21755
863.372	21359
863.504	21351
863.636	21492
863.768	21439
863.9	21416
864.032	21378
864.164	21332
864.296	21340
864.428	21428
864.559	21488
864.691	21500
864.823	21405
864.954	21473
865.086	21359
865.217	21473
865.349	21195
865.48	21241
865.612	21169
865.743	21477
865.875	21382
866.006	21218
866.137	21367
866.269	21367
866.4	21344
866.531	21249
866.662	21214
866.793	21207
866.924	21275
867.055	21211
867.186	21218
867.317	21127
867.448	21100
867.579	21211
867.71	21157
867.841	21188
867.972	21260
868.103	21245
868.233	21332
868.364	21272
868.495	21416
868.625	21526
868.756	21534
868.886	21496
869.017	21492
869.147	21504
869.278	21614
869.408	21610
869.539	21481
869.669	21610
869.799	21652
869.929	21603
870.06	21629
870.19	21759
870.32	21682
870.45	21819
870.58	21926
870.71	21979
870.84	21934
870.97	21857
871.1	21892
871.23	22051
871.36	22013
871.489	21865
871.619	22105
871.749	22051
871.879	22150
872.008	22139
872.138	22067
872.267	22112
872.397	21949
872.526	21937
872.656	21915
872.785	21930
872.915	22048
873.044	22116
873.173	22116
873.303	22204
873.432	22158
873.561	22249
873.69	22124
873.819	22002
873.948	22162
874.077	22059
874.206	21941
874.335	22093
874.464	22135
874.593	22375
874.722	22204
874.851	22390
874.979	22238
875.108	22276
875.237	22147
875.365	22192
875.494	22257
875.623	22318
875.751	22215
875.88	22352
876.008	22455
876.136	22531
876.265	22672
876.393	22873
876.521	22702
876.65	22816
876.778	22698
876.906	22729
877.034	22641
877.162	22660
877.29	22554
877.418	22645
877.546	22664
877.674	22656
877.802	22584
877.93	22580
878.058	22565
878.185	22512
878.313	22592
878.441	22592
878.568	22455
878.696	22508
878.824	22736
878.951	22713
879.079	22801
879.206	22915
879.333	22885
879.461	22744
879.588	22672
879.715	22717
879.842	22930
879.97	22573
880.097	22474
880.224	22523
880.351	22451
880.478	22538
880.605	22474
880.732	22432
880.859	22691
880.986	22466
881.112	22489
881.239	22265
881.366	22261
881.493	22181
881.619	22097
881.746	22086
881.872	22021
881.999	21991
882.125	21949
882.252	21922
882.378	22010
882.505	22032
882.631	21854
882.757	21690
882.883	21835
883.01	21778
883.136	21717
883.262	21564
883.388	21545
883.514	21747
883.64	21778
883.766	21713
883.892	21511
884.018	21447
884.143	21823
884.269	21850
884.395	21462
884.52	21332
884.646	21310
884.772	21405
884.897	21313
885.023	21294
885.148	21549
885.274	21496
885.399	21477
885.524	21363
885.65	21408
885.775	21317
885.9	21355
886.025	21416
886.15	21553
886.275	21291
886.4	21188
886.525	21374
886.65	21207
886.775	21260
886.9	21564
887.025	21500
887.149	21313
887.274	21310
887.399	21123
887.523	21283
887.648	21116
887.773	21089
887.897	21199
888.021	21169
888.146	21131
888.27	21169
888.395	21192
888.519	21222
888.643	21104
888.767	21005
888.891	21074
889.015	21077
889.139	21009
889.263	20906
889.387	20937
889.511	21028
889.635	21085
889.759	20883
889.883	20906
890.006	20834
890.13	21066
890.254	20971
890.377	20849
890.501	20682
890.624	20537
890.748	20724
890.871	20613
890.995	20434
891.118	20400
891.241	20492
891.364	20473
891.488	20518
891.611	20602
891.734	20511
891.857	20617
891.98	20473
892.103	20454
892.226	20488
892.349	20438
892.471	20256
892.594	20476
892.717	20530
892.839	20442
892.962	20461
893.085	20473
893.207	20328
893.33	20278
893.452	20237
893.575	20454
893.697	20324
893.819	20590
893.941	20659
894.064	20522
894.186	20324
894.308	20237
894.43	20423
894.552	20552
894.674	20469
894.796	20317
894.918	20434
895.04	20275
895.161	20514
895.283	20431
895.405	20301
895.526	20511
895.648	20415
895.769	20347
895.891	20415
896.012	20457
896.134	20412
896.255	20351
896.376	20328
896.498	20362
896.619	20446
896.74	20454
896.861	20511
896.982	20716
897.103	20777
897.224	20609
897.345	20473
897.466	20530
897.587	20587
897.708	20724
897.828	20663
897.949	20499
898.07	20450
898.19	20621
898.311	20583
898.431	20564
898.552	20533
898.672	20674
898.792	20579
898.913	20571
899.033	20530
899.153	20442
899.273	20240
899.393	20404
899.513	20374
899.633	20191
899.753	20294
899.873	20267
899.993	20328
900.113	20324
900.232	20358
900.352	20237
900.472	20145
900.591	20142
900.711	20119
900.83	20046
900.95	20278
901.069	20183
901.189	19974
901.308	19776
901.427	19613
901.546	19670
901.665	19643
901.784	19814
901.904	19605
902.023	19426
902.141	19377
902.26	19255
902.379	19327
902.498	19232
902.617	19015
902.735	19194
902.854	19274
902.973	19133
903.091	18890
903.21	18768
903.328	18825
903.446	18806
903.565	18677
903.683	18639
903.801	18498
903.919	18734
904.038	18563
904.156	18441
904.274	18574
904.392	18566
904.51	18483
904.627	18391
904.745	18532
904.863	18517
904.981	18277
905.098	18136
905.216	18038
905.334	18152
905.451	18083
905.569	18091
905.686	18235
905.803	18106
905.921	17923
906.038	18076
906.155	17904
906.272	17745
906.389	17840
906.506	17554
906.623	17661
906.74	17646
906.857	17566
906.974	17455
907.091	17786
907.208	17703
907.324	17802
907.441	17611
907.557	17482
907.674	17345
907.79	17296
907.907	17277
908.023	17349
908.139	17269
908.256	17307
908.372	17258
908.488	17235
908.604	17105
908.72	17064
908.836	17033
908.952	16995
909.068	17109
909.184	17113
909.3	17140
909.415	17098
909.531	16949
909.647	16782
909.762	16744
909.878	16736
909.993	16881
910.108	16831
910.224	16744
910.339	16755
910.454	16664
910.57	16687
910.685	16474
910.8	16786
910.915	16748
911.03	16618
911.145	16421
911.259	16398
911.374	16360
911.489	16306
911.604	16261
911.718	16071
911.833	16044
911.947	16032
912.062	15953
912.176	16154
912.291	16211
912.405	16128
912.519	16261
912.633	16409
912.748	16109
912.862	16040
912.976	16010
913.09	15766
913.204	15964
913.318	15850
913.431	15937
913.545	15907
913.659	16010
913.772	15861
913.886	15679
914	15625
914.113	15869
914.226	15789
914.34	15690
914.453	15679
914.566	15743
914.68	15633
914.793	15519
914.906	15363
915.019	15355
915.132	15329
915.245	15317
915.358	15367
915.47	15340
915.583	15207
915.696	15348
915.809	15420
915.921	15454
916.034	15298
916.146	15169
916.259	15195
916.371	15275
916.483	15188
916.595	15188
916.708	15165
916.82	15146
916.932	15085
917.044	15036
917.156	15135
917.268	15005
917.38	14902
917.491	14975
917.603	14986
917.715	15051
917.826	15097
917.938	14838
918.049	14830
918.161	14956
918.272	15024
918.384	14963
918.495	14933
918.606	14720
918.717	14746
918.828	14708
918.939	14743
919.05	14629
919.161	14701
919.272	14617
919.383	14545
919.494	14807
919.604	14895
919.715	14655
919.826	14503
919.936	14746
920.047	14727
920.157	14693
920.267	14781
920.378	14625
920.488	14651
920.598	14864
920.708	14982
920.818	14788
920.928	14735
921.038	14971
921.148	14880
921.258	14686
921.368	14404
921.477	14419
921.587	14393
921.697	14210
921.806	14461
921.916	14259
922.025	14145
922.134	14088
922.244	13974
922.353	14180
922.462	13841
922.571	13860
922.68	13784
922.789	13681
922.898	13753
923.007	13658
923.116	13723
923.224	13757
923.333	13537
923.442	13487
923.55	13510
923.659	13567
923.767	13609
923.876	13377
923.984	13533
924.092	13354
924.201	13407
924.309	13396
924.417	13548
924.525	13327
924.633	13381
924.741	14221
924.849	13171
924.956	13221
925.064	13133
925.172	13065
925.279	13114
925.387	13080
925.494	13122
925.602	13133
925.709	13164
925.816	12977
925.924	13000
926.031	13137
926.138	12951
926.245	13114
926.352	12958
926.459	12954
926.566	13053
926.673	12939
926.779	12856
926.886	12932
926.993	12681
927.099	12688
927.206	12585
927.312	12589
927.419	12715
927.525	12612
927.631	12673
927.737	12525
927.843	12528
927.95	12464
928.056	12467
928.162	12429
928.267	12521
928.373	13099
928.479	12578
928.585	12460
928.69	12391
928.796	12441
928.901	12323
929.007	12251
929.112	12388
929.218	12338
929.323	12182
929.428	12167
929.533	12338
929.638	12129
929.743	12182
929.848	12201
929.953	12087
930.058	12034
930.163	11897
930.267	11855
930.372	12007
930.477	11893
930.581	12098
930.685	11931
930.79	11805
930.894	11767
930.998	11798
931.103	11832
931.207	11573
931.311	11455
931.415	11372
931.519	11147
931.623	11193
