Data from test_V78500241_1694.txt Node
Date: Fri Mar 25 15:21:39 CST 2022
User: usil
Spectrometer: V785-0024
Trigger mode: 0
Integration Time (sec): 4.000000E-1
Scans to average: 1
Nonlinearity correction enabled: false
Boxcar width: 0
Storing dark spectrum: false
XAxis mode: Wavelengths
Number of Pixels in Spectrum: 1024
>>>>>Begin Spectral Data<<<<<
801.071	28139
801.214	28086
801.356	27876
801.499	27675
801.641	27583
801.783	27652
801.926	27542
802.068	27652
802.211	27526
802.353	27450
802.496	27275
802.638	27279
802.78	27222
802.923	27131
803.065	27222
803.208	27275
803.35	27245
803.492	27412
803.635	27492
803.777	27237
803.919	27359
804.061	27698
804.204	27450
804.346	27336
804.488	27317
804.63	27530
804.773	27466
804.915	27561
805.057	27561
805.199	27405
805.341	27443
805.483	27694
805.626	27641
805.768	27500
805.91	27595
806.052	27568
806.194	27481
806.336	27998
806.478	27644
806.62	27583
806.762	27732
806.904	27857
807.046	28131
807.188	28013
807.33	27914
807.472	28059
807.614	27869
807.756	27968
807.898	27934
808.04	27857
808.182	27880
808.324	27838
808.465	27953
808.607	27983
808.749	28169
808.891	28291
809.033	28333
809.174	28295
809.316	28185
809.458	28158
809.6	28306
809.741	28261
809.883	28424
810.025	28538
810.166	28516
810.308	28565
810.45	28379
810.591	28481
810.733	28204
810.875	28162
811.016	28181
811.158	28131
811.299	28284
811.441	28569
811.582	28337
811.724	28318
811.865	28280
812.007	28322
812.148	28265
812.29	28219
812.431	28413
812.573	28577
812.714	28755
812.855	28691
812.997	28980
813.138	29014
813.279	28949
813.421	28763
813.562	28820
813.703	28603
813.845	28447
813.986	28204
814.127	28139
814.268	27953
814.41	28021
814.551	27876
814.692	27968
814.833	27880
814.974	27937
815.115	28032
815.256	27808
815.397	27842
815.539	27705
815.68	27797
815.821	27701
815.962	27698
816.103	27682
816.244	27519
816.385	27519
816.526	27515
816.666	27211
816.807	27275
816.948	27252
817.089	27249
817.23	27233
817.371	27127
817.512	27161
817.653	27154
817.793	27218
817.934	27237
818.075	27184
818.216	27180
818.356	27169
818.497	27013
818.638	26956
818.778	26868
818.919	26990
819.06	26971
819.2	27150
819.341	27275
819.481	27161
819.622	27355
819.762	27599
819.903	27477
820.043	27321
820.184	27245
820.324	27420
820.465	27367
820.605	27431
820.746	27344
820.886	27188
821.026	27195
821.167	27226
821.307	27420
821.447	27207
821.588	27108
821.728	26940
821.868	26899
822.008	26716
822.149	26807
822.289	26697
822.429	26560
822.569	26412
822.709	26476
822.849	26313
822.99	26153
823.13	26161
823.27	26244
823.41	26065
823.55	26031
823.69	26157
823.83	25989
823.97	25966
824.11	25868
824.25	25856
824.389	25833
824.529	25978
824.669	25791
824.809	26130
824.949	25826
825.089	25963
825.228	25887
825.368	25795
825.508	25776
825.648	25700
825.787	25791
825.927	25849
826.067	25765
826.206	25814
826.346	25784
826.485	25769
826.625	25704
826.765	25856
826.904	25776
827.044	25506
827.183	25521
827.323	25483
827.462	25487
827.601	25506
827.741	25396
827.88	25525
828.02	25377
828.159	25457
828.298	25506
828.437	25525
828.577	25285
828.716	25590
828.855	25392
828.994	25282
829.134	25339
829.273	25308
829.412	25179
829.551	25091
829.69	25232
829.829	25350
829.968	25194
830.107	25266
830.246	25304
830.385	25126
830.524	25042
830.663	24992
830.802	24829
830.941	24726
831.08	24760
831.219	24821
831.357	24920
831.496	24954
831.635	24730
831.774	24757
831.913	24791
832.051	24521
832.19	24509
832.329	24616
832.467	24494
832.606	24418
832.744	24483
832.883	24601
833.022	24353
833.16	24433
833.299	24334
833.437	24467
833.576	24578
833.714	24452
833.852	24593
833.991	24692
834.129	24597
834.267	24700
834.406	24525
834.544	24566
834.682	24585
834.821	24464
834.959	24760
835.097	24486
835.235	24627
835.373	24623
835.511	24486
835.65	24433
835.788	24327
835.926	24201
836.064	24159
836.202	24155
836.34	24266
836.478	24505
836.615	24448
836.753	24456
836.891	24505
837.029	24437
837.167	24205
837.305	24232
837.443	24338
837.58	24129
837.718	24300
837.856	24220
837.993	24098
838.131	24098
838.269	24167
838.406	24106
838.544	24182
838.681	23824
838.819	23802
838.956	23642
839.094	23634
839.231	23771
839.369	23912
839.506	24038
839.643	23882
839.781	23718
839.918	23596
840.055	23604
840.193	23752
840.33	23528
840.467	23657
840.604	23646
840.742	23851
840.879	23459
841.016	23630
841.153	23425
841.29	23676
841.427	23596
841.564	23676
841.701	23467
841.838	23516
841.975	23516
842.112	23391
842.249	23349
842.385	23277
842.522	23425
842.659	23452
842.796	23288
842.933	23356
843.069	23250
843.206	23337
843.343	23482
843.479	23353
843.616	23353
843.752	23231
843.889	23102
844.025	23189
844.162	23140
844.298	23193
844.435	23052
844.571	23014
844.708	23231
844.844	23265
844.98	23197
845.117	23189
845.253	23105
845.389	22946
845.525	22923
845.661	22938
845.798	22908
845.934	22839
846.07	22809
846.206	22904
846.342	22911
846.478	22774
846.614	22634
846.75	22531
846.886	22603
847.022	22641
847.158	22649
847.294	22542
847.429	22702
847.565	22584
847.701	22664
847.837	22303
847.972	22329
848.108	22405
848.244	22421
848.379	22257
848.515	22093
848.65	22242
848.786	22211
848.921	22154
849.057	22211
849.192	22181
849.328	22200
849.463	22147
849.598	22048
849.734	22162
849.869	21960
850.004	21884
850.14	21994
850.275	21968
850.41	21926
850.545	21854
850.68	21930
850.815	22013
850.95	21884
851.085	22101
851.22	21991
851.355	21975
851.49	21895
851.625	22013
851.76	21827
851.895	21899
852.03	21804
852.165	21953
852.299	22032
852.434	22090
852.569	21884
852.703	21972
852.838	21941
852.973	22040
853.107	21960
853.242	21876
853.376	21724
853.511	21610
853.645	21610
853.78	21812
853.914	21785
854.048	21728
854.183	21797
854.317	21739
854.451	21827
854.585	21755
854.72	21732
854.854	21816
854.988	21614
855.122	21724
855.256	21568
855.39	21774
855.524	21823
855.658	21793
855.792	21785
855.926	21717
856.06	21751
856.194	21812
856.327	21759
856.461	21644
856.595	21679
856.729	21759
856.862	21739
856.996	21656
857.13	21854
857.263	21960
857.397	21842
857.53	21823
857.664	21857
857.797	21675
857.931	21918
858.064	21701
858.197	21854
858.331	21679
858.464	21671
858.597	21538
858.731	21759
858.864	21679
858.997	21686
859.13	21793
859.263	21793
859.396	21892
859.529	21698
859.662	21679
859.795	21732
859.928	21819
860.061	21911
860.194	21819
860.327	21823
860.46	21857
860.592	21953
860.725	21911
860.858	22021
860.99	21698
861.123	21625
861.256	21671
861.388	21622
861.521	22398
861.653	21648
861.786	21500
861.918	21530
862.05	21568
862.183	21587
862.315	21736
862.447	21679
862.58	21614
862.712	21530
862.844	21473
862.976	21633
863.108	21557
863.24	21823
863.372	21454
863.504	21355
863.636	21439
863.768	21397
863.9	21507
864.032	21370
864.164	21405
864.296	21545
864.428	21530
864.559	21656
864.691	21542
864.823	21386
864.954	21317
865.086	21420
865.217	21473
865.349	21173
865.48	21348
865.612	21287
865.743	21416
865.875	21454
866.006	21294
866.137	21351
866.269	21431
866.4	21222
866.531	21272
866.662	21230
866.793	21310
866.924	21332
867.055	21272
867.186	21241
867.317	21218
867.448	21176
867.579	21222
867.71	21184
867.841	21036
867.972	21226
868.103	21154
868.233	21310
868.364	21241
868.495	21351
868.625	21439
868.756	21606
868.886	21500
869.017	21568
869.147	21523
869.278	21561
869.408	21580
869.539	21530
869.669	21641
869.799	21485
869.929	21759
870.06	21614
870.19	21785
870.32	21774
870.45	21964
870.58	21964
870.71	21888
870.84	22010
870.97	21937
871.1	21857
871.23	22063
871.36	22051
871.489	22036
871.619	22067
871.749	22078
871.879	22101
872.008	22128
872.138	22090
872.267	22135
872.397	22082
872.526	21956
872.656	21972
872.785	21888
872.915	22097
873.044	22223
873.173	22055
873.303	22017
873.432	22185
873.561	22120
873.69	22173
873.819	22070
873.948	22177
874.077	22154
874.206	22040
874.335	22078
874.464	22147
874.593	22253
874.722	22280
874.851	22348
874.979	22379
875.108	22466
875.237	22348
875.365	22215
875.494	22314
875.623	22363
875.751	22226
875.88	22310
876.008	22394
876.136	22432
876.265	22831
876.393	22729
876.521	22873
876.65	22740
876.778	22645
876.906	22656
877.034	22649
877.162	22691
877.29	22710
877.418	22634
877.546	22713
877.674	22675
877.802	22733
877.93	22672
878.058	22649
878.185	22516
878.313	22557
878.441	22702
878.568	22512
878.696	22626
878.824	22752
878.951	22675
879.079	22858
879.206	22911
879.333	22698
879.461	22740
879.588	22793
879.715	22949
879.842	22930
879.97	22622
880.097	22466
880.224	22489
880.351	22409
880.478	22516
880.605	22504
880.732	22478
880.859	22668
880.986	22523
881.112	22402
881.239	22344
881.366	22287
881.493	22287
881.619	21884
881.746	22032
881.872	22120
881.999	21903
882.125	21975
882.252	22143
882.378	22055
882.505	22246
882.631	21922
882.757	21778
882.883	21869
883.01	21762
883.136	21641
883.262	21637
883.388	21568
883.514	21819
883.64	21766
883.766	21724
883.892	21530
884.018	21576
884.143	21648
884.269	21785
884.395	21374
884.52	21359
884.646	21294
884.772	21268
884.897	21291
885.023	21424
885.148	21469
885.274	21572
885.399	21481
885.524	21268
885.65	21511
885.775	21363
885.9	21374
886.025	21420
886.15	21515
886.275	21370
886.4	21199
886.525	21306
886.65	21340
886.775	21370
886.9	21542
887.025	21538
887.149	21291
887.274	21233
887.399	21146
887.523	21184
887.648	21188
887.773	21032
887.897	21218
888.021	21264
888.146	21070
888.27	21222
888.395	21287
888.519	21123
888.643	21157
888.767	21275
888.891	21207
889.015	20895
889.139	21051
889.263	20880
889.387	21017
889.511	21195
889.635	21066
889.759	21085
889.883	20952
890.006	20971
890.13	21017
890.254	20838
890.377	20918
890.501	20705
890.624	20583
890.748	20606
890.871	20655
890.995	20518
891.118	20537
891.241	20461
891.364	20484
891.488	20724
891.611	20484
891.734	20480
891.857	20644
891.98	20484
892.103	20625
892.226	20537
892.349	20317
892.471	20271
892.594	20476
892.717	20442
892.839	20473
892.962	20389
893.085	20438
893.207	20393
893.33	20385
893.452	20355
893.575	20480
893.697	20434
893.819	20560
893.941	20564
894.064	20503
894.186	20434
894.308	20324
894.43	20514
894.552	20522
894.674	20492
894.796	20301
894.918	20275
895.04	20351
895.161	20423
895.283	20381
895.405	20328
895.526	20377
895.648	20256
895.769	20461
895.891	20438
896.012	20358
896.134	20408
896.255	20511
896.376	20412
896.498	20419
896.619	20396
896.74	20438
896.861	20446
896.982	20708
897.103	20689
897.224	20708
897.345	20629
897.466	20568
897.587	20659
897.708	20716
897.828	20636
897.949	20530
898.07	20465
898.19	20549
898.311	20697
898.431	20560
898.552	20655
898.672	20655
898.792	20621
898.913	20777
899.033	20473
899.153	20343
899.273	20343
899.393	20412
899.513	20412
899.633	20324
899.753	20347
899.873	20313
899.993	20336
900.113	20206
900.232	20408
900.352	20237
900.472	20347
900.591	20191
900.711	20065
900.83	19894
900.95	20176
901.069	20202
901.189	19978
901.308	19944
901.427	19685
901.546	19685
901.665	19704
901.784	19677
901.904	19613
902.023	19434
902.141	19381
902.26	19152
902.379	19396
902.498	19278
902.617	19209
902.735	19301
902.854	19171
902.973	19103
903.091	18977
903.21	18852
903.328	18909
903.446	18856
903.565	18821
903.683	18582
903.801	18604
903.919	18692
904.038	18654
904.156	18471
904.274	18601
904.392	18357
904.51	18464
904.627	18506
904.745	18509
904.863	18517
904.981	18159
905.098	18079
905.216	18159
905.334	18064
905.451	18087
905.569	18178
905.686	18133
905.803	18155
905.921	17893
906.038	18041
906.155	17950
906.272	17745
906.389	17855
906.506	17687
906.623	17630
906.74	17668
906.857	17512
906.974	17490
907.091	17745
907.208	17840
907.324	17737
907.441	17653
907.557	17383
907.674	17501
907.79	17345
907.907	17334
908.023	17505
908.139	17417
908.256	17311
908.372	17204
908.488	17162
908.604	17185
908.72	17200
908.836	17124
908.952	17014
909.068	17090
909.184	17189
909.3	17037
909.415	17105
909.531	17018
909.647	16881
909.762	16847
909.878	16725
909.993	16721
910.108	16881
910.224	16733
910.339	16782
910.454	16649
910.57	16599
910.685	16580
910.8	16858
910.915	16679
911.03	16523
911.145	16363
911.259	16356
911.374	16440
911.489	16325
911.604	16318
911.718	16097
911.833	16150
911.947	16013
912.062	15857
912.176	16154
912.291	16215
912.405	16044
912.519	16329
912.633	16310
912.748	16036
912.862	16101
912.976	15975
913.09	15781
913.204	15861
913.318	15945
913.431	16036
913.545	15956
913.659	15994
913.772	15793
913.886	15705
914	15724
914.113	15846
914.226	15827
914.34	15812
914.453	15675
914.566	15766
914.68	15530
914.793	15603
914.906	15439
915.019	15416
915.132	15313
915.245	15245
915.358	15332
915.47	15382
915.583	15294
915.696	15306
915.809	15420
915.921	15435
916.034	15237
916.146	15085
916.259	15233
916.371	15393
916.483	15359
916.595	15169
916.708	15207
916.82	15146
916.932	15119
917.044	15062
917.156	15104
917.268	15066
917.38	14952
917.491	14929
917.603	14986
917.715	14990
917.826	15039
917.938	14979
918.049	14834
918.161	14937
918.272	15104
918.384	15047
918.495	14921
918.606	14758
918.717	14701
918.828	14834
918.939	14697
919.05	14640
919.161	14769
919.272	14522
919.383	14640
919.494	14716
919.604	14861
919.715	14648
919.826	14587
919.936	14537
920.047	14670
920.157	14735
920.267	14773
920.378	14617
920.488	14693
920.598	14864
920.708	14971
920.818	14765
920.928	14811
921.038	14963
921.148	14880
921.258	14602
921.368	14629
921.477	14385
921.587	14389
921.697	14355
921.806	14450
921.916	14233
922.025	14138
922.134	14058
922.244	14020
922.353	14130
922.462	14092
922.571	13868
922.68	13704
922.789	13731
922.898	13750
923.007	13658
923.116	13856
923.224	13639
923.333	13757
923.442	13575
923.55	13499
923.659	13559
923.767	13594
923.876	13506
923.984	13518
924.092	13384
924.201	13582
924.309	13445
924.417	13460
924.525	13285
924.633	13358
924.741	14073
924.849	13145
924.956	13331
925.064	13209
925.172	13012
925.279	13122
925.387	13137
925.494	13065
925.602	13149
925.709	13198
925.816	12935
925.924	13023
926.031	13107
926.138	13095
926.245	13183
926.352	12985
926.459	13095
926.566	13095
926.673	12958
926.779	12886
926.886	12852
926.993	12814
927.099	12623
927.206	12631
927.312	12642
927.419	12753
927.525	12665
927.631	12681
927.737	12551
927.843	12517
927.95	12388
928.056	12528
928.162	12467
928.267	12528
928.373	13091
928.479	12536
928.585	12292
928.69	12407
928.796	12437
928.901	12311
929.007	12190
929.112	12372
929.218	12277
929.323	12258
929.428	12209
929.533	12235
929.638	12140
929.743	12178
929.848	12186
929.953	12163
930.058	12038
930.163	11889
930.267	11973
930.372	12068
930.477	11878
930.581	11988
930.685	11977
930.79	11870
930.894	11771
930.998	11767
931.103	11863
931.207	11547
931.311	11417
931.415	11345
931.519	11181
931.623	11140
