Data from test_V78500241_775.txt Node
Date: Fri Mar 25 15:15:15 CST 2022
User: usil
Spectrometer: V785-0024
Trigger mode: 0
Integration Time (sec): 4.000000E-1
Scans to average: 1
Nonlinearity correction enabled: false
Boxcar width: 0
Storing dark spectrum: false
XAxis mode: Wavelengths
Number of Pixels in Spectrum: 1024
>>>>>Begin Spectral Data<<<<<
801.071	28280
801.214	28128
801.356	28021
801.499	27918
801.641	27789
801.783	27975
801.926	27804
802.068	27717
802.211	27698
802.353	27648
802.496	27450
802.638	27431
802.78	27351
802.923	27511
803.065	27523
803.208	27427
803.35	27450
803.492	27492
803.635	27603
803.777	27424
803.919	27603
804.061	27964
804.204	27671
804.346	27690
804.488	27603
804.63	27857
804.773	27644
804.915	27705
805.057	27808
805.199	27732
805.341	27774
805.483	27956
805.626	27895
805.768	27641
805.91	27648
806.052	27732
806.194	27663
806.336	27998
806.478	27960
806.62	28036
806.762	27884
806.904	28013
807.046	28223
807.188	28150
807.33	28204
807.472	28086
807.614	28097
807.756	28112
807.898	28131
808.04	28082
808.182	28147
808.324	28120
808.465	28109
808.607	28249
808.749	28421
808.891	28573
809.033	28664
809.174	28508
809.316	28580
809.458	28546
809.6	28497
809.741	28508
809.883	28573
810.025	28744
810.166	28759
810.308	28778
810.45	28672
810.591	28584
810.733	28386
810.875	28424
811.016	28413
811.158	28398
811.299	28611
811.441	28713
811.582	28508
811.724	28485
811.865	28424
812.007	28489
812.148	28497
812.29	28580
812.431	28710
812.573	28908
812.714	28934
812.855	29121
812.997	29170
813.138	29258
813.279	29136
813.421	29079
813.562	29071
813.703	28759
813.845	28828
813.986	28424
814.127	28322
814.268	28272
814.41	28261
814.551	28348
814.692	28116
814.833	28230
814.974	28112
815.115	28036
815.256	28124
815.397	28124
815.539	28128
815.68	28067
815.821	28002
815.962	27960
816.103	27960
816.244	28017
816.385	27934
816.526	27827
816.666	27641
816.807	27435
816.948	27633
817.089	27759
817.23	27675
817.371	27561
817.512	27534
817.653	27675
817.793	27500
817.934	27679
818.075	27439
818.216	27610
818.356	27416
818.497	27431
818.638	27279
818.778	27321
818.919	27249
819.06	27355
819.2	27249
819.341	27481
819.481	27492
819.622	27610
819.762	27926
819.903	27800
820.043	27720
820.184	27629
820.324	27599
820.465	27709
820.605	27488
820.746	27549
820.886	27515
821.026	27568
821.167	27625
821.307	27644
821.447	27485
821.588	27477
821.728	27154
821.868	27214
822.008	27127
822.149	26891
822.289	26796
822.429	26777
822.569	26587
822.709	26651
822.849	26480
822.99	26446
823.13	26408
823.27	26400
823.41	26286
823.55	26157
823.69	26157
823.83	26161
823.97	26202
824.11	26001
824.25	26134
824.389	26191
824.529	26298
824.669	26149
824.809	26244
824.949	26214
825.089	26195
825.228	26168
825.368	26115
825.508	26027
825.648	26115
825.787	26107
825.927	26024
826.067	25868
826.206	25974
826.346	25928
826.485	26046
826.625	26096
826.765	25955
826.904	26065
827.044	25780
827.183	25780
827.323	25719
827.462	25940
827.601	25647
827.741	25715
827.88	25757
828.02	25594
828.159	25799
828.298	25890
828.437	25811
828.577	25753
828.716	25803
828.855	25544
828.994	25358
829.134	25441
829.273	25514
829.412	25369
829.551	25479
829.69	25479
829.829	25320
829.968	25575
830.107	25514
830.246	25460
830.385	25457
830.524	25236
830.663	25148
830.802	25339
830.941	24992
831.08	24924
831.219	25171
831.357	25141
831.496	25289
831.635	24951
831.774	24966
831.913	24875
832.051	24681
832.19	24905
832.329	24859
832.467	24658
832.606	24661
832.744	24566
832.883	24711
833.022	24661
833.16	24604
833.299	24768
833.437	24749
833.576	24852
833.714	24856
833.852	24802
833.991	24951
834.129	24833
834.267	24791
834.406	24734
834.544	24817
834.682	24772
834.821	24833
834.959	24863
835.097	24730
835.235	24867
835.373	24688
835.511	24681
835.65	24616
835.788	24566
835.926	24536
836.064	24441
836.202	24350
836.34	24677
836.478	24772
836.615	24604
836.753	24551
836.891	24608
837.029	24544
837.167	24559
837.305	24509
837.443	24475
837.58	24361
837.718	24540
837.856	24437
837.993	24456
838.131	24338
838.269	24315
838.406	24369
838.544	24049
838.681	24038
838.819	23977
838.956	23984
839.094	23931
839.231	23916
839.369	24076
839.506	24300
839.643	24232
839.781	23882
839.918	23843
840.055	23851
840.193	23923
840.33	23912
840.467	23851
840.604	23828
840.742	24007
840.879	23832
841.016	23676
841.153	23764
841.29	23783
841.427	23783
841.564	23836
841.701	23775
841.838	23809
841.975	23741
842.112	23691
842.249	23482
842.385	23520
842.522	23707
842.659	23566
842.796	23554
842.933	23547
843.069	23497
843.206	23558
843.343	23718
843.479	23570
843.616	23528
843.752	23341
843.889	23376
844.025	23478
844.162	23330
844.298	23425
844.435	23414
844.571	23292
844.708	23334
844.844	23467
844.98	23448
845.117	23383
845.253	23261
845.389	23235
845.525	23269
845.661	23189
845.798	22987
845.934	23083
846.07	22980
846.206	22972
846.342	23117
846.478	23067
846.614	22786
846.75	22679
846.886	22763
847.022	22828
847.158	22881
847.294	22809
847.429	22862
847.565	22725
847.701	23044
847.837	22523
847.972	22447
848.108	22649
848.244	22565
848.379	22417
848.515	22402
848.65	22382
848.786	22333
848.921	22402
849.057	22504
849.192	22531
849.328	22287
849.463	22405
849.598	22379
849.734	22246
849.869	22135
850.004	22082
850.14	22177
850.275	22192
850.41	22070
850.545	22143
850.68	22029
850.815	22226
850.95	22150
851.085	22238
851.22	22238
851.355	22268
851.49	22204
851.625	22048
851.76	22105
851.895	22048
852.03	21899
852.165	22067
852.299	22192
852.434	22207
852.569	22253
852.703	22101
852.838	22238
852.973	22257
853.107	22246
853.242	22124
853.376	22070
853.511	21827
853.645	21899
853.78	22048
853.914	22090
854.048	21899
854.183	21953
854.317	22055
854.451	22226
854.585	22036
854.72	21861
854.854	22105
854.988	21915
855.122	21968
855.256	21720
855.39	21975
855.524	22097
855.658	22044
855.792	21972
855.926	22044
856.06	22070
856.194	22128
856.327	21876
856.461	21865
856.595	22051
856.729	21930
856.862	22032
856.996	22010
857.13	21926
857.263	22101
857.397	22135
857.53	21903
857.664	22090
857.797	21941
857.931	22029
858.064	21861
858.197	22093
858.331	21994
858.464	21968
858.597	21922
858.731	22017
858.864	21975
858.997	21823
859.13	22013
859.263	21907
859.396	22002
859.529	21892
859.662	21960
859.795	21827
859.928	22006
860.061	22169
860.194	22196
860.327	22223
860.46	22055
860.592	22090
860.725	21987
860.858	22082
860.99	22063
861.123	21907
861.256	21922
861.388	21998
861.521	22717
861.653	21846
861.786	21770
861.918	21781
862.05	21724
862.183	21899
862.315	21838
862.447	22097
862.58	21751
862.712	21698
862.844	21644
862.976	21739
863.108	21701
863.24	22173
863.372	21603
863.504	21656
863.636	21720
863.768	21629
863.9	21606
864.032	21629
864.164	21633
864.296	21694
864.428	21789
864.559	21789
864.691	21770
864.823	21793
864.954	21614
865.086	21523
865.217	21625
865.349	21534
865.48	21595
865.612	21580
865.743	21656
865.875	21610
866.006	21583
866.137	21572
866.269	21568
866.4	21538
866.531	21641
866.662	21492
866.793	21576
866.924	21473
867.055	21523
867.186	21618
867.317	21458
867.448	21462
867.579	21549
867.71	21367
867.841	21416
867.972	21545
868.103	21408
868.233	21462
868.364	21549
868.495	21568
868.625	21747
868.756	21865
868.886	21576
869.017	21789
869.147	21808
869.278	21759
869.408	21701
869.539	21797
869.669	21778
869.799	21808
869.929	21846
870.06	21838
870.19	21987
870.32	22067
870.45	22078
870.58	22177
870.71	22211
870.84	22177
870.97	22154
871.1	22105
871.23	22421
871.36	22322
871.489	22162
871.619	22295
871.749	22265
871.879	22382
872.008	22436
872.138	22257
872.267	22382
872.397	22063
872.526	22112
872.656	22135
872.785	22074
872.915	22337
873.044	22352
873.173	22470
873.303	22371
873.432	22421
873.561	22462
873.69	22337
873.819	22226
873.948	22474
874.077	22360
874.206	22344
874.335	22325
874.464	22398
874.593	22668
874.722	22565
874.851	22516
874.979	22630
875.108	22592
875.237	22504
875.365	22573
875.494	22489
875.623	22561
875.751	22497
875.88	22527
876.008	22664
876.136	22683
876.265	22904
876.393	23033
876.521	22972
876.65	23098
876.778	23018
876.906	22778
877.034	22774
877.162	22896
877.29	22740
877.418	22946
877.546	22839
877.674	22854
877.802	22854
877.93	22866
878.058	22885
878.185	22801
878.313	22934
878.441	22911
878.568	22634
878.696	22866
878.824	22927
878.951	22976
879.079	22976
879.206	23178
879.333	23151
879.461	22782
879.588	22987
879.715	22961
879.842	23003
879.97	22934
880.097	22736
880.224	22565
880.351	22809
880.478	22721
880.605	22626
880.732	22744
880.859	22797
880.986	22771
881.112	22634
881.239	22607
881.366	22421
881.493	22360
881.619	22272
881.746	22318
881.872	22333
881.999	22090
882.125	22181
882.252	22322
882.378	22226
882.505	22386
882.631	22147
882.757	22116
882.883	22044
883.01	21968
883.136	21854
883.262	21865
883.388	21903
883.514	21975
883.64	22013
883.766	21918
883.892	21728
884.018	21701
884.143	21953
884.269	21865
884.395	21610
884.52	21614
884.646	21633
884.772	21644
884.897	21614
885.023	21599
885.148	21819
885.274	21903
885.399	21720
885.524	21454
885.65	21606
885.775	21572
885.9	21496
886.025	21717
886.15	21709
886.275	21591
886.4	21386
886.525	21641
886.65	21519
886.775	21485
886.9	21679
887.025	21876
887.149	21614
887.274	21359
887.399	21393
887.523	21412
887.648	21325
887.773	21264
887.897	21408
888.021	21317
888.146	21230
888.27	21534
888.395	21511
888.519	21435
888.643	21428
888.767	21428
888.891	21173
889.015	21180
889.139	21108
889.263	21195
889.387	21291
889.511	21420
889.635	21165
889.759	21017
889.883	21169
890.006	21184
890.13	21241
890.254	20960
890.377	21009
890.501	20910
890.624	20845
890.748	20971
890.871	20918
890.995	20659
891.118	20697
891.241	20686
891.364	20697
891.488	20933
891.611	20838
891.734	20804
891.857	20864
891.98	20727
892.103	20750
892.226	20697
892.349	20602
892.471	20609
892.594	20598
892.717	20724
892.839	20590
892.962	20651
893.085	20697
893.207	20602
893.33	20537
893.452	20469
893.575	20617
893.697	20712
893.819	20708
893.941	20853
894.064	20861
894.186	20518
894.308	20499
894.43	20712
894.552	20796
894.674	20689
894.796	20530
894.918	20625
895.04	20556
895.161	20663
895.283	20629
895.405	20393
895.526	20564
895.648	20537
895.769	20632
895.891	20617
896.012	20708
896.134	20549
896.255	20545
896.376	20674
896.498	20651
896.619	20621
896.74	20560
896.861	20697
896.982	20906
897.103	20994
897.224	20807
897.345	20937
897.466	20678
897.587	20811
897.708	20933
897.828	20853
897.949	20689
898.07	20674
898.19	20697
898.311	20849
898.431	20655
898.552	20826
898.672	20811
898.792	20853
898.913	20777
899.033	20720
899.153	20632
899.273	20446
899.393	20541
899.513	20659
899.633	20560
899.753	20457
899.873	20511
899.993	20590
900.113	20484
900.232	20617
900.352	20408
900.472	20317
900.591	20298
900.711	20286
900.83	20172
900.95	20412
901.069	20454
901.189	20275
901.308	19963
901.427	19833
901.546	19947
901.665	19887
901.784	19864
901.904	19822
902.023	19647
902.141	19419
902.26	19430
902.379	19514
902.498	19430
902.617	19358
902.735	19392
902.854	19335
902.973	19346
903.091	19133
903.21	19145
903.328	19027
903.446	18928
903.565	18928
903.683	18886
903.801	18734
903.919	18939
904.038	18859
904.156	18601
904.274	18749
904.392	18616
904.51	18559
904.627	18681
904.745	18703
904.863	18608
904.981	18506
905.098	18327
905.216	18308
905.334	18403
905.451	18239
905.569	18178
905.686	18403
905.803	18247
905.921	18053
906.038	18205
906.155	18182
906.272	18114
906.389	17999
906.506	17805
906.623	17870
906.74	17847
906.857	17665
906.974	17870
907.091	17790
907.208	18095
907.324	17809
907.441	17695
907.557	17630
907.674	17566
907.79	17497
907.907	17448
908.023	17516
908.139	17649
908.256	17376
908.372	17436
908.488	17364
908.604	17296
908.72	17239
908.836	17292
908.952	17326
909.068	17288
909.184	17395
909.3	17250
909.415	17334
909.531	17303
909.647	17018
909.762	16946
909.878	16972
909.993	16980
910.108	16873
910.224	16961
910.339	16980
910.454	16835
910.57	16744
910.685	16698
910.8	16824
910.915	17006
911.03	16679
911.145	16634
911.259	16630
911.374	16630
911.489	16398
911.604	16546
911.718	16367
911.833	16261
911.947	16105
912.062	16029
912.176	16135
912.291	16177
912.405	16230
912.519	16474
912.633	16409
912.748	16390
912.862	16177
912.976	16135
913.09	16036
913.204	15979
913.318	16048
913.431	16154
913.545	16093
913.659	16215
913.772	16177
913.886	15949
914	15857
914.113	16051
914.226	15991
914.34	15991
914.453	15720
914.566	15941
914.68	15816
914.793	15774
914.906	15580
915.019	15538
915.132	15428
915.245	15534
915.358	15485
915.47	15469
915.583	15443
915.696	15511
915.809	15622
915.921	15515
916.034	15443
916.146	15298
916.259	15332
916.371	15485
916.483	15492
916.595	15382
916.708	15252
916.82	15332
916.932	15268
917.044	15348
917.156	15294
917.268	15131
917.38	15180
917.491	15097
917.603	15047
917.715	15241
917.826	15199
917.938	15081
918.049	14990
918.161	15047
918.272	15195
918.384	15123
918.495	15104
918.606	14925
918.717	14838
918.828	14914
918.939	14868
919.05	14739
919.161	14883
919.272	14705
919.383	14697
919.494	14921
919.604	15085
919.715	14785
919.826	14765
919.936	14861
920.047	14891
920.157	14895
920.267	15024
920.378	14876
920.488	14830
920.598	14925
920.708	15119
920.818	14914
920.928	14971
921.038	15138
921.148	15116
921.258	14864
921.368	14731
921.477	14522
921.587	14583
921.697	14423
921.806	14488
921.916	14423
922.025	14278
922.134	14229
922.244	14202
922.353	14206
922.462	14081
922.571	14069
922.68	13871
922.789	13776
922.898	13814
923.007	13780
923.116	13887
923.224	13864
923.333	13814
923.442	13575
923.55	13628
923.659	13651
923.767	13689
923.876	13578
923.984	13670
924.092	13597
924.201	13563
924.309	13548
924.417	13651
924.525	13552
924.633	13426
924.741	14286
924.849	13312
924.956	13430
925.064	13232
925.172	13244
925.279	13228
925.387	13255
925.494	13202
925.602	13415
925.709	13270
925.816	13149
925.924	13278
926.031	13213
926.138	13145
926.245	13209
926.352	13023
926.459	13057
926.566	13324
926.673	13057
926.779	13015
926.886	12932
926.993	12844
927.099	12760
927.206	12745
927.312	12715
927.419	12840
927.525	12848
927.631	12825
927.737	12631
927.843	12544
927.95	12559
928.056	12582
928.162	12654
928.267	12608
928.373	13206
928.479	12662
928.585	12483
928.69	12521
928.796	12566
928.901	12483
929.007	12365
929.112	12486
929.218	12456
929.323	12346
929.428	12357
929.533	12509
929.638	12148
929.743	12254
929.848	12361
929.953	12327
930.058	12197
930.163	12038
930.267	12011
930.372	12182
930.477	11939
930.581	12232
930.685	12045
930.79	11935
930.894	11908
930.998	11859
931.103	11904
931.207	11630
931.311	11577
931.415	11493
931.519	11284
931.623	11318
