Data from test_V78500241_1771.txt Node
Date: Fri Mar 25 15:22:11 CST 2022
User: usil
Spectrometer: V785-0024
Trigger mode: 0
Integration Time (sec): 4.000000E-1
Scans to average: 1
Nonlinearity correction enabled: false
Boxcar width: 0
Storing dark spectrum: false
XAxis mode: Wavelengths
Number of Pixels in Spectrum: 1024
>>>>>Begin Spectral Data<<<<<
801.071	27998
801.214	27975
801.356	27861
801.499	27549
801.641	27580
801.783	27587
801.926	27580
802.068	27530
802.211	27469
802.353	27370
802.496	27249
802.638	27127
802.78	27150
802.923	27169
803.065	27222
803.208	27123
803.35	27104
803.492	27298
803.635	27386
803.777	27412
803.919	27488
804.061	27698
804.204	27561
804.346	27412
804.488	27199
804.63	27332
804.773	27340
804.915	27351
805.057	27595
805.199	27485
805.341	27542
805.483	27641
805.626	27538
805.768	27469
805.91	27576
806.052	27526
806.194	27466
806.336	27614
806.478	27534
806.62	27557
806.762	27701
806.904	27778
807.046	27934
807.188	27983
807.33	27956
807.472	27903
807.614	27823
807.756	27861
807.898	27808
808.04	27797
808.182	27743
808.324	27903
808.465	27743
808.607	28025
808.749	28120
808.891	28150
809.033	28280
809.174	28131
809.316	28128
809.458	28207
809.6	28200
809.741	28268
809.883	28280
810.025	28382
810.166	28356
810.308	28337
810.45	28341
810.591	28344
810.733	28211
810.875	28082
811.016	28002
811.158	27869
811.299	28196
811.441	28211
811.582	28230
811.724	28158
811.865	28200
812.007	28185
812.148	28204
812.29	28211
812.431	28379
812.573	28405
812.714	28664
812.855	28523
812.997	28820
813.138	28793
813.279	28843
813.421	28615
813.562	28653
813.703	28360
813.845	28261
813.986	28097
814.127	27956
814.268	27660
814.41	28040
814.551	27743
814.692	27941
814.833	27804
814.974	27800
815.115	27937
815.256	27701
815.397	27671
815.539	27827
815.68	27542
815.821	27526
815.962	27778
816.103	27618
816.244	27561
816.385	27416
816.526	27222
816.666	27230
816.807	27226
816.948	27287
817.089	27268
817.23	27176
817.371	27066
817.512	27001
817.653	27005
817.793	27138
817.934	27047
818.075	27081
818.216	27051
818.356	26998
818.497	26845
818.638	26819
818.778	26944
818.919	26876
819.06	26861
819.2	27055
819.341	27195
819.481	27237
819.622	27222
819.762	27488
819.903	27416
820.043	27370
820.184	27287
820.324	27272
820.465	27222
820.605	27165
820.746	27146
820.886	27195
821.026	27184
821.167	27096
821.307	27264
821.447	27214
821.588	27017
821.728	26899
821.868	26887
822.008	26537
822.149	26629
822.289	26686
822.429	26469
822.569	26317
822.709	26366
822.849	26275
822.99	26214
823.13	26142
823.27	26149
823.41	25959
823.55	25898
823.69	26001
823.83	25883
823.97	26016
824.11	25727
824.25	25677
824.389	25818
824.529	25837
824.669	25769
824.809	26031
824.949	25898
825.089	25913
825.228	25849
825.368	25635
825.508	25620
825.648	25632
825.787	25746
825.927	25715
826.067	25620
826.206	25567
826.346	25738
826.485	25826
826.625	25620
826.765	25693
826.904	25685
827.044	25590
827.183	25499
827.323	25422
827.462	25518
827.601	25445
827.741	25297
827.88	25441
828.02	25247
828.159	25381
828.298	25529
828.437	25430
828.577	25285
828.716	25483
828.855	25278
828.994	25259
829.134	25103
829.273	25091
829.412	25110
829.551	25080
829.69	25126
829.829	25042
829.968	25160
830.107	25084
830.246	25095
830.385	25099
830.524	24890
830.663	24829
830.802	24654
830.941	24772
831.08	24707
831.219	24738
831.357	24677
831.496	24916
831.635	24684
831.774	24753
831.913	24570
832.051	24407
832.19	24464
832.329	24471
832.467	24464
832.606	24258
832.744	24410
832.883	24361
833.022	24311
833.16	24433
833.299	24502
833.437	24380
833.576	24540
833.714	24384
833.852	24551
833.991	24410
834.129	24604
834.267	24498
834.406	24372
834.544	24517
834.682	24532
834.821	24582
834.959	24509
835.097	24403
835.235	24490
835.373	24505
835.511	24414
835.65	24190
835.788	24395
835.926	24235
836.064	24068
836.202	23977
836.34	24384
836.478	24471
836.615	24388
836.753	24296
836.891	24403
837.029	24338
837.167	24194
837.305	24144
837.443	24239
837.58	24095
837.718	24148
837.856	24194
837.993	23908
838.131	24197
838.269	24026
838.406	24136
838.544	23916
838.681	23729
838.819	23699
838.956	23615
839.094	23695
839.231	23737
839.369	23779
839.506	23958
839.643	23954
839.781	23589
839.918	23558
840.055	23608
840.193	23589
840.33	23505
840.467	23516
840.604	23577
840.742	23707
840.879	23459
841.016	23512
841.153	23398
841.29	23459
841.427	23539
841.564	23505
841.701	23463
841.838	23440
841.975	23239
842.112	23440
842.249	23334
842.385	23273
842.522	23490
842.659	23265
842.796	23231
842.933	23368
843.069	23124
843.206	23330
843.343	23448
843.479	23269
843.616	23337
843.752	23029
843.889	22938
844.025	23200
844.162	22968
844.298	23109
844.435	23098
844.571	23041
844.708	23086
844.844	23181
844.98	23193
845.117	23151
845.253	23037
845.389	22843
845.525	22999
845.661	22889
845.798	22873
845.934	22793
846.07	22748
846.206	22820
846.342	22904
846.478	22660
846.614	22527
846.75	22424
846.886	22516
847.022	22584
847.158	22523
847.294	22679
847.429	22561
847.565	22512
847.701	22809
847.837	22242
847.972	22226
848.108	22318
848.244	22379
848.379	22162
848.515	22063
848.65	22055
848.786	21968
848.921	22082
849.057	22219
849.192	22185
849.328	22242
849.463	21987
849.598	22013
849.734	21941
849.869	21861
850.004	21884
850.14	21945
850.275	21873
850.41	21709
850.545	21736
850.68	21759
850.815	21797
850.95	21941
851.085	22048
851.22	22093
851.355	21857
851.49	21789
851.625	21827
851.76	21778
851.895	21774
852.03	21698
852.165	21850
852.299	21873
852.434	21941
852.569	21819
852.703	21876
852.838	21892
852.973	22021
853.107	21975
853.242	21819
853.376	21720
853.511	21515
853.645	21755
853.78	21686
853.914	21739
854.048	21686
854.183	21732
854.317	21660
854.451	21808
854.585	21652
854.72	21747
854.854	21759
854.988	21682
855.122	21736
855.256	21538
855.39	21656
855.524	21743
855.658	21641
855.792	21694
855.926	21724
856.06	21736
856.194	21641
856.327	21641
856.461	21580
856.595	21610
856.729	21625
856.862	21667
856.996	21835
857.13	21675
857.263	21918
857.397	21842
857.53	21557
857.664	21785
857.797	21686
857.931	21736
858.064	21690
858.197	21797
858.331	21690
858.464	21580
858.597	21625
858.731	21679
858.864	21682
858.997	21603
859.13	21583
859.263	21625
859.396	21800
859.529	21652
859.662	21675
859.795	21667
859.928	21705
860.061	21876
860.194	21941
860.327	21755
860.46	21694
860.592	21857
860.725	21850
860.858	21857
860.99	21717
861.123	21663
861.256	21728
861.388	21671
861.521	22508
861.653	21515
861.786	21435
861.918	21637
862.05	21637
862.183	21564
862.315	21682
862.447	21747
862.58	21576
862.712	21378
862.844	21310
862.976	21481
863.108	21492
863.24	21759
863.372	21473
863.504	21294
863.636	21466
863.768	21458
863.9	21386
864.032	21321
864.164	21329
864.296	21462
864.428	21583
864.559	21401
864.691	21466
864.823	21386
864.954	21256
865.086	21317
865.217	21188
865.349	21195
865.48	21226
865.612	21374
865.743	21344
865.875	21401
866.006	21230
866.137	21294
866.269	21245
866.4	21260
866.531	21173
866.662	21173
866.793	21176
866.924	21272
867.055	21272
867.186	21180
867.317	21184
867.448	21116
867.579	21150
867.71	21138
867.841	21207
867.972	21256
868.103	21260
868.233	21161
868.364	21287
868.495	21211
868.625	21435
868.756	21511
868.886	21382
869.017	21397
869.147	21587
869.278	21572
869.408	21496
869.539	21504
869.669	21519
869.799	21492
869.929	21564
870.06	21557
870.19	21876
870.32	21759
870.45	21827
870.58	21816
870.71	21907
870.84	21915
870.97	21880
871.1	21759
871.23	22040
871.36	22029
871.489	21968
871.619	22055
871.749	21968
871.879	22006
872.008	22211
872.138	22059
872.267	22074
872.397	21876
872.526	21945
872.656	21819
872.785	21888
872.915	22078
873.044	21987
873.173	22074
873.303	22074
873.432	22185
873.561	22196
873.69	22158
873.819	22097
873.948	22116
874.077	21934
874.206	22082
874.335	22109
874.464	22154
874.593	22200
874.722	22268
874.851	22200
874.979	22402
875.108	22344
875.237	22257
875.365	22215
875.494	22226
875.623	22287
875.751	22181
875.88	22253
876.008	22405
876.136	22459
876.265	22577
876.393	22862
876.521	22831
876.65	22694
876.778	22660
876.906	22569
877.034	22603
877.162	22607
877.29	22546
877.418	22683
877.546	22626
877.674	22542
877.802	22664
877.93	22683
878.058	22523
878.185	22432
878.313	22660
878.441	22694
878.568	22390
878.696	22542
878.824	22793
878.951	22611
879.079	22668
879.206	22812
879.333	22809
879.461	22637
879.588	22687
879.715	22809
879.842	22828
879.97	22694
880.097	22462
880.224	22485
880.351	22481
880.478	22386
880.605	22402
880.732	22466
880.859	22550
880.986	22466
881.112	22455
881.239	22226
881.366	22238
881.493	22177
881.619	22055
881.746	22070
881.872	21964
881.999	21911
882.125	22032
882.252	22116
882.378	21956
882.505	22131
882.631	21838
882.757	21690
882.883	21876
883.01	21583
883.136	21713
883.262	21629
883.388	21549
883.514	21739
883.64	21766
883.766	21610
883.892	21549
884.018	21553
884.143	21728
884.269	21804
884.395	21428
884.52	21439
884.646	21401
884.772	21233
884.897	21230
885.023	21340
885.148	21389
885.274	21545
885.399	21466
885.524	21325
885.65	21469
885.775	21466
885.9	21466
886.025	21424
886.15	21481
886.275	21310
886.4	21195
886.525	21294
886.65	21287
886.775	21249
886.9	21401
887.025	21477
887.149	21378
887.274	21085
887.399	21123
887.523	21085
887.648	21055
887.773	21150
887.897	21184
888.021	21108
888.146	20948
888.27	21214
888.395	21264
888.519	21108
888.643	21157
888.767	21169
888.891	21051
889.015	21013
889.139	21001
889.263	20910
889.387	20979
889.511	21237
889.635	21119
889.759	20937
889.883	21024
890.006	21062
890.13	20925
890.254	20849
890.377	20773
890.501	20629
890.624	20689
890.748	20735
890.871	20602
890.995	20457
891.118	20476
891.241	20461
891.364	20454
891.488	20560
891.611	20419
891.734	20568
891.857	20484
891.98	20522
892.103	20446
892.226	20362
892.349	20457
892.471	20240
892.594	20343
892.717	20499
892.839	20275
892.962	20332
893.085	20484
893.207	20336
893.33	20298
893.452	20221
893.575	20377
893.697	20267
893.819	20530
893.941	20492
894.064	20427
894.186	20313
894.308	20248
894.43	20587
894.552	20511
894.674	20442
894.796	20263
894.918	20324
895.04	20351
895.161	20442
895.283	20370
895.405	20362
895.526	20237
895.648	20419
895.769	20457
895.891	20457
896.012	20461
896.134	20381
896.255	20305
896.376	20229
896.498	20343
896.619	20480
896.74	20332
896.861	20393
896.982	20587
897.103	20826
897.224	20651
897.345	20530
897.466	20564
897.587	20552
897.708	20739
897.828	20526
897.949	20560
898.07	20442
898.19	20492
898.311	20712
898.431	20434
898.552	20613
898.672	20598
898.792	20655
898.913	20526
899.033	20480
899.153	20305
899.273	20180
899.393	20343
899.513	20305
899.633	20343
899.753	20282
899.873	20187
899.993	20145
900.113	20225
900.232	20164
900.352	20214
900.472	20161
900.591	19917
900.711	20039
900.83	20043
900.95	20111
901.069	20088
901.189	19936
901.308	19696
901.427	19677
901.546	19674
901.665	19734
901.784	19761
901.904	19559
902.023	19441
902.141	19278
902.26	19099
902.379	19289
902.498	19156
902.617	19141
902.735	19183
902.854	19187
902.973	19072
903.091	18787
903.21	18875
903.328	18817
903.446	18779
903.565	18620
903.683	18650
903.801	18574
903.919	18578
904.038	18574
904.156	18513
904.274	18536
904.392	18441
904.51	18429
904.627	18544
904.745	18464
904.863	18616
904.981	18106
905.098	18220
905.216	18133
905.334	17980
905.451	18114
905.569	18064
905.686	18110
905.803	18019
905.921	17866
906.038	18015
906.155	17874
906.272	17840
906.389	17783
906.506	17722
906.623	17592
906.74	17668
906.857	17630
906.974	17528
907.091	17558
907.208	17752
907.324	17661
907.441	17547
907.557	17269
907.674	17395
907.79	17326
907.907	17242
908.023	17356
908.139	17307
908.256	17292
908.372	17227
908.488	17181
908.604	17037
908.72	17025
908.836	16995
908.952	16984
909.068	17048
909.184	17113
909.3	17060
909.415	16984
909.531	17056
909.647	16763
909.762	16782
909.878	16729
909.993	16710
910.108	16752
910.224	16713
910.339	16672
910.454	16618
910.57	16607
910.685	16382
910.8	16752
910.915	16755
911.03	16466
911.145	16360
911.259	16451
911.374	16299
911.489	16280
911.604	16261
911.718	16059
911.833	16044
911.947	15979
912.062	15899
912.176	16067
912.291	16032
912.405	15964
912.519	16223
912.633	16242
912.748	16147
912.862	15987
912.976	15876
913.09	15816
913.204	15903
913.318	15819
913.431	15915
913.545	15949
913.659	16013
913.772	15899
913.886	15755
914	15728
914.113	15857
914.226	15720
914.34	15698
914.453	15603
914.566	15759
914.68	15587
914.793	15587
914.906	15370
915.019	15370
915.132	15192
915.245	15211
915.358	15378
915.47	15310
915.583	15264
915.696	15275
915.809	15420
915.921	15450
916.034	15249
916.146	15173
916.259	15199
916.371	15287
916.483	15264
916.595	15150
916.708	15135
916.82	15062
916.932	15051
917.044	14994
917.156	15047
917.268	14819
917.38	14960
917.491	14982
917.603	15017
917.715	14975
917.826	14956
917.938	14864
918.049	14796
918.161	14868
918.272	15077
918.384	15070
918.495	14944
918.606	14716
918.717	14648
918.828	14651
918.939	14697
919.05	14564
919.161	14686
919.272	14339
919.383	14564
919.494	14769
919.604	14849
919.715	14629
919.826	14530
919.936	14571
920.047	14663
920.157	14697
920.267	14769
920.378	14708
920.488	14583
920.598	14819
920.708	14902
920.818	14724
920.928	14792
921.038	14963
921.148	14800
921.258	14522
921.368	14473
921.477	14389
921.587	14381
921.697	14199
921.806	14473
921.916	14275
922.025	14096
922.134	14005
922.244	13906
922.353	13986
922.462	13974
922.571	13902
922.68	13681
922.789	13723
922.898	13674
923.007	13632
923.116	13639
923.224	13708
923.333	13582
923.442	13472
923.55	13419
923.659	13483
923.767	13529
923.876	13453
923.984	13514
924.092	13274
924.201	13392
924.309	13449
924.417	13441
924.525	13312
924.633	13263
924.741	14073
924.849	13198
924.956	13304
925.064	13156
925.172	13061
925.279	13034
925.387	13088
925.494	13072
925.602	13240
925.709	13046
925.816	13015
925.924	13000
926.031	12981
926.138	12916
926.245	13042
926.352	12977
926.459	13061
926.566	13034
926.673	12886
926.779	12856
926.886	12795
926.993	12639
927.099	12741
927.206	12551
927.312	12585
927.419	12715
927.525	12559
927.631	12654
927.737	12494
927.843	12456
927.95	12410
928.056	12467
928.162	12475
928.267	12494
928.373	13057
928.479	12483
928.585	12262
928.69	12391
928.796	12388
928.901	12315
929.007	12228
929.112	12330
929.218	12247
929.323	12190
929.428	12175
929.533	12323
929.638	12041
929.743	12034
929.848	12213
929.953	12159
930.058	12057
930.163	11851
930.267	11893
930.372	12038
930.477	11855
930.581	12049
930.685	11885
930.79	11756
930.894	11824
930.998	11718
931.103	11805
931.207	11455
931.311	11452
931.415	11223
931.519	11064
931.623	11128
