Data from test_V78500241_2093.txt Node
Date: Fri Mar 25 15:24:25 CST 2022
User: usil
Spectrometer: V785-0024
Trigger mode: 0
Integration Time (sec): 4.000000E-1
Scans to average: 1
Nonlinearity correction enabled: false
Boxcar width: 0
Storing dark spectrum: false
XAxis mode: Wavelengths
Number of Pixels in Spectrum: 1024
>>>>>Begin Spectral Data<<<<<
801.071	27987
801.214	27774
801.356	27667
801.499	27443
801.641	27359
801.783	27408
801.926	27488
802.068	27500
802.211	27405
802.353	27252
802.496	27142
802.638	27047
802.78	27020
802.923	27096
803.065	27024
803.208	27024
803.35	27013
803.492	27272
803.635	27291
803.777	27116
803.919	27218
804.061	27606
804.204	27363
804.346	27325
804.488	27116
804.63	27340
804.773	27176
804.915	27245
805.057	27359
805.199	27268
805.341	27336
805.483	27523
805.626	27553
805.768	27310
805.91	27344
806.052	27439
806.194	27287
806.336	27720
806.478	27389
806.62	27447
806.762	27378
806.904	27686
807.046	27941
807.188	27732
807.33	27953
807.472	27873
807.614	27679
807.756	27816
807.898	27667
808.04	27515
808.182	27580
808.324	27595
808.465	27812
808.607	27838
808.749	28101
808.891	28242
809.033	28268
809.174	28093
809.316	28025
809.458	28063
809.6	27945
809.741	28230
809.883	28265
810.025	28303
810.166	28314
810.308	28276
810.45	28303
810.591	28154
810.733	28139
810.875	28051
811.016	27949
811.158	27774
811.299	27991
811.441	28265
811.582	28173
811.724	28101
811.865	27979
812.007	28059
812.148	27945
812.29	27998
812.431	28135
812.573	28371
812.714	28348
812.855	28592
812.997	28603
813.138	28805
813.279	28694
813.421	28630
813.562	28618
813.703	28322
813.845	28284
813.986	27865
814.127	27899
814.268	27804
814.41	27816
814.551	27717
814.692	27778
814.833	27641
814.974	27656
815.115	27644
815.256	27606
815.397	27549
815.539	27576
815.68	27447
815.821	27515
815.962	27629
816.103	27545
816.244	27325
816.385	27256
816.526	27230
816.666	27081
816.807	27001
816.948	27062
817.089	27104
817.23	27043
817.371	26937
817.512	27104
817.653	26921
817.793	26967
817.934	27066
818.075	27096
818.216	27123
818.356	26937
818.497	26948
818.638	26777
818.778	26826
818.919	26746
819.06	26906
819.2	26796
819.341	27077
819.481	26929
819.622	27119
819.762	27355
819.903	27306
820.043	27268
820.184	27184
820.324	27089
820.465	27222
820.605	27176
820.746	27104
820.886	26872
821.026	27176
821.167	27005
821.307	27203
821.447	26963
821.588	26982
821.728	26830
821.868	26659
822.008	26526
822.149	26461
822.289	26522
822.429	26145
822.569	26275
822.709	26119
822.849	25959
822.99	26084
823.13	25940
823.27	25868
823.41	25818
823.55	25742
823.69	25883
823.83	25890
823.97	25731
824.11	25635
824.25	25632
824.389	25540
824.529	25784
824.669	25563
824.809	25685
824.949	25803
825.089	25715
825.228	25750
825.368	25415
825.508	25476
825.648	25594
825.787	25628
825.927	25525
826.067	25362
826.206	25521
826.346	25483
826.485	25613
826.625	25460
826.765	25540
826.904	25422
827.044	25190
827.183	25198
827.323	25217
827.462	25278
827.601	25168
827.741	25255
827.88	25179
828.02	25110
828.159	25152
828.298	25190
828.437	25244
828.577	25031
828.716	25179
828.855	25148
828.994	24757
829.134	24894
829.273	24779
829.412	24924
829.551	24932
829.69	24837
829.829	24795
829.968	25008
830.107	24970
830.246	24935
830.385	24817
830.524	24787
830.663	24840
830.802	24544
830.941	24563
831.08	24448
831.219	24589
831.357	24578
831.496	24768
831.635	24490
831.774	24395
831.913	24319
832.051	24308
832.19	24315
832.329	24338
832.467	24140
832.606	24216
832.744	24068
832.883	24178
833.022	24041
833.16	24216
833.299	24289
833.437	24197
833.576	24148
833.714	24209
833.852	24224
833.991	24228
834.129	24308
834.267	24220
834.406	24251
834.544	24262
834.682	24197
834.821	24159
834.959	24334
835.097	24197
835.235	24292
835.373	24270
835.511	24213
835.65	23977
835.788	23999
835.926	23996
836.064	23771
836.202	23912
836.34	24053
836.478	24022
836.615	23965
836.753	24098
836.891	24102
837.029	24015
837.167	23988
837.305	23980
837.443	23912
837.58	23863
837.718	23946
837.856	23984
837.993	23764
838.131	23817
838.269	23722
838.406	23843
838.544	23718
838.681	23600
838.819	23531
838.956	23307
839.094	23505
839.231	23600
839.369	23581
839.506	23726
839.643	23604
839.781	23311
839.918	23140
840.055	23379
840.193	23395
840.33	23337
840.467	23337
840.604	23345
840.742	23505
840.879	23071
841.016	23318
841.153	23242
841.29	23353
841.427	23311
841.564	23303
841.701	23242
841.838	23311
841.975	23155
842.112	23166
842.249	23064
842.385	23022
842.522	23250
842.659	23052
842.796	22980
842.933	23044
843.069	22908
843.206	23037
843.343	23025
843.479	23052
843.616	23174
843.752	22889
843.889	22881
844.025	22949
844.162	22786
844.298	22961
844.435	22763
844.571	22725
844.708	22961
844.844	22892
844.98	22908
845.117	22854
845.253	22733
845.389	22721
845.525	22516
845.661	22637
845.798	22478
845.934	22573
846.07	22432
846.206	22611
846.342	22596
846.478	22459
846.614	22310
846.75	22238
846.886	22200
847.022	22382
847.158	22348
847.294	22253
847.429	22295
847.565	22169
847.701	22489
847.837	21937
847.972	21915
848.108	22036
848.244	22025
848.379	21842
848.515	21865
848.65	21903
848.786	21899
848.921	21911
849.057	21884
849.192	21838
849.328	21911
849.463	21876
849.598	21797
849.734	21759
849.869	21774
850.004	21625
850.14	21648
850.275	21587
850.41	21523
850.545	21568
850.68	21488
850.815	21618
850.95	21755
851.085	21854
851.22	21690
851.355	21633
851.49	21439
851.625	21580
851.76	21732
851.895	21553
852.03	21526
852.165	21580
852.299	21633
852.434	21660
852.569	21637
852.703	21618
852.838	21564
852.973	21846
853.107	21701
853.242	21610
853.376	21485
853.511	21340
853.645	21344
853.78	21580
853.914	21477
854.048	21488
854.183	21500
854.317	21507
854.451	21633
854.585	21469
854.72	21424
854.854	21595
854.988	21412
855.122	21481
855.256	21321
855.39	21374
855.524	21424
855.658	21458
855.792	21481
855.926	21408
856.06	21545
856.194	21576
856.327	21454
856.461	21428
856.595	21393
856.729	21412
856.862	21568
856.996	21492
857.13	21587
857.263	21610
857.397	21526
857.53	21424
857.664	21428
857.797	21424
857.931	21564
858.064	21481
858.197	21473
858.331	21431
858.464	21431
858.597	21367
858.731	21340
858.864	21405
858.997	21386
859.13	21454
859.263	21443
859.396	21458
859.529	21355
859.662	21428
859.795	21325
859.928	21431
860.061	21519
860.194	21561
860.327	21637
860.46	21488
860.592	21641
860.725	21656
860.858	21572
860.99	21424
861.123	21344
861.256	21340
861.388	21374
861.521	22048
861.653	21336
861.786	21237
861.918	21256
862.05	21321
862.183	21405
862.315	21374
862.447	21473
862.58	21313
862.712	21135
862.844	20971
862.976	21203
863.108	21245
863.24	21428
863.372	21127
863.504	21131
863.636	21142
863.768	21154
863.9	21055
864.032	21142
864.164	21009
864.296	21077
864.428	21218
864.559	21252
864.691	21233
864.823	21074
864.954	21123
865.086	21123
865.217	21039
865.349	20921
865.48	20941
865.612	20941
865.743	21135
865.875	21104
866.006	21062
866.137	21066
866.269	20925
866.4	21013
866.531	20902
866.662	20944
866.793	20986
866.924	21001
867.055	20986
867.186	21028
867.317	20899
867.448	20819
867.579	20921
867.71	20891
867.841	20785
867.972	21100
868.103	20948
868.233	20937
868.364	20925
868.495	21017
868.625	21112
868.756	21294
868.886	21176
869.017	21138
869.147	21325
869.278	21302
869.408	21230
869.539	21256
869.669	21348
869.799	21161
869.929	21370
870.06	21321
870.19	21447
870.32	21523
870.45	21614
870.58	21496
870.71	21652
870.84	21610
870.97	21625
871.1	21561
871.23	21732
871.36	21736
871.489	21637
871.619	21770
871.749	21816
871.879	21827
872.008	21888
872.138	21842
872.267	21675
872.397	21675
872.526	21614
872.656	21633
872.785	21739
872.915	21854
873.044	21865
873.173	21812
873.303	21739
873.432	21869
873.561	21918
873.69	21846
873.819	21823
873.948	21953
874.077	21827
874.206	21686
874.335	21857
874.464	21899
874.593	21930
874.722	21956
874.851	22105
874.979	22090
875.108	21991
875.237	21926
875.365	22002
875.494	21998
875.623	22093
875.751	21968
875.88	22086
876.008	22200
876.136	22166
876.265	22352
876.393	22523
876.521	22508
876.65	22554
876.778	22599
876.906	22394
877.034	22424
877.162	22356
877.29	22421
877.418	22386
877.546	22379
877.674	22329
877.802	22459
877.93	22341
878.058	22421
878.185	22299
878.313	22489
878.441	22428
878.568	22265
878.696	22409
878.824	22405
878.951	22451
879.079	22637
879.206	22588
879.333	22588
879.461	22554
879.588	22508
879.715	22592
879.842	22672
879.97	22440
880.097	22238
880.224	22147
880.351	22101
880.478	22249
880.605	21994
880.732	22295
880.859	22500
880.986	22154
881.112	22276
881.239	22093
881.366	21979
881.493	21857
881.619	21888
881.746	21797
881.872	21766
881.999	21679
882.125	21724
882.252	21724
882.378	21709
882.505	21998
882.631	21682
882.757	21523
882.883	21564
883.01	21481
883.136	21420
883.262	21363
883.388	21226
883.514	21466
883.64	21557
883.766	21393
883.892	21138
884.018	21291
884.143	21348
884.269	21507
884.395	21184
884.52	21036
884.646	21188
884.772	20986
884.897	21081
885.023	21199
885.148	21313
885.274	21275
885.399	21203
885.524	21093
885.65	21180
885.775	21081
885.9	21100
886.025	21207
886.15	21116
886.275	21039
886.4	20990
886.525	21074
886.65	21043
886.775	20967
886.9	21241
887.025	21348
887.149	20967
887.274	20921
887.399	21036
887.523	20781
887.648	20811
887.773	20712
887.897	20834
888.021	20815
888.146	20895
888.27	20960
888.395	21028
888.519	20933
888.643	20998
888.767	20842
888.891	20842
889.015	20731
889.139	20739
889.263	20674
889.387	20857
889.511	20830
889.635	20941
889.759	20754
889.883	20609
890.006	20640
890.13	20807
890.254	20545
890.377	20629
890.501	20492
890.624	20358
890.748	20454
890.871	20298
890.995	20298
891.118	20221
891.241	20267
891.364	20145
891.488	20347
891.611	20244
891.734	20358
891.857	20199
891.98	20252
892.103	20240
892.226	20313
892.349	20233
892.471	20115
892.594	20221
892.717	20180
892.839	20206
892.962	20218
893.085	20347
893.207	20164
893.33	19986
893.452	20050
893.575	20157
893.697	20073
893.819	20244
893.941	20381
894.064	20328
894.186	20081
894.308	20027
894.43	20225
894.552	20358
894.674	20275
894.796	20058
894.918	20119
895.04	20012
895.161	20176
895.283	20115
895.405	20103
895.526	20210
895.648	20153
895.769	20176
895.891	20199
896.012	20286
896.134	20153
896.255	20244
896.376	20126
896.498	20202
896.619	20191
896.74	20221
896.861	20210
896.982	20579
897.103	20659
897.224	20507
897.345	20362
897.466	20229
897.587	20400
897.708	20511
897.828	20324
897.949	20278
898.07	20187
898.19	20149
898.311	20507
898.431	20461
898.552	20385
898.672	20305
898.792	20533
898.913	20446
899.033	20362
899.153	20221
899.273	19989
899.393	20187
899.513	20237
899.633	20046
899.753	20145
899.873	19940
899.993	20088
900.113	20005
900.232	20062
900.352	19982
900.472	20046
900.591	19928
900.711	19875
900.83	19795
900.95	20016
901.069	20069
901.189	19727
901.308	19594
901.427	19506
901.546	19510
901.665	19506
901.784	19540
901.904	19407
902.023	19270
902.141	19168
902.26	19145
902.379	19133
902.498	19015
902.617	18993
902.735	19099
902.854	18958
902.973	18890
903.091	18776
903.21	18547
903.328	18684
903.446	18627
903.565	18475
903.683	18372
903.801	18399
903.919	18418
904.038	18369
904.156	18254
904.274	18224
904.392	18182
904.51	18201
904.627	18247
904.745	18171
904.863	18350
904.981	17961
905.098	17912
905.216	17988
905.334	17961
905.451	17904
905.569	17977
905.686	17889
905.803	17794
905.921	17680
906.038	17775
906.155	17684
906.272	17653
906.389	17600
906.506	17436
906.623	17516
906.74	17406
906.857	17280
906.974	17334
907.091	17421
907.208	17471
907.324	17417
907.441	17307
907.557	17265
907.674	17121
907.79	17064
907.907	17117
908.023	17170
908.139	17143
908.256	17162
908.372	17124
908.488	17018
908.604	16858
908.72	16904
908.836	16873
908.952	16862
909.068	16820
909.184	16900
909.3	16892
909.415	16854
909.531	16949
909.647	16634
909.762	16527
909.878	16519
909.993	16592
910.108	16573
910.224	16538
910.339	16478
910.454	16489
910.57	16322
910.685	16257
910.8	16538
910.915	16558
911.03	16322
911.145	16261
911.259	16226
911.374	16147
911.489	16010
911.604	16116
911.718	15884
911.833	15854
911.947	15751
912.062	15728
912.176	15937
912.291	15797
912.405	15827
912.519	16032
912.633	16082
912.748	16010
912.862	15819
912.976	15800
913.09	15785
913.204	15774
913.318	15675
913.431	15804
913.545	15747
913.659	15812
913.772	15698
913.886	15549
914	15447
914.113	15671
914.226	15713
914.34	15633
914.453	15401
914.566	15641
914.68	15393
914.793	15397
914.906	15294
915.019	15055
915.132	15100
915.245	15207
915.358	15195
915.47	15180
915.583	15154
915.696	15203
915.809	15154
915.921	15233
916.034	15142
916.146	15051
916.259	15047
916.371	15100
916.483	15081
916.595	15036
916.708	15055
916.82	15005
916.932	14937
917.044	14982
917.156	14899
917.268	14773
917.38	14830
917.491	14750
917.603	14849
917.715	14872
917.826	14823
917.938	14689
918.049	14602
918.161	14720
918.272	14853
918.384	14853
918.495	14754
918.606	14644
918.717	14587
918.828	14606
918.939	14473
919.05	14431
919.161	14431
919.272	14332
919.383	14381
919.494	14571
919.604	14697
919.715	14590
919.826	14412
919.936	14374
920.047	14648
920.157	14492
920.267	14697
920.378	14533
920.488	14454
920.598	14587
920.708	14792
920.818	14644
920.928	14625
921.038	14788
921.148	14724
921.258	14393
921.368	14412
921.477	14221
921.587	14290
921.697	14073
921.806	14180
921.916	14031
922.025	13944
922.134	13940
922.244	13814
922.353	13970
922.462	13818
922.571	13647
922.68	13556
922.789	13521
922.898	13525
923.007	13453
923.116	13556
923.224	13518
923.333	13537
923.442	13403
923.55	13335
923.659	13324
923.767	13373
923.876	13362
923.984	13457
924.092	13206
924.201	13308
924.309	13206
924.417	13194
924.525	13194
924.633	13209
924.741	13989
924.849	12985
924.956	13091
925.064	12977
925.172	12863
925.279	12935
925.387	13042
925.494	12958
925.602	13023
925.709	13000
925.816	12814
925.924	12840
926.031	12977
926.138	12901
926.245	12890
926.352	12825
926.459	12966
926.566	12920
926.673	12821
926.779	12658
926.886	12768
926.993	12574
927.099	12437
927.206	12490
927.312	12475
927.419	12544
927.525	12460
927.631	12513
927.737	12338
927.843	12399
927.95	12205
928.056	12346
928.162	12418
928.267	12369
928.373	13065
928.479	12319
928.585	12190
928.69	12243
928.796	12334
928.901	12155
929.007	12079
929.112	12209
929.218	12270
929.323	12117
929.428	12129
929.533	12125
929.638	11988
929.743	12015
929.848	12110
929.953	11999
930.058	11977
930.163	11802
930.267	11771
930.372	11885
930.477	11741
930.581	11973
930.685	11836
930.79	11665
930.894	11577
930.998	11619
931.103	11665
931.207	11406
931.311	11296
931.415	11227
931.519	11102
931.623	11029
