Data from test_V78500241_1191.txt Node
Date: Fri Mar 25 15:18:08 CST 2022
User: usil
Spectrometer: V785-0024
Trigger mode: 0
Integration Time (sec): 4.000000E-1
Scans to average: 1
Nonlinearity correction enabled: false
Boxcar width: 0
Storing dark spectrum: false
XAxis mode: Wavelengths
Number of Pixels in Spectrum: 1024
>>>>>Begin Spectral Data<<<<<
801.071	28116
801.214	28044
801.356	27804
801.499	27850
801.641	27553
801.783	27625
801.926	27561
802.068	27614
802.211	27629
802.353	27424
802.496	27192
802.638	27268
802.78	27275
802.923	27116
803.065	27382
803.208	27260
803.35	27154
803.492	27504
803.635	27424
803.777	27416
803.919	27530
804.061	27812
804.204	27542
804.346	27458
804.488	27416
804.63	27519
804.773	27298
804.915	27553
805.057	27534
805.199	27325
805.341	27660
805.483	27496
805.626	27519
805.768	27500
805.91	27545
806.052	27614
806.194	27416
806.336	27812
806.478	27663
806.62	27538
806.762	27641
806.904	27880
807.046	28188
807.188	27975
807.33	27972
807.472	28147
807.614	28002
807.756	28025
807.898	27846
808.04	27941
808.182	28002
808.324	27914
808.465	27854
808.607	28074
808.749	28268
808.891	28192
809.033	28394
809.174	28314
809.316	28128
809.458	28196
809.6	28314
809.741	28569
809.883	28432
810.025	28535
810.166	28459
810.308	28508
810.45	28447
810.591	28360
810.733	28348
810.875	28181
811.016	28192
811.158	28105
811.299	28440
811.441	28303
811.582	28318
811.724	28265
811.865	28280
812.007	28257
812.148	28272
812.29	28204
812.431	28413
812.573	28603
812.714	28752
812.855	28691
812.997	28831
813.138	29048
813.279	28873
813.421	28733
813.562	28831
813.703	28596
813.845	28474
813.986	28207
814.127	28181
814.268	28017
814.41	27968
814.551	27838
814.692	27960
814.833	27930
814.974	27983
815.115	28124
815.256	27835
815.397	27793
815.539	27800
815.68	27663
815.821	27759
815.962	27755
816.103	27819
816.244	27618
816.385	27618
816.526	27424
816.666	27298
816.807	27241
816.948	27393
817.089	27348
817.23	27264
817.371	27192
817.512	27321
817.653	27279
817.793	27237
817.934	27222
818.075	27252
818.216	27298
818.356	27039
818.497	27093
818.638	26914
818.778	27070
818.919	27005
819.06	27096
819.2	27116
819.341	27291
819.481	27264
819.622	27340
819.762	27743
819.903	27351
820.043	27412
820.184	27496
820.324	27268
820.465	27568
820.605	27252
820.746	27462
820.886	27089
821.026	27317
821.167	27306
821.307	27412
821.447	27192
821.588	27161
821.728	27032
821.868	26800
822.008	26796
822.149	26716
822.289	26625
822.429	26427
822.569	26484
822.709	26457
822.849	26176
822.99	26263
823.13	26294
823.27	26351
823.41	26134
823.55	26058
823.69	26100
823.83	26001
823.97	26005
824.11	25898
824.25	25890
824.389	25917
824.529	26012
824.669	25963
824.809	26103
824.949	26043
825.089	26077
825.228	25936
825.368	25784
825.508	25769
825.648	25807
825.787	25845
825.927	25879
826.067	25791
826.206	25715
826.346	25734
826.485	25894
826.625	25753
826.765	25830
826.904	25826
827.044	25594
827.183	25537
827.323	25453
827.462	25525
827.601	25643
827.741	25377
827.88	25559
828.02	25449
828.159	25468
828.298	25499
828.437	25521
828.577	25460
828.716	25567
828.855	25453
828.994	25293
829.134	25304
829.273	25301
829.412	25129
829.551	25206
829.69	25270
829.829	25263
829.968	25331
830.107	25270
830.246	25251
830.385	25225
830.524	25244
830.663	24989
830.802	24996
830.941	24875
831.08	24806
831.219	24878
831.357	24928
831.496	25107
831.635	24897
831.774	24882
831.913	24654
832.051	24726
832.19	24620
832.329	24601
832.467	24490
832.606	24551
832.744	24498
832.883	24486
833.022	24616
833.16	24505
833.299	24593
833.437	24525
833.576	24612
833.714	24593
833.852	24566
833.991	24715
834.129	24642
834.267	24798
834.406	24688
834.544	24646
834.682	24707
834.821	24646
834.959	24776
835.097	24486
835.235	24684
835.373	24612
835.511	24631
835.65	24536
835.788	24395
835.926	24350
836.064	24243
836.202	24235
836.34	24395
836.478	24494
836.615	24429
836.753	24372
836.891	24422
837.029	24433
837.167	24357
837.305	24369
837.443	24399
837.58	24311
837.718	24209
837.856	24334
837.993	24338
838.131	24178
838.269	24155
838.406	24152
838.544	24083
838.681	23897
838.819	23939
838.956	23851
839.094	23718
839.231	23726
839.369	23874
839.506	24190
839.643	24076
839.781	23874
839.918	23710
840.055	23775
840.193	23809
840.33	23665
840.467	23699
840.604	23733
840.742	24018
840.879	23611
841.016	23566
841.153	23463
841.29	23699
841.427	23585
841.564	23737
841.701	23608
841.838	23596
841.975	23630
842.112	23558
842.249	23349
842.385	23326
842.522	23577
842.659	23383
842.796	23429
842.933	23421
843.069	23391
843.206	23360
843.343	23493
843.479	23547
843.616	23471
843.752	23235
843.889	23296
844.025	23360
844.162	23155
844.298	23269
844.435	23239
844.571	23269
844.708	23136
844.844	23277
844.98	23235
845.117	23322
845.253	23185
845.389	23044
845.525	22987
845.661	23029
845.798	22900
845.934	22987
846.07	22831
846.206	22862
846.342	23064
846.478	22938
846.614	22774
846.75	22561
846.886	22573
847.022	22801
847.158	22645
847.294	22702
847.429	22736
847.565	22626
847.701	22828
847.837	22485
847.972	22325
848.108	22402
848.244	22478
848.379	22246
848.515	22139
848.65	22257
848.786	22253
848.921	22318
849.057	22375
849.192	22318
849.328	22325
849.463	22280
849.598	22158
849.734	22204
849.869	22090
850.004	22040
850.14	21998
850.275	22010
850.41	21953
850.545	21964
850.68	21972
850.815	21994
850.95	21994
851.085	22200
851.22	22143
851.355	21911
851.49	21903
851.625	21941
851.76	21899
851.895	21922
852.03	21994
852.165	22010
852.299	21922
852.434	22135
852.569	22074
852.703	22078
852.838	22006
852.973	21956
853.107	22150
853.242	21895
853.376	21842
853.511	21686
853.645	21682
853.78	21895
853.914	21819
854.048	21831
854.183	21895
854.317	21804
854.451	21934
854.585	21789
854.72	21930
854.854	21850
854.988	21842
855.122	21804
855.256	21690
855.39	21781
855.524	21884
855.658	21907
855.792	21842
855.926	21800
856.06	21827
856.194	21930
856.327	21778
856.461	21732
856.595	21838
856.729	21880
856.862	21937
856.996	21835
857.13	21899
857.263	21918
857.397	21876
857.53	21808
857.664	21915
857.797	21823
857.931	21930
858.064	21846
858.197	21895
858.331	21759
858.464	21785
858.597	21713
858.731	21789
858.864	21739
858.997	21762
859.13	21865
859.263	21907
859.396	21861
859.529	21785
859.662	21819
859.795	21709
859.928	21888
860.061	21926
860.194	21998
860.327	21857
860.46	21800
860.592	21991
860.725	22025
860.858	21968
860.99	21945
861.123	21690
861.256	21724
861.388	21812
861.521	22630
861.653	21656
861.786	21637
861.918	21682
862.05	21663
862.183	21637
862.315	21785
862.447	21720
862.58	21751
862.712	21652
862.844	21606
862.976	21591
863.108	21576
863.24	21789
863.372	21469
863.504	21542
863.636	21355
863.768	21564
863.9	21515
864.032	21526
864.164	21488
864.296	21515
864.428	21610
864.559	21481
864.691	21633
864.823	21614
864.954	21595
865.086	21458
865.217	21420
865.349	21431
865.48	21412
865.612	21431
865.743	21583
865.875	21515
866.006	21336
866.137	21488
866.269	21420
866.4	21450
866.531	21363
866.662	21272
866.793	21313
866.924	21211
867.055	21450
867.186	21344
867.317	21310
867.448	21226
867.579	21249
867.71	21249
867.841	21237
867.972	21279
868.103	21302
868.233	21367
868.364	21469
868.495	21466
868.625	21534
868.756	21641
868.886	21500
869.017	21507
869.147	21800
869.278	21739
869.408	21599
869.539	21561
869.669	21660
869.799	21599
869.929	21713
870.06	21720
870.19	21941
870.32	21838
870.45	22010
870.58	21960
870.71	22059
870.84	22169
870.97	22006
871.1	21972
871.23	22074
871.36	22048
871.489	22029
871.619	22017
871.749	22276
871.879	22249
872.008	22344
872.138	22158
872.267	22150
872.397	22070
872.526	21979
872.656	22097
872.785	21888
872.915	22147
873.044	22291
873.173	22238
873.303	22276
873.432	22280
873.561	22246
873.69	22276
873.819	22284
873.948	22249
874.077	22223
874.206	22234
874.335	22131
874.464	22318
874.593	22386
874.722	22310
874.851	22478
874.979	22462
875.108	22295
875.237	22295
875.365	22207
875.494	22329
875.623	22390
875.751	22398
875.88	22519
876.008	22535
876.136	22565
876.265	22687
876.393	22820
876.521	22938
876.65	22839
876.778	22858
876.906	22702
877.034	22561
877.162	22831
877.29	22588
877.418	22786
877.546	22839
877.674	22782
877.802	22683
877.93	22786
878.058	22622
878.185	22565
878.313	22679
878.441	22634
878.568	22622
878.696	22630
878.824	22725
878.951	22839
879.079	22930
879.206	23025
879.333	22904
879.461	22755
879.588	22911
879.715	22889
879.842	23083
879.97	22790
880.097	22599
880.224	22443
880.351	22618
880.478	22516
880.605	22565
880.732	22550
880.859	22702
880.986	22516
881.112	22504
881.239	22462
881.366	22432
881.493	22158
881.619	22036
881.746	22204
881.872	22124
881.999	22055
882.125	22017
882.252	22215
882.378	22135
882.505	22192
882.631	21979
882.757	21857
882.883	21926
883.01	21739
883.136	21759
883.262	21637
883.388	21690
883.514	21804
883.64	21759
883.766	21713
883.892	21561
884.018	21660
884.143	21785
884.269	21888
884.395	21606
884.52	21450
884.646	21485
884.772	21317
884.897	21249
885.023	21599
885.148	21523
885.274	21644
885.399	21610
885.524	21477
885.65	21549
885.775	21523
885.9	21420
886.025	21587
886.15	21564
886.275	21435
886.4	21294
886.525	21416
886.65	21443
886.775	21389
886.9	21538
887.025	21557
887.149	21408
887.274	21268
887.399	21249
887.523	21207
887.648	21264
887.773	21161
887.897	21382
888.021	21317
888.146	21150
888.27	21336
888.395	21298
888.519	21374
888.643	21348
888.767	21226
888.891	21211
889.015	20986
889.139	21119
889.263	20952
889.387	21165
889.511	21116
889.635	21157
889.759	20956
889.883	20986
890.006	21123
890.13	21142
890.254	20910
890.377	21024
890.501	20788
890.624	20773
890.748	20880
890.871	20800
890.995	20609
891.118	20533
891.241	20651
891.364	20617
891.488	20758
891.611	20663
891.734	20564
891.857	20644
891.98	20533
892.103	20651
892.226	20583
892.349	20560
892.471	20370
892.594	20575
892.717	20499
892.839	20476
892.962	20446
893.085	20518
893.207	20377
893.33	20263
893.452	20423
893.575	20545
893.697	20408
893.819	20648
893.941	20674
894.064	20644
894.186	20431
894.308	20454
894.43	20663
894.552	20571
894.674	20537
894.796	20259
894.918	20465
895.04	20358
895.161	20663
895.283	20575
895.405	20332
895.526	20514
895.648	20199
895.769	20560
895.891	20526
896.012	20583
896.134	20492
896.255	20590
896.376	20450
896.498	20503
896.619	20533
896.74	20499
896.861	20541
896.982	20800
897.103	20788
897.224	20708
897.345	20629
897.466	20670
897.587	20697
897.708	20678
897.828	20762
897.949	20590
898.07	20514
898.19	20598
898.311	20815
898.431	20488
898.552	20727
898.672	20735
898.792	20693
898.913	20701
899.033	20594
899.153	20423
899.273	20290
899.393	20408
899.513	20332
899.633	20415
899.753	20431
899.873	20431
899.993	20366
900.113	20282
900.232	20396
900.352	20336
900.472	20324
900.591	20046
900.711	20237
900.83	20176
900.95	20252
901.069	20252
901.189	20062
901.308	19852
901.427	19700
901.546	19712
901.665	19750
901.784	19681
901.904	19472
902.023	19476
902.141	19247
902.26	19343
902.379	19415
902.498	19377
902.617	19187
902.735	19263
902.854	19259
902.973	19183
903.091	18909
903.21	19004
903.328	18875
903.446	18863
903.565	18795
903.683	18760
903.801	18642
903.919	18707
904.038	18593
904.156	18456
904.274	18684
904.392	18475
904.51	18391
904.627	18433
904.745	18555
904.863	18490
904.981	18330
905.098	18167
905.216	18106
905.334	18270
905.451	18216
905.569	18159
905.686	18148
905.803	18190
905.921	17992
906.038	18038
906.155	18083
906.272	17855
906.389	17828
906.506	17737
906.623	17703
906.74	17714
906.857	17684
906.974	17760
907.091	17927
907.208	17786
907.324	17764
907.441	17665
907.557	17459
907.674	17448
907.79	17364
907.907	17360
908.023	17455
908.139	17463
908.256	17368
908.372	17231
908.488	17288
908.604	17181
908.72	17170
908.836	17117
908.952	17162
909.068	17181
909.184	17235
909.3	17113
909.415	17124
909.531	17075
909.647	16892
909.762	16869
909.878	16900
909.993	16946
910.108	16908
910.224	16797
910.339	16706
910.454	16649
910.57	16607
910.685	16645
910.8	16790
910.915	16786
911.03	16653
911.145	16542
911.259	16390
911.374	16421
911.489	16314
911.604	16405
911.718	16242
911.833	16188
911.947	16002
912.062	15983
912.176	16181
912.291	16242
912.405	16093
912.519	16348
912.633	16333
912.748	16173
912.862	16131
912.976	16029
913.09	15838
913.204	15930
913.318	15949
913.431	16143
913.545	16021
913.659	16116
913.772	15968
913.886	15819
914	15865
914.113	15907
914.226	15941
914.34	15873
914.453	15732
914.566	15850
914.68	15686
914.793	15675
914.906	15439
915.019	15367
915.132	15428
915.245	15382
915.358	15370
915.47	15351
915.583	15348
915.696	15386
915.809	15447
915.921	15553
916.034	15359
916.146	15359
916.259	15245
916.371	15450
916.483	15332
916.595	15176
916.708	15252
916.82	15233
916.932	15195
917.044	15165
917.156	15188
917.268	15100
917.38	15173
917.491	14998
917.603	14971
917.715	15146
917.826	15108
917.938	14944
918.049	14781
918.161	15039
918.272	15157
918.384	15062
918.495	14990
918.606	14800
918.717	14682
918.828	14781
918.939	14743
919.05	14693
919.161	14823
919.272	14454
919.383	14560
919.494	14765
919.604	15020
919.715	14785
919.826	14663
919.936	14743
920.047	14826
920.157	14750
920.267	14891
920.378	14838
920.488	14739
920.598	14872
920.708	14994
920.818	14876
920.928	14880
921.038	15070
921.148	15028
921.258	14769
921.368	14545
921.477	14533
921.587	14518
921.697	14275
921.806	14484
921.916	14324
922.025	14142
922.134	14050
922.244	14012
922.353	14164
922.462	13917
922.571	13849
922.68	13803
922.789	13685
922.898	13822
923.007	13715
923.116	13719
923.224	13746
923.333	13719
923.442	13590
923.55	13609
923.659	13575
923.767	13651
923.876	13487
923.984	13624
924.092	13491
924.201	13495
924.309	13483
924.417	13453
924.525	13419
924.633	13533
924.741	14248
924.849	13209
924.956	13354
925.064	13209
925.172	13133
925.279	13194
925.387	13236
925.494	13103
925.602	13312
925.709	13160
925.816	13065
925.924	13061
926.031	13160
926.138	13038
926.245	13088
926.352	12905
926.459	13099
926.566	13194
926.673	12962
926.779	12821
926.886	12806
926.993	12700
927.099	12673
927.206	12730
927.312	12703
927.419	12753
927.525	12722
927.631	12665
927.737	12612
927.843	12616
927.95	12486
928.056	12540
928.162	12574
928.267	12536
928.373	13050
928.479	12665
928.585	12426
928.69	12464
928.796	12437
928.901	12498
929.007	12330
929.112	12319
929.218	12353
929.323	12262
929.428	12213
929.533	12289
929.638	12140
929.743	12163
929.848	12235
929.953	12121
930.058	12076
930.163	11893
930.267	11977
930.372	12038
930.477	11889
930.581	12117
930.685	11805
930.79	11798
930.894	11745
930.998	11790
931.103	11999
931.207	11547
931.311	11520
931.415	11341
931.519	11246
931.623	11124
