Data from test_V78500241_850.txt Node
Date: Fri Mar 25 15:15:46 CST 2022
User: usil
Spectrometer: V785-0024
Trigger mode: 0
Integration Time (sec): 4.000000E-1
Scans to average: 1
Nonlinearity correction enabled: false
Boxcar width: 0
Storing dark spectrum: false
XAxis mode: Wavelengths
Number of Pixels in Spectrum: 1024
>>>>>Begin Spectral Data<<<<<
801.071	28139
801.214	28025
801.356	28067
801.499	27804
801.641	27739
801.783	27755
801.926	27724
802.068	27648
802.211	27618
802.353	27622
802.496	27462
802.638	27252
802.78	27427
802.923	27504
803.065	27397
803.208	27416
803.35	27397
803.492	27496
803.635	27675
803.777	27538
803.919	27690
804.061	28048
804.204	27633
804.346	27485
804.488	27572
804.63	27686
804.773	27500
804.915	27694
805.057	27766
805.199	27637
805.341	27827
805.483	27709
805.626	27637
805.768	27633
805.91	27671
806.052	27686
806.194	27808
806.336	27819
806.478	27869
806.62	27842
806.762	28032
806.904	28082
807.046	28299
807.188	28173
807.33	28173
807.472	28291
807.614	28188
807.756	28192
807.898	27949
808.04	28021
808.182	28010
808.324	28021
808.465	28093
808.607	28303
808.749	28409
808.891	28485
809.033	28637
809.174	28538
809.316	28447
809.458	28493
809.6	28401
809.741	28653
809.883	28588
810.025	28717
810.166	28866
810.308	28740
810.45	28630
810.591	28713
810.733	28500
810.875	28398
811.016	28371
811.158	28314
811.299	28550
811.441	28569
811.582	28557
811.724	28424
811.865	28303
812.007	28253
812.148	28459
812.29	28546
812.431	28713
812.573	28759
812.714	28904
812.855	29079
812.997	29083
813.138	29322
813.279	29117
813.421	29022
813.562	28942
813.703	28892
813.845	28748
813.986	28500
814.127	28246
814.268	28120
814.41	28185
814.551	28215
814.692	28177
814.833	28097
814.974	28063
815.115	28158
815.256	28166
815.397	28040
815.539	28093
815.68	28048
815.821	27854
815.962	28040
816.103	27930
816.244	27835
816.385	27682
816.526	27751
816.666	27564
816.807	27412
816.948	27549
817.089	27663
817.23	27603
817.371	27511
817.512	27591
817.653	27481
817.793	27416
817.934	27431
818.075	27504
818.216	27515
818.356	27568
818.497	27272
818.638	27173
818.778	27123
818.919	27214
819.06	27386
819.2	27344
819.341	27481
819.481	27564
819.622	27675
819.762	27937
819.903	27724
820.043	27804
820.184	27633
820.324	27622
820.465	27587
820.605	27633
820.746	27583
820.886	27519
821.026	27660
821.167	27557
821.307	27766
821.447	27477
821.588	27302
821.728	27138
821.868	27245
822.008	26933
822.149	26960
822.289	26921
822.429	26670
822.569	26655
822.709	26659
822.849	26598
822.99	26480
823.13	26453
823.27	26377
823.41	26313
823.55	26233
823.69	26240
823.83	26187
823.97	26244
824.11	26164
824.25	26065
824.389	26149
824.529	26111
824.669	26111
824.809	26248
824.949	26347
825.089	26332
825.228	26069
825.368	26111
825.508	26043
825.648	26001
825.787	26024
825.927	26088
826.067	25989
826.206	25841
826.346	26001
826.485	26008
826.625	25982
826.765	26084
826.904	26005
827.044	25811
827.183	25811
827.323	25776
827.462	25715
827.601	25837
827.741	25666
827.88	25780
828.02	25567
828.159	25590
828.298	25715
828.437	25738
828.577	25655
828.716	25772
828.855	25586
828.994	25335
829.134	25346
829.273	25453
829.412	25316
829.551	25430
829.69	25331
829.829	25533
829.968	25506
830.107	25358
830.246	25335
830.385	25232
830.524	25255
830.663	25274
830.802	25012
830.941	24954
831.08	24890
831.219	25076
831.357	25095
831.496	25217
831.635	24894
831.774	24947
831.913	24970
832.051	24779
832.19	24715
832.329	24863
832.467	24707
832.606	24540
832.744	24570
832.883	24692
833.022	24681
833.16	24745
833.299	24661
833.437	24639
833.576	24798
833.714	24863
833.852	24768
833.991	24859
834.129	24905
834.267	24757
834.406	24646
834.544	24730
834.682	24787
834.821	24707
834.959	24947
835.097	24696
835.235	24764
835.373	24753
835.511	24677
835.65	24536
835.788	24544
835.926	24448
836.064	24407
836.202	24422
836.34	24604
836.478	24566
836.615	24540
836.753	24627
836.891	24677
837.029	24505
837.167	24452
837.305	24483
837.443	24460
837.58	24254
837.718	24407
837.856	24388
837.993	24262
838.131	24361
838.269	24384
838.406	24410
838.544	24350
838.681	24007
838.819	24091
838.956	23912
839.094	23916
839.231	23939
839.369	24068
839.506	24133
839.643	24121
839.781	23756
839.918	23821
840.055	23874
840.193	23722
840.33	23790
840.467	23741
840.604	23813
840.742	23984
840.879	23585
841.016	23672
841.153	23589
841.29	23832
841.427	23714
841.564	23843
841.701	23851
841.838	23680
841.975	23554
842.112	23710
842.249	23551
842.385	23402
842.522	23649
842.659	23627
842.796	23627
842.933	23433
843.069	23608
843.206	23497
843.343	23551
843.479	23528
843.616	23448
843.752	23280
843.889	23292
844.025	23634
844.162	23322
844.298	23414
844.435	23231
844.571	23345
844.708	23296
844.844	23429
844.98	23421
845.117	23406
845.253	23368
845.389	23102
845.525	23254
845.661	23235
845.798	23121
845.934	23098
846.07	22927
846.206	23056
846.342	23109
846.478	23010
846.614	22927
846.75	22721
846.886	22752
847.022	22816
847.158	22881
847.294	22801
847.429	22691
847.565	22733
847.701	22984
847.837	22561
847.972	22474
848.108	22634
848.244	22641
848.379	22402
848.515	22356
848.65	22390
848.786	22474
848.921	22447
849.057	22405
849.192	22474
849.328	22447
849.463	22432
849.598	22314
849.734	22367
849.869	22287
850.004	22090
850.14	22204
850.275	22128
850.41	21987
850.545	22070
850.68	22188
850.815	22078
850.95	22048
851.085	22230
851.22	22238
851.355	22188
851.49	22097
851.625	22078
851.76	22116
851.895	21880
852.03	21907
852.165	22147
852.299	22090
852.434	22135
852.569	22090
852.703	22188
852.838	22120
852.973	22173
853.107	22204
853.242	22120
853.376	22013
853.511	21724
853.645	21911
853.78	22032
853.914	21937
854.048	21964
854.183	21869
854.317	21972
854.451	22112
854.585	22097
854.72	21873
854.854	22025
854.988	21892
855.122	21892
855.256	21816
855.39	21861
855.524	21888
855.658	21994
855.792	22055
855.926	22032
856.06	21888
856.194	22048
856.327	21918
856.461	22025
856.595	21964
856.729	21823
856.862	21956
856.996	21892
857.13	21934
857.263	22109
857.397	22044
857.53	22036
857.664	22002
857.797	21991
857.931	22124
858.064	21895
858.197	22097
858.331	22021
858.464	21816
858.597	21892
858.731	21827
858.864	21926
858.997	21934
859.13	21945
859.263	22013
859.396	22010
859.529	21880
859.662	21937
859.795	21888
859.928	21983
860.061	22029
860.194	22139
860.327	22078
860.46	21895
860.592	22032
860.725	22185
860.858	21964
860.99	21956
861.123	21789
861.256	21876
861.388	21968
861.521	22721
861.653	21781
861.786	21747
861.918	21720
862.05	21770
862.183	21854
862.315	21895
862.447	21998
862.58	21827
862.712	21610
862.844	21568
862.976	21835
863.108	21766
863.24	22143
863.372	21538
863.504	21671
863.636	21679
863.768	21686
863.9	21511
864.032	21488
864.164	21591
864.296	21625
864.428	21759
864.559	21648
864.691	21701
864.823	21507
864.954	21679
865.086	21591
865.217	21614
865.349	21408
865.48	21504
865.612	21504
865.743	21656
865.875	21545
866.006	21431
866.137	21496
866.269	21492
866.4	21466
866.531	21420
866.662	21420
866.793	21443
866.924	21488
867.055	21492
867.186	21469
867.317	21519
867.448	21374
867.579	21439
867.71	21393
867.841	21420
867.972	21500
868.103	21378
868.233	21538
868.364	21481
868.495	21500
868.625	21568
868.756	21899
868.886	21675
869.017	21724
869.147	21835
869.278	21759
869.408	21656
869.539	21587
869.669	21747
869.799	21618
869.929	21994
870.06	21762
870.19	22010
870.32	21865
870.45	22029
870.58	22013
870.71	22128
870.84	22181
870.97	22105
871.1	22093
871.23	22268
871.36	22303
871.489	22139
871.619	22109
871.749	22265
871.879	22306
872.008	22443
872.138	22306
872.267	22249
872.397	22276
872.526	22051
872.656	22143
872.785	22211
872.915	22398
873.044	22295
873.173	22356
873.303	22284
873.432	22249
873.561	22337
873.69	22268
873.819	22371
873.948	22432
874.077	22268
874.206	22166
874.335	22337
874.464	22363
874.593	22603
874.722	22535
874.851	22641
874.979	22527
875.108	22603
875.237	22428
875.365	22459
875.494	22512
875.623	22615
875.751	22398
875.88	22413
876.008	22683
876.136	22702
876.265	22839
876.393	22995
876.521	22961
876.65	22911
876.778	22839
876.906	22733
877.034	22866
877.162	22889
877.29	22828
877.418	22873
877.546	22957
877.674	22938
877.802	22790
877.93	22782
878.058	22790
878.185	22626
878.313	22854
878.441	22816
878.568	22664
878.696	22767
878.824	23052
878.951	22812
879.079	23090
879.206	23151
879.333	23098
879.461	22831
879.588	23060
879.715	22949
879.842	23086
879.97	22946
880.097	22660
880.224	22569
880.351	22740
880.478	22767
880.605	22653
880.732	22702
880.859	22847
880.986	22637
881.112	22744
881.239	22493
881.366	22440
881.493	22303
881.619	22207
881.746	22341
881.872	22261
881.999	22162
882.125	22131
882.252	22337
882.378	22173
882.505	22242
882.631	22124
882.757	21941
882.883	21956
883.01	21979
883.136	21892
883.262	21907
883.388	21762
883.514	21941
883.64	21831
883.766	21880
883.892	21724
884.018	21675
884.143	21854
884.269	21930
884.395	21580
884.52	21553
884.646	21561
884.772	21511
884.897	21469
885.023	21564
885.148	21618
885.274	21797
885.399	21743
885.524	21610
885.65	21587
885.775	21610
885.9	21534
886.025	21629
886.15	21736
886.275	21530
886.4	21443
886.525	21633
886.65	21500
886.775	21412
886.9	21793
887.025	21774
887.149	21519
887.274	21443
887.399	21348
887.523	21264
887.648	21355
887.773	21256
887.897	21458
888.021	21355
888.146	21260
888.27	21439
888.395	21466
888.519	21485
888.643	21321
888.767	21450
888.891	21169
889.015	21207
889.139	21207
889.263	21066
889.387	21264
889.511	21302
889.635	21188
889.759	21157
889.883	21077
890.006	21150
890.13	21241
890.254	21024
890.377	21077
890.501	20921
890.624	20872
890.748	20834
890.871	20727
890.995	20754
891.118	20549
891.241	20800
891.364	20720
891.488	20731
891.611	20735
891.734	20533
891.857	20807
891.98	20651
892.103	20667
892.226	20682
892.349	20606
892.471	20427
892.594	20514
892.717	20731
892.839	20568
892.962	20499
893.085	20636
893.207	20667
893.33	20423
893.452	20492
893.575	20682
893.697	20590
893.819	20727
893.941	20777
894.064	20678
894.186	20549
894.308	20507
894.43	20617
894.552	20659
894.674	20552
894.796	20442
894.918	20476
895.04	20488
895.161	20636
895.283	20686
895.405	20469
895.526	20518
895.648	20583
895.769	20575
895.891	20560
896.012	20503
896.134	20575
896.255	20609
896.376	20545
896.498	20454
896.619	20492
896.74	20560
896.861	20602
896.982	21013
897.103	21028
897.224	20864
897.345	20788
897.466	20590
897.587	20716
897.708	20872
897.828	20823
897.949	20701
898.07	20598
898.19	20594
898.311	20750
898.431	20708
898.552	20830
898.672	20834
898.792	20918
898.913	20682
899.033	20632
899.153	20560
899.273	20564
899.393	20533
899.513	20412
899.633	20579
899.753	20568
899.873	20438
899.993	20526
900.113	20400
900.232	20495
900.352	20419
900.472	20381
900.591	20286
900.711	20286
900.83	20267
900.95	20301
901.069	20415
901.189	20187
901.308	19898
901.427	19784
901.546	19788
901.665	19944
901.784	19902
901.904	19852
902.023	19662
902.141	19476
902.26	19316
902.379	19457
902.498	19373
902.617	19316
902.735	19510
902.854	19396
902.973	19308
903.091	19099
903.21	19053
903.328	19095
903.446	19042
903.565	18768
903.683	18947
903.801	18764
903.919	18692
904.038	18703
904.156	18563
904.274	18654
904.392	18620
904.51	18608
904.627	18635
904.745	18570
904.863	18665
904.981	18380
905.098	18308
905.216	18251
905.334	18350
905.451	18315
905.569	18330
905.686	18270
905.803	18262
905.921	18194
906.038	18258
906.155	18133
906.272	18011
906.389	17908
906.506	17767
906.623	17817
906.74	17737
906.857	17672
906.974	17684
907.091	17893
907.208	17904
907.324	17874
907.441	17657
907.557	17627
907.674	17455
907.79	17364
907.907	17490
908.023	17520
908.139	17421
908.256	17478
908.372	17379
908.488	17474
908.604	17326
908.72	17231
908.836	17239
908.952	17208
909.068	17265
909.184	17288
909.3	17254
909.415	17220
909.531	17280
909.647	16972
909.762	16980
909.878	16904
909.993	16984
910.108	16961
910.224	16873
910.339	16850
910.454	16733
910.57	16820
910.685	16706
910.8	16949
910.915	16938
911.03	16752
911.145	16618
911.259	16588
911.374	16508
911.489	16466
911.604	16356
911.718	16211
911.833	16352
911.947	16207
912.062	16078
912.176	16207
912.291	16280
912.405	16284
912.519	16356
912.633	16417
912.748	16207
912.862	16215
912.976	16139
913.09	16067
913.204	16090
913.318	15991
913.431	16188
913.545	16226
913.659	16177
913.772	16013
913.886	15861
914	15789
914.113	15915
914.226	15983
914.34	15915
914.453	15781
914.566	15949
914.68	15800
914.793	15736
914.906	15557
915.019	15454
915.132	15382
915.245	15469
915.358	15507
915.47	15500
915.583	15496
915.696	15534
915.809	15515
915.921	15576
916.034	15447
916.146	15287
916.259	15298
916.371	15393
916.483	15313
916.595	15272
916.708	15287
916.82	15241
916.932	15336
917.044	15222
917.156	15275
917.268	15154
917.38	15100
917.491	15165
917.603	15093
917.715	15154
917.826	15207
917.938	15100
918.049	15005
918.161	15108
918.272	15180
918.384	15199
918.495	15081
918.606	14804
918.717	14739
918.828	14906
918.939	14880
919.05	14811
919.161	14895
919.272	14708
919.383	14708
919.494	14971
919.604	15051
919.715	14876
919.826	14788
919.936	14773
920.047	14906
920.157	14788
920.267	14944
920.378	14872
920.488	14807
920.598	14933
920.708	15150
920.818	14925
920.928	14952
921.038	15161
921.148	15104
921.258	14830
921.368	14602
921.477	14541
921.587	14545
921.697	14450
921.806	14503
921.916	14427
922.025	14221
922.134	14183
922.244	14138
922.353	14191
922.462	14077
922.571	13982
922.68	13913
922.789	13784
922.898	13833
923.007	13761
923.116	13826
923.224	13887
923.333	13814
923.442	13746
923.55	13582
923.659	13552
923.767	13715
923.876	13578
923.984	13727
924.092	13502
924.201	13616
924.309	13597
924.417	13567
924.525	13552
924.633	13491
924.741	14229
924.849	13293
924.956	13464
925.064	13350
925.172	13183
925.279	13190
925.387	13285
925.494	13266
925.602	13282
925.709	13244
925.816	13133
925.924	13103
926.031	13278
926.138	13198
926.245	13198
926.352	13114
926.459	13209
926.566	13183
926.673	13152
926.779	12890
926.886	13072
926.993	12875
927.099	12817
927.206	12722
927.312	12768
927.419	12787
927.525	12703
927.631	12787
927.737	12608
927.843	12589
927.95	12460
928.056	12574
928.162	12642
928.267	12631
928.373	13141
928.479	12681
928.585	12403
928.69	12559
928.796	12578
928.901	12506
929.007	12369
929.112	12475
929.218	12407
929.323	12350
929.428	12304
929.533	12471
929.638	12285
929.743	12270
929.848	12308
929.953	12323
930.058	12133
930.163	11965
930.267	12038
930.372	12110
930.477	12007
930.581	12163
930.685	12019
930.79	11950
930.894	11889
930.998	11817
931.103	12026
931.207	11653
931.311	11566
931.415	11315
931.519	11341
931.623	11284
