Data from test_V78500241_419.txt Node
Date: Fri Mar 25 15:12:46 CST 2022
User: usil
Spectrometer: V785-0024
Trigger mode: 0
Integration Time (sec): 4.000000E-1
Scans to average: 1
Nonlinearity correction enabled: false
Boxcar width: 0
Storing dark spectrum: false
XAxis mode: Wavelengths
Number of Pixels in Spectrum: 1024
>>>>>Begin Spectral Data<<<<<
801.071	27233
801.214	26994
801.356	26861
801.499	26838
801.641	26712
801.783	26686
801.926	26811
802.068	26701
802.211	26568
802.353	26465
802.496	26450
802.638	26465
802.78	26434
802.923	26298
803.065	26267
803.208	26324
803.35	26446
803.492	26396
803.635	26453
803.777	26511
803.919	26476
804.061	26804
804.204	26568
804.346	26495
804.488	26396
804.63	26579
804.773	26446
804.915	26453
805.057	26552
805.199	26484
805.341	26507
805.483	26575
805.626	26560
805.768	26366
805.91	26507
806.052	26549
806.194	26549
806.336	26758
806.478	26648
806.62	26476
806.762	26769
806.904	27001
807.046	27131
807.188	26971
807.33	27047
807.472	27047
807.614	27085
807.756	26998
807.898	26758
808.04	26876
808.182	26735
808.324	26876
808.465	26876
808.607	26956
808.749	27135
808.891	27241
809.033	27447
809.174	27283
809.316	27211
809.458	27154
809.6	27093
809.741	27256
809.883	27363
810.025	27530
810.166	27576
810.308	27504
810.45	27302
810.591	27405
810.733	27321
810.875	27260
811.016	27173
811.158	27165
811.299	27348
811.441	27370
811.582	27393
811.724	27237
811.865	27241
812.007	27245
812.148	27310
812.29	27275
812.431	27218
812.573	27466
812.714	27538
812.855	27671
812.997	27949
813.138	27972
813.279	27865
813.421	27701
813.562	27774
813.703	27587
813.845	27336
813.986	27039
814.127	27112
814.268	26876
814.41	26940
814.551	26910
814.692	26929
814.833	26948
814.974	27013
815.115	27043
815.256	26739
815.397	26754
815.539	26636
815.68	26663
815.821	26720
815.962	26568
816.103	26689
816.244	26568
816.385	26412
816.526	26408
816.666	26210
816.807	26240
816.948	26244
817.089	26218
817.23	26100
817.371	26119
817.512	26237
817.653	26180
817.793	26164
817.934	26168
818.075	26221
818.216	26191
818.356	26031
818.497	26077
818.638	25788
818.778	25845
818.919	25997
819.06	25951
819.2	26020
819.341	26218
819.481	26096
819.622	26332
819.762	26590
819.903	26377
820.043	26408
820.184	26393
820.324	26256
820.465	26237
820.605	26199
820.746	26237
820.886	26035
821.026	26107
821.167	26214
821.307	26142
821.447	26100
821.588	26005
821.728	25928
821.868	25780
822.008	25635
822.149	25674
822.289	25635
822.429	25430
822.569	25327
822.709	25270
822.849	25084
822.99	25221
823.13	25156
823.27	25015
823.41	24920
823.55	24939
823.69	24920
823.83	24840
823.97	24840
824.11	24730
824.25	24665
824.389	24856
824.529	24848
824.669	24661
824.809	24875
824.949	24913
825.089	24970
825.228	24844
825.368	24532
825.508	24719
825.648	24760
825.787	24639
825.927	24700
826.067	24570
826.206	24601
826.346	24654
826.485	24665
826.625	24768
826.765	24688
826.904	24631
827.044	24323
827.183	24365
827.323	24323
827.462	24353
827.601	24338
827.741	24292
827.88	24407
828.02	24311
828.159	24319
828.298	24296
828.437	24429
828.577	24277
828.716	24429
828.855	24266
828.994	24057
829.134	24087
829.273	24038
829.412	24068
829.551	24030
829.69	24140
829.829	24064
829.968	24201
830.107	24034
830.246	23935
830.385	24057
830.524	23958
830.663	23843
830.802	23855
830.941	23699
831.08	23657
831.219	23764
831.357	23813
831.496	23813
831.635	23661
831.774	23695
831.913	23482
832.051	23566
832.19	23433
832.329	23395
832.467	23277
832.606	23364
832.744	23383
832.883	23349
833.022	23322
833.16	23372
833.299	23512
833.437	23383
833.576	23429
833.714	23444
833.852	23467
833.991	23596
834.129	23589
834.267	23524
834.406	23417
834.544	23463
834.682	23482
834.821	23296
834.959	23653
835.097	23334
835.235	23429
835.373	23353
835.511	23459
835.65	23284
835.788	23322
835.926	23258
836.064	23060
836.202	23189
836.34	23311
836.478	23337
836.615	23326
836.753	23387
836.891	23440
837.029	23334
837.167	23220
837.305	23204
837.443	23296
837.58	23121
837.718	23265
837.856	23140
837.993	23102
838.131	23044
838.269	23052
838.406	23102
838.544	22919
838.681	22767
838.819	22793
838.956	22531
839.094	22664
839.231	22679
839.369	22721
839.506	23086
839.643	22850
839.781	22546
839.918	22512
840.055	22679
840.193	22493
840.33	22554
840.467	22580
840.604	22603
840.742	22687
840.879	22360
841.016	22535
841.153	22341
841.29	22649
841.427	22538
841.564	22554
841.701	22531
841.838	22481
841.975	22516
842.112	22424
842.249	22386
842.385	22352
842.522	22512
842.659	22234
842.796	22211
842.933	22405
843.069	22367
843.206	22204
843.343	22348
843.479	22268
843.616	22306
843.752	22029
843.889	22070
844.025	22226
844.162	22116
844.298	22093
844.435	22040
844.571	21994
844.708	22139
844.844	22154
844.98	22219
845.117	22295
845.253	22105
845.389	21895
845.525	21956
845.661	21972
845.798	21842
845.934	21842
846.07	21804
846.206	21800
846.342	21903
846.478	21755
846.614	21576
846.75	21496
846.886	21435
847.022	21641
847.158	21671
847.294	21671
847.429	21599
847.565	21462
847.701	21766
847.837	21264
847.972	21393
848.108	21374
848.244	21351
848.379	21180
848.515	21264
848.65	21150
848.786	21192
848.921	21138
849.057	21211
849.192	21188
849.328	21142
849.463	21203
849.598	21089
849.734	21131
849.869	21032
850.004	20891
850.14	20979
850.275	20982
850.41	20811
850.545	20868
850.68	20925
850.815	20982
850.95	20956
851.085	20971
851.22	20975
851.355	21013
851.49	20804
851.625	20872
851.76	20864
851.895	20800
852.03	20838
852.165	20880
852.299	20891
852.434	20971
852.569	20899
852.703	21020
852.838	20929
852.973	21047
853.107	20998
853.242	20777
853.376	20880
853.511	20705
853.645	20735
853.78	20777
853.914	20731
854.048	20686
854.183	20731
854.317	20724
854.451	20819
854.585	20853
854.72	20705
854.854	20925
854.988	20712
855.122	20716
855.256	20640
855.39	20708
855.524	20777
855.658	20880
855.792	20708
855.926	20811
856.06	20800
856.194	20796
856.327	20754
856.461	20651
856.595	20598
856.729	20712
856.862	20838
856.996	20705
857.13	20758
857.263	20697
857.397	20845
857.53	20800
857.664	20765
857.797	20739
857.931	20861
858.064	20739
858.197	20937
858.331	20746
858.464	20659
858.597	20743
858.731	20826
858.864	20735
858.997	20609
859.13	20724
859.263	20743
859.396	20765
859.529	20564
859.662	20678
859.795	20739
859.928	20701
860.061	20971
860.194	20845
860.327	20648
860.46	20800
860.592	20842
860.725	20887
860.858	20861
860.99	20674
861.123	20590
861.256	20716
861.388	20746
861.521	21431
861.653	20705
861.786	20488
861.918	20522
862.05	20701
862.183	20758
862.315	20712
862.447	20807
862.58	20640
862.712	20355
862.844	20454
862.976	20568
863.108	20552
863.24	20925
863.372	20362
863.504	20412
863.636	20484
863.768	20381
863.9	20385
864.032	20396
864.164	20393
864.296	20427
864.428	20507
864.559	20533
864.691	20457
864.823	20446
864.954	20503
865.086	20419
865.217	20396
865.349	20210
865.48	20389
865.612	20336
865.743	20400
865.875	20465
866.006	20396
866.137	20541
866.269	20362
866.4	20381
866.531	20237
866.662	20267
866.793	20294
866.924	20244
867.055	20309
867.186	20320
867.317	20202
867.448	20267
867.579	20351
867.71	20191
867.841	20172
867.972	20324
868.103	20347
868.233	20256
868.364	20381
868.495	20317
868.625	20511
868.756	20632
868.886	20503
869.017	20492
869.147	20537
869.278	20590
869.408	20469
869.539	20549
869.669	20629
869.799	20598
869.929	20571
870.06	20613
870.19	20937
870.32	20853
870.45	20895
870.58	20861
870.71	21066
870.84	20982
870.97	20925
871.1	20921
871.23	21028
871.36	21100
871.489	20956
871.619	21077
871.749	21123
871.879	21207
872.008	21211
872.138	21211
872.267	21150
872.397	20941
872.526	20960
872.656	21032
872.785	21005
872.915	21116
873.044	21192
873.173	21150
873.303	21199
873.432	21176
873.561	21283
873.69	21154
873.819	21188
873.948	21218
874.077	21188
874.206	21055
874.335	20975
874.464	21298
874.593	21420
874.722	21359
874.851	21397
874.979	21439
875.108	21351
875.237	21412
875.365	21298
875.494	21340
875.623	21431
875.751	21389
875.88	21447
876.008	21450
876.136	21450
876.265	21831
876.393	21930
876.521	21812
876.65	21842
876.778	21751
876.906	21778
877.034	21698
877.162	21850
877.29	21671
877.418	21732
877.546	21705
877.674	21793
877.802	21766
877.93	21762
878.058	21690
878.185	21675
878.313	21797
878.441	21861
878.568	21561
878.696	21675
878.824	21755
878.951	21789
879.079	21930
879.206	22025
879.333	21964
879.461	21774
879.588	21888
879.715	21987
879.842	21979
879.97	21873
880.097	21614
880.224	21694
880.351	21698
880.478	21599
880.605	21496
880.732	21641
880.859	21789
880.986	21682
881.112	21466
881.239	21428
881.366	21340
881.493	21230
881.619	21108
881.746	21173
881.872	21192
881.999	21081
882.125	21180
882.252	21157
882.378	21249
882.505	21264
882.631	21211
882.757	21013
882.883	20960
883.01	20868
883.136	20781
883.262	20785
883.388	20689
883.514	20925
883.64	20819
883.766	20796
883.892	20758
884.018	20609
884.143	20678
884.269	20910
884.395	20689
884.52	20480
884.646	20507
884.772	20473
884.897	20434
885.023	20530
885.148	20629
885.274	20659
885.399	20629
885.524	20507
885.65	20560
885.775	20511
885.9	20480
886.025	20655
886.15	20609
886.275	20450
886.4	20446
886.525	20511
886.65	20450
886.775	20522
886.9	20625
887.025	20727
887.149	20434
887.274	20328
887.399	20381
887.523	20317
887.648	20278
887.773	20206
887.897	20511
888.021	20450
888.146	20263
888.27	20351
888.395	20385
888.519	20301
888.643	20309
888.767	20351
888.891	20210
889.015	20119
889.139	20202
889.263	20039
889.387	20172
889.511	20381
889.635	20191
889.759	20065
889.883	20012
890.006	20138
890.13	20168
890.254	20012
890.377	20092
890.501	19928
890.624	19696
890.748	19947
890.871	19807
890.995	19685
891.118	19582
891.241	19651
891.364	19704
891.488	19769
891.611	19742
891.734	19761
891.857	19635
891.98	19639
892.103	19761
892.226	19677
892.349	19693
892.471	19613
892.594	19571
892.717	19597
892.839	19738
892.962	19578
893.085	19727
893.207	19601
893.33	19499
893.452	19476
893.575	19685
893.697	19575
893.819	19860
893.941	19753
894.064	19738
894.186	19575
894.308	19525
894.43	19723
894.552	19864
894.674	19655
894.796	19605
894.918	19586
895.04	19529
895.161	19693
895.283	19620
895.405	19403
895.526	19647
895.648	19575
895.769	19704
895.891	19655
896.012	19613
896.134	19666
896.255	19620
896.376	19609
896.498	19662
896.619	19605
896.74	19620
896.861	19677
896.982	19947
897.103	20050
897.224	19902
897.345	19936
897.466	19868
897.587	19719
897.708	19986
897.828	19757
897.949	19704
898.07	19666
898.19	19788
898.311	19875
898.431	19818
898.552	19795
898.672	19932
898.792	19841
898.913	19841
899.033	19647
899.153	19639
899.273	19521
899.393	19575
899.513	19651
899.633	19620
899.753	19548
899.873	19533
899.993	19765
900.113	19632
900.232	19563
900.352	19350
900.472	19434
900.591	19400
900.711	19407
900.83	19331
900.95	19472
901.069	19449
901.189	19285
901.308	18993
901.427	18973
901.546	18962
901.665	18962
901.784	18943
901.904	18798
902.023	18669
902.141	18559
902.26	18433
902.379	18528
902.498	18433
902.617	18452
902.735	18517
902.854	18403
902.973	18384
903.091	18152
903.21	18216
903.328	18152
903.446	17973
903.565	18007
903.683	18015
903.801	17756
903.919	17939
904.038	17809
904.156	17847
904.274	17851
904.392	17680
904.51	17691
904.627	17722
904.745	17783
904.863	17767
904.981	17554
905.098	17440
905.216	17379
905.334	17520
905.451	17497
905.569	17353
905.686	17547
905.803	17406
905.921	17292
906.038	17334
906.155	17303
906.272	17212
906.389	17128
906.506	16999
906.623	16961
906.74	16850
906.857	16774
906.974	16889
907.091	17041
907.208	17075
907.324	17029
907.441	16843
907.557	16820
907.674	16683
907.79	16630
907.907	16649
908.023	16725
908.139	16710
908.256	16679
908.372	16618
908.488	16504
908.604	16455
908.72	16424
908.836	16348
908.952	16382
909.068	16398
909.184	16478
909.3	16440
909.415	16451
909.531	16455
909.647	16234
909.762	16067
909.878	16154
909.993	16169
910.108	16154
910.224	16040
910.339	16036
910.454	15987
910.57	16025
910.685	15816
910.8	16120
910.915	16051
911.03	15899
911.145	15838
911.259	15675
911.374	15663
911.489	15660
911.604	15595
911.718	15492
911.833	15416
911.947	15428
912.062	15344
912.176	15564
912.291	15481
912.405	15370
912.519	15591
912.633	15663
912.748	15553
912.862	15416
912.976	15306
913.09	15173
913.204	15226
913.318	15291
913.431	15431
913.545	15310
913.659	15389
913.772	15252
913.886	15157
914	15146
914.113	15108
914.226	15260
914.34	15066
914.453	14933
914.566	15116
914.68	14967
914.793	14979
914.906	14830
915.019	14663
915.132	14697
915.245	14560
915.358	14689
915.47	14792
915.583	14606
915.696	14815
915.809	14815
915.921	14819
916.034	14689
916.146	14594
916.259	14514
916.371	14781
916.483	14678
916.595	14541
916.708	14533
916.82	14545
916.932	14511
917.044	14473
917.156	14431
917.268	14389
917.38	14415
917.491	14400
917.603	14400
917.715	14492
917.826	14492
917.938	14248
918.049	14221
918.161	14442
918.272	14450
918.384	14537
918.495	14393
918.606	14199
918.717	14115
918.828	14187
918.939	14149
919.05	14073
919.161	14145
919.272	13898
919.383	14027
919.494	14119
919.604	14396
919.715	14176
919.826	14016
919.936	14058
920.047	14183
920.157	14202
920.267	14366
920.378	13997
920.488	14123
920.598	14271
920.708	14374
920.818	14180
920.928	14351
921.038	14393
921.148	14305
921.258	14092
921.368	13986
921.477	13947
921.587	13753
921.697	13685
921.806	13887
921.916	13742
922.025	13457
922.134	13518
922.244	13468
922.353	13529
922.462	13400
922.571	13316
922.68	13304
922.789	13118
922.898	13270
923.007	13118
923.116	13156
923.224	13266
923.333	13099
923.442	13072
923.55	13023
923.659	13008
923.767	13065
923.876	12924
923.984	12977
924.092	12905
924.201	12943
924.309	12878
924.417	12859
924.525	12791
924.633	12863
924.741	13662
924.849	12635
924.956	12715
925.064	12688
925.172	12525
925.279	12517
925.387	12513
925.494	12665
925.602	12700
925.709	12574
925.816	12422
925.924	12521
926.031	12601
926.138	12544
926.245	12582
926.352	12467
926.459	12551
926.566	12585
926.673	12498
926.779	12327
926.886	12369
926.993	12228
927.099	12228
927.206	12079
927.312	12136
927.419	12205
927.525	12197
927.631	12197
927.737	12053
927.843	12003
927.95	11901
928.056	12034
928.162	12022
928.267	11965
928.373	12612
928.479	12072
928.585	11863
928.69	11992
928.796	11920
928.901	11904
929.007	11649
929.112	11783
929.218	11821
929.323	11741
929.428	11710
929.533	11893
929.638	11672
929.743	11684
929.848	11741
929.953	11726
930.058	11535
930.163	11433
930.267	11425
930.372	11627
930.477	11414
930.581	11653
930.685	11497
930.79	11395
930.894	11307
930.998	11326
931.103	11452
931.207	11052
931.311	10991
931.415	10934
931.519	10645
931.623	10687
