Data from test_V78500241_2849.txt Node
Date: Fri Mar 25 15:29:41 CST 2022
User: usil
Spectrometer: V785-0024
Trigger mode: 0
Integration Time (sec): 4.000000E-1
Scans to average: 1
Nonlinearity correction enabled: false
Boxcar width: 0
Storing dark spectrum: false
XAxis mode: Wavelengths
Number of Pixels in Spectrum: 1024
>>>>>Begin Spectral Data<<<<<
801.071	27332
801.214	27294
801.356	27077
801.499	27043
801.641	26735
801.783	26940
801.926	26864
802.068	26819
802.211	26739
802.353	26629
802.496	26503
802.638	26393
802.78	26495
802.923	26381
803.065	26145
803.208	26305
803.35	26526
803.492	26609
803.635	26552
803.777	26514
803.919	26594
804.061	26956
804.204	26571
804.346	26583
804.488	26598
804.63	26583
804.773	26476
804.915	26541
805.057	26636
805.199	26492
805.341	26663
805.483	26746
805.626	26762
805.768	26640
805.91	26670
806.052	26697
806.194	26693
806.336	26826
806.478	26746
806.62	26724
806.762	26811
806.904	26883
807.046	27157
807.188	27211
807.33	27169
807.472	27211
807.614	27070
807.756	27123
807.898	26861
808.04	27001
808.182	27017
808.324	27013
808.465	26975
808.607	27226
808.749	27310
808.891	27473
809.033	27450
809.174	27340
809.316	27233
809.458	27397
809.6	27241
809.741	27291
809.883	27477
810.025	27496
810.166	27507
810.308	27690
810.45	27603
810.591	27519
810.733	27477
810.875	27283
811.016	27268
811.158	27211
811.299	27386
811.441	27591
811.582	27576
811.724	27359
811.865	27279
812.007	27165
812.148	27214
812.29	27378
812.431	27466
812.573	27728
812.714	27720
812.855	27930
812.997	27934
813.138	28013
813.279	27949
813.421	27713
813.562	27793
813.703	27568
813.845	27507
813.986	27226
814.127	27142
814.268	27131
814.41	26990
814.551	26994
814.692	27005
814.833	26948
814.974	26899
815.115	27017
815.256	26762
815.397	26864
815.539	26906
815.68	26762
815.821	26716
815.962	26861
816.103	26701
816.244	26621
816.385	26560
816.526	26442
816.666	26233
816.807	26355
816.948	26290
817.089	26298
817.23	26305
817.371	26298
817.512	26138
817.653	26164
817.793	26100
817.934	26233
818.075	26229
818.216	26214
818.356	26142
818.497	26122
818.638	25963
818.778	26069
818.919	25993
819.06	26054
819.2	26077
819.341	26282
819.481	26199
819.622	26450
819.762	26507
819.903	26476
820.043	26385
820.184	26339
820.324	26275
820.465	26415
820.605	26370
820.746	26336
820.886	26256
821.026	26343
821.167	26161
821.307	26412
821.447	26240
821.588	26187
821.728	26081
821.868	25860
822.008	25666
822.149	25761
822.289	25620
822.429	25331
822.569	25460
822.709	25540
822.849	25297
822.99	25175
823.13	25160
823.27	25171
823.41	25076
823.55	25061
823.69	25187
823.83	25031
823.97	25046
824.11	24798
824.25	24753
824.389	24837
824.529	24932
824.669	24738
824.809	24985
824.949	25053
825.089	24981
825.228	24760
825.368	24734
825.508	24681
825.648	24612
825.787	24779
825.927	24719
826.067	24738
826.206	24639
826.346	24692
826.485	24863
826.625	24700
826.765	24814
826.904	24760
827.044	24616
827.183	24517
827.323	24559
827.462	24475
827.601	24399
827.741	24528
827.88	24407
828.02	24437
828.159	24357
828.298	24460
828.437	24536
828.577	24304
828.716	24525
828.855	24353
828.994	24197
829.134	24064
829.273	24178
829.412	24079
829.551	24011
829.69	24098
829.829	24213
829.968	24232
830.107	24213
830.246	24114
830.385	24178
830.524	23935
830.663	24022
830.802	23889
830.941	23775
831.08	23703
831.219	23817
831.357	23946
831.496	23946
831.635	23672
831.774	23699
831.913	23581
832.051	23429
832.19	23471
832.329	23463
832.467	23395
832.606	23562
832.744	23391
832.883	23231
833.022	23174
833.16	23353
833.299	23429
833.437	23463
833.576	23436
833.714	23349
833.852	23516
833.991	23539
834.129	23543
834.267	23505
834.406	23497
834.544	23414
834.682	23539
834.821	23486
834.959	23623
835.097	23345
835.235	23414
835.373	23379
835.511	23429
835.65	23299
835.788	23433
835.926	23128
836.064	23200
836.202	23246
836.34	23239
836.478	23360
836.615	23265
836.753	23322
836.891	23315
837.029	23292
837.167	23181
837.305	23216
837.443	23124
837.58	23094
837.718	23288
837.856	23098
837.993	23025
838.131	23227
838.269	23056
838.406	23105
838.544	23006
838.681	22934
838.819	22675
838.956	22626
839.094	22577
839.231	22752
839.369	22801
839.506	23052
839.643	22824
839.781	22702
839.918	22504
840.055	22634
840.193	22512
840.33	22440
840.467	22481
840.604	22717
840.742	22812
840.879	22500
841.016	22432
841.153	22459
841.29	22615
841.427	22497
841.564	22523
841.701	22527
841.838	22455
841.975	22599
842.112	22592
842.249	22462
842.385	22344
842.522	22550
842.659	22451
842.796	22382
842.933	22284
843.069	22284
843.206	22265
843.343	22318
843.479	22188
843.616	22299
843.752	22120
843.889	22150
844.025	22257
844.162	22090
844.298	22185
844.435	22029
844.571	21972
844.708	21994
844.844	22150
844.98	22192
845.117	22150
845.253	21956
845.389	21979
845.525	21960
845.661	21934
845.798	21713
845.934	21831
846.07	21770
846.206	21747
846.342	21937
846.478	21865
846.614	21610
846.75	21511
846.886	21591
847.022	21603
847.158	21568
847.294	21572
847.429	21637
847.565	21428
847.701	21785
847.837	21264
847.972	21222
848.108	21279
848.244	21291
848.379	21249
848.515	21096
848.65	21096
848.786	21127
848.921	21188
849.057	21211
849.192	21336
849.328	21241
849.463	21036
849.598	21017
849.734	20982
849.869	20929
850.004	20880
850.14	20967
850.275	20758
850.41	20811
850.545	20921
850.68	20861
850.815	20948
850.95	20918
851.085	21001
851.22	21047
851.355	20838
851.49	20861
851.625	20807
851.76	20849
851.895	20883
852.03	20842
852.165	20975
852.299	21051
852.434	20982
852.569	20895
852.703	20948
852.838	20937
852.973	21047
853.107	21013
853.242	20804
853.376	20689
853.511	20674
853.645	20682
853.78	20785
853.914	20731
854.048	20571
854.183	20727
854.317	20842
854.451	20948
854.585	20613
854.72	20689
854.854	20788
854.988	20644
855.122	20686
855.256	20518
855.39	20712
855.524	20796
855.658	20785
855.792	20625
855.926	20674
856.06	20762
856.194	20754
856.327	20621
856.461	20651
856.595	20663
856.729	20735
856.862	20891
856.996	20731
857.13	20655
857.263	20735
857.397	20746
857.53	20701
857.664	20872
857.797	20701
857.931	20788
858.064	20785
858.197	20807
858.331	20632
858.464	20739
858.597	20514
858.731	20621
858.864	20735
858.997	20598
859.13	20659
859.263	20693
859.396	20842
859.529	20754
859.662	20674
859.795	20746
859.928	20689
860.061	20811
860.194	20899
860.327	20804
860.46	20682
860.592	20842
860.725	20910
860.858	20830
860.99	20838
861.123	20678
861.256	20659
861.388	20838
861.521	21344
861.653	20579
861.786	20480
861.918	20556
862.05	20575
862.183	20609
862.315	20636
862.447	20739
862.58	20594
862.712	20415
862.844	20454
862.976	20560
863.108	20469
863.24	20883
863.372	20404
863.504	20377
863.636	20484
863.768	20507
863.9	20503
864.032	20412
864.164	20393
864.296	20473
864.428	20549
864.559	20606
864.691	20514
864.823	20480
864.954	20336
865.086	20442
865.217	20438
865.349	20149
865.48	20339
865.612	20408
865.743	20415
865.875	20351
866.006	20351
866.137	20313
866.269	20366
866.4	20301
866.531	20240
866.662	20336
866.793	20294
866.924	20301
867.055	20263
867.186	20263
867.317	20248
867.448	20164
867.579	20218
867.71	20145
867.841	20107
867.972	20389
868.103	20332
868.233	20214
868.364	20244
868.495	20347
868.625	20507
868.756	20636
868.886	20476
869.017	20552
869.147	20621
869.278	20571
869.408	20552
869.539	20473
869.669	20526
869.799	20583
869.929	20617
870.06	20621
870.19	20823
870.32	20811
870.45	20819
870.58	21005
870.71	20975
870.84	21116
870.97	20853
871.1	20994
871.23	21108
871.36	21154
871.489	20994
871.619	21047
871.749	21108
871.879	21173
872.008	21058
872.138	21043
872.267	21249
872.397	20998
872.526	20929
872.656	20815
872.785	20899
872.915	21081
873.044	21169
873.173	21127
873.303	21039
873.432	21131
873.561	21283
873.69	21028
873.819	21195
873.948	21256
874.077	21203
874.206	21017
874.335	21055
874.464	21142
874.593	21294
874.722	21329
874.851	21466
874.979	21488
875.108	21374
875.237	21249
875.365	21249
875.494	21329
875.623	21447
875.751	21351
875.88	21405
876.008	21496
876.136	21538
876.265	21831
876.393	21937
876.521	21831
876.65	21736
876.778	21755
876.906	21690
877.034	21682
877.162	21690
877.29	21698
877.418	21728
877.546	21717
877.674	21720
877.802	21770
877.93	21701
878.058	21770
878.185	21534
878.313	21580
878.441	21800
878.568	21583
878.696	21679
878.824	21804
878.951	21835
879.079	21850
879.206	21979
879.333	21934
879.461	21629
879.588	21835
879.715	21892
879.842	21854
879.97	21793
880.097	21679
880.224	21500
880.351	21557
880.478	21686
880.605	21694
880.732	21595
880.859	21766
880.986	21614
881.112	21504
881.239	21466
881.366	21340
881.493	21195
881.619	21150
881.746	21085
881.872	21252
881.999	21093
882.125	21116
882.252	21188
882.378	21230
882.505	21272
882.631	21062
882.757	20861
882.883	20929
883.01	20834
883.136	20720
883.262	20693
883.388	20629
883.514	20925
883.64	20895
883.766	20773
883.892	20693
884.018	20746
884.143	20861
884.269	20800
884.395	20526
884.52	20488
884.646	20503
884.772	20366
884.897	20298
885.023	20457
885.148	20587
885.274	20708
885.399	20556
885.524	20461
885.65	20461
885.775	20442
885.9	20366
886.025	20663
886.15	20708
886.275	20492
886.4	20465
886.525	20484
886.65	20404
886.775	20385
886.9	20655
887.025	20689
887.149	20454
887.274	20278
887.399	20149
887.523	20149
887.648	20122
887.773	20161
887.897	20286
888.021	20324
888.146	20107
888.27	20309
888.395	20423
888.519	20252
888.643	20389
888.767	20347
888.891	20206
889.015	20008
889.139	20240
889.263	20046
889.387	20130
889.511	20233
889.635	20252
889.759	20142
889.883	20024
890.006	20138
890.13	20145
890.254	19993
890.377	19932
890.501	19803
890.624	19700
890.748	19818
890.871	19780
890.995	19670
891.118	19658
891.241	19704
891.364	19715
891.488	19734
891.611	19662
891.734	19613
891.857	19708
891.98	19632
892.103	19677
892.226	19609
892.349	19628
892.471	19552
892.594	19582
892.717	19499
892.839	19525
892.962	19563
893.085	19613
893.207	19613
893.33	19419
893.452	19464
893.575	19620
893.697	19601
893.819	19681
893.941	19765
894.064	19674
894.186	19643
894.308	19403
894.43	19624
894.552	19567
894.674	19731
894.796	19457
894.918	19666
895.04	19457
895.161	19590
895.283	19518
895.405	19468
895.526	19480
895.648	19476
895.769	19510
895.891	19537
896.012	19753
896.134	19643
896.255	19575
896.376	19426
896.498	19460
896.619	19597
896.74	19491
896.861	19609
896.982	19868
897.103	19951
897.224	19833
897.345	19807
897.466	19746
897.587	19795
897.708	20050
897.828	19925
897.949	19837
898.07	19643
898.19	19826
898.311	19940
898.431	19704
898.552	19803
898.672	19830
898.792	19902
898.913	19803
899.033	19696
899.153	19681
899.273	19582
899.393	19510
899.513	19590
899.633	19559
899.753	19563
899.873	19491
899.993	19552
900.113	19472
900.232	19594
900.352	19521
900.472	19381
900.591	19308
900.711	19362
900.83	19422
900.95	19422
901.069	19419
901.189	19278
901.308	18947
901.427	18985
901.546	19008
901.665	18966
901.784	18856
901.904	18821
902.023	18787
902.141	18650
902.26	18441
902.379	18582
902.498	18486
902.617	18304
902.735	18563
902.854	18410
902.973	18376
903.091	18148
903.21	18239
903.328	18281
903.446	18011
903.565	17931
903.683	17889
903.801	17821
903.919	17999
904.038	17878
904.156	17756
904.274	17767
904.392	17737
904.51	17680
904.627	17680
904.745	17676
904.863	17813
904.981	17448
905.098	17349
905.216	17345
905.334	17364
905.451	17444
905.569	17265
905.686	17410
905.803	17349
905.921	17098
906.038	17235
906.155	17288
906.272	16999
906.389	17102
906.506	16900
906.623	17003
906.74	16923
906.857	16809
906.974	16839
907.091	16999
907.208	17071
907.324	16843
907.441	16771
907.557	16660
907.674	16611
907.79	16618
907.907	16588
908.023	16675
908.139	16755
908.256	16527
908.372	16519
908.488	16683
908.604	16409
908.72	16375
908.836	16432
908.952	16371
909.068	16386
909.184	16592
909.3	16356
909.415	16352
909.531	16333
909.647	16002
909.762	16006
909.878	16017
909.993	16051
910.108	16086
910.224	16067
910.339	16010
910.454	16067
910.57	15827
910.685	15838
910.8	16131
910.915	15998
911.03	15835
911.145	15698
911.259	15679
911.374	15656
911.489	15542
911.604	15526
911.718	15481
911.833	15526
911.947	15485
912.062	15310
912.176	15469
912.291	15447
912.405	15443
912.519	15595
912.633	15545
912.748	15576
912.862	15389
912.976	15264
913.09	15188
913.204	15218
913.318	15393
913.431	15313
913.545	15310
913.659	15332
913.772	15313
913.886	15119
914	15093
914.113	15104
914.226	15123
914.34	15169
914.453	14933
914.566	15154
914.68	15020
914.793	14849
914.906	14815
915.019	14659
915.132	14575
915.245	14716
915.358	14644
915.47	14629
915.583	14621
915.696	14621
915.809	14944
915.921	14800
916.034	14686
916.146	14499
916.259	14629
916.371	14712
916.483	14716
916.595	14465
916.708	14530
916.82	14423
916.932	14484
917.044	14431
917.156	14484
917.268	14320
917.38	14473
917.491	14336
917.603	14294
917.715	14427
917.826	14461
917.938	14366
918.049	14290
918.161	14347
918.272	14324
918.384	14457
918.495	14286
918.606	14187
918.717	14039
918.828	14119
918.939	14138
919.05	14107
919.161	14107
919.272	13887
919.383	13967
919.494	14107
919.604	14305
919.715	14142
919.826	13913
919.936	14016
920.047	14191
920.157	14119
920.267	14229
920.378	14046
920.488	13913
920.598	14176
920.708	14400
920.818	14180
920.928	14290
921.038	14400
921.148	14377
921.258	14031
921.368	13951
921.477	13761
921.587	13795
921.697	13704
921.806	13746
921.916	13670
922.025	13540
922.134	13392
922.244	13438
922.353	13502
922.462	13419
922.571	13282
922.68	13152
922.789	13168
922.898	13072
923.007	13110
923.116	13145
923.224	13084
923.333	13160
923.442	13004
923.55	12928
923.659	13004
923.767	13141
923.876	12806
923.984	13057
924.092	12871
924.201	12882
924.309	12951
924.417	12977
924.525	12787
924.633	12791
924.741	13655
924.849	12620
924.956	12738
925.064	12620
925.172	12570
925.279	12490
925.387	12578
925.494	12635
925.602	12711
925.709	12642
925.816	12517
925.924	12555
926.031	12570
926.138	12486
926.245	12563
926.352	12376
926.459	12506
926.566	12544
926.673	12433
926.779	12296
926.886	12323
926.993	12106
927.099	12171
927.206	12034
927.312	11980
927.419	12235
927.525	12155
927.631	12178
927.737	12034
927.843	11958
927.95	11863
928.056	11935
928.162	12030
928.267	12068
928.373	12662
928.479	12022
928.585	11813
928.69	11916
928.796	12022
928.901	11790
929.007	11729
929.112	11828
929.218	11916
929.323	11851
929.428	11699
929.533	11809
929.638	11608
929.743	11627
929.848	11688
929.953	11657
930.058	11581
930.163	11395
930.267	11398
930.372	11566
930.477	11376
930.581	11646
930.685	11421
930.79	11299
930.894	11269
930.998	11292
931.103	11383
931.207	11014
931.311	11010
931.415	10923
931.519	10687
931.623	10691
