Data from test_V78500241_3346.txt Node
Date: Fri Mar 25 15:33:09 CST 2022
User: usil
Spectrometer: V785-0024
Trigger mode: 0
Integration Time (sec): 4.000000E-1
Scans to average: 1
Nonlinearity correction enabled: false
Boxcar width: 0
Storing dark spectrum: false
XAxis mode: Wavelengths
Number of Pixels in Spectrum: 1024
>>>>>Begin Spectral Data<<<<<
801.071	27336
801.214	27218
801.356	26906
801.499	26933
801.641	26678
801.783	26701
801.926	26845
802.068	26849
802.211	26644
802.353	26773
802.496	26415
802.638	26324
802.78	26351
802.923	26161
803.065	26278
803.208	26298
803.35	26412
803.492	26644
803.635	26541
803.777	26480
803.919	26347
804.061	26781
804.204	26579
804.346	26556
804.488	26355
804.63	26453
804.773	26317
804.915	26431
805.057	26522
805.199	26556
805.341	26537
805.483	26571
805.626	26560
805.768	26533
805.91	26598
806.052	26609
806.194	26480
806.336	26724
806.478	26613
806.62	26537
806.762	26735
806.904	26834
807.046	27180
807.188	26906
807.33	26933
807.472	27074
807.614	26834
807.756	26933
807.898	26857
808.04	26800
808.182	26758
808.324	26804
808.465	27024
808.607	26960
808.749	27131
808.891	27272
809.033	27222
809.174	27230
809.316	27096
809.458	27142
809.6	27074
809.741	27264
809.883	27264
810.025	27374
810.166	27226
810.308	27488
810.45	27317
810.591	27382
810.733	27127
810.875	27123
811.016	27127
811.158	27058
811.299	27275
811.441	27382
811.582	27203
811.724	27214
811.865	27165
812.007	27036
812.148	27188
812.29	27154
812.431	27313
812.573	27408
812.714	27492
812.855	27519
812.997	27523
813.138	27838
813.279	27759
813.421	27755
813.562	27625
813.703	27458
813.845	27351
813.986	27070
814.127	26944
814.268	26864
814.41	26838
814.551	26895
814.692	26891
814.833	26762
814.974	26788
815.115	26830
815.256	26743
815.397	26556
815.539	26701
815.68	26556
815.821	26556
815.962	26640
816.103	26564
816.244	26320
816.385	26446
816.526	26339
816.666	26214
816.807	26062
816.948	26081
817.089	26282
817.23	26103
817.371	26058
817.512	26115
817.653	26100
817.793	26012
817.934	25978
818.075	26172
818.216	26031
818.356	25963
818.497	25902
818.638	25860
818.778	25875
818.919	25799
819.06	25898
819.2	26062
819.341	25921
819.481	26077
819.622	26218
819.762	26518
819.903	26221
820.043	26176
820.184	26164
820.324	25993
820.465	26176
820.605	26176
820.746	26149
820.886	26115
821.026	26161
821.167	26103
821.307	26248
821.447	26016
821.588	25970
821.728	25791
821.868	25658
822.008	25438
822.149	25483
822.289	25510
822.429	25289
822.569	25282
822.709	25141
822.849	25114
822.99	25061
823.13	25103
823.27	24924
823.41	24856
823.55	24707
823.69	24909
823.83	24768
823.97	24776
824.11	24730
824.25	24627
824.389	24734
824.529	24817
824.669	24669
824.809	24738
824.949	24669
825.089	24753
825.228	24776
825.368	24494
825.508	24517
825.648	24555
825.787	24589
825.927	24502
826.067	24517
826.206	24467
826.346	24532
826.485	24601
826.625	24574
826.765	24684
826.904	24677
827.044	24327
827.183	24315
827.323	24273
827.462	24338
827.601	24186
827.741	24174
827.88	24266
828.02	24178
828.159	24133
828.298	24155
828.437	24232
828.577	24243
828.716	24342
828.855	24136
828.994	23912
829.134	23973
829.273	23984
829.412	23977
829.551	23923
829.69	23946
829.829	23946
829.968	24053
830.107	24129
830.246	24076
830.385	23908
830.524	23904
830.663	23775
830.802	23668
830.941	23589
831.08	23646
831.219	23665
831.357	23676
831.496	23863
831.635	23493
831.774	23524
831.913	23505
832.051	23448
832.19	23322
832.329	23490
832.467	23288
832.606	23258
832.744	23227
832.883	23231
833.022	23155
833.16	23258
833.299	23269
833.437	23220
833.576	23246
833.714	23406
833.852	23391
833.991	23406
834.129	23284
834.267	23414
834.406	23444
834.544	23440
834.682	23372
834.821	23334
834.959	23551
835.097	23345
835.235	23444
835.373	23463
835.511	23204
835.65	23223
835.788	23121
835.926	23037
836.064	22919
836.202	23010
836.34	23216
836.478	23296
836.615	23109
836.753	23174
836.891	23258
837.029	23250
837.167	23079
837.305	23090
837.443	22949
837.58	23064
837.718	23044
837.856	23140
837.993	23105
838.131	23037
838.269	22957
838.406	22972
838.544	22900
838.681	22721
838.819	22744
838.956	22588
839.094	22512
839.231	22637
839.369	22672
839.506	22793
839.643	22736
839.781	22519
839.918	22405
840.055	22394
840.193	22577
840.33	22577
840.467	22451
840.604	22523
840.742	22736
840.879	22200
841.016	22318
841.153	22322
841.29	22455
841.427	22280
841.564	22512
841.701	22512
841.838	22284
841.975	22322
842.112	22356
842.249	22093
842.385	22230
842.522	22474
842.659	22363
842.796	22287
842.933	22101
843.069	22177
843.206	22249
843.343	22249
843.479	22268
843.616	22310
843.752	21930
843.889	21998
844.025	22249
844.162	22063
844.298	22063
844.435	22162
844.571	21987
844.708	22078
844.844	22097
844.98	22173
845.117	22063
845.253	21949
845.389	21793
845.525	21937
845.661	21884
845.798	21701
845.934	21835
846.07	21663
846.206	21785
846.342	21781
846.478	21717
846.614	21629
846.75	21523
846.886	21466
847.022	21504
847.158	21355
847.294	21435
847.429	21557
847.565	21374
847.701	21720
847.837	21135
847.972	21116
848.108	21351
848.244	21176
848.379	21093
848.515	20994
848.65	20994
848.786	21138
848.921	20937
849.057	21108
849.192	21207
849.328	21066
849.463	20982
849.598	21005
849.734	20921
849.869	20876
850.004	20800
850.14	20826
850.275	21062
850.41	20765
850.545	20834
850.68	20910
850.815	20910
850.95	20853
851.085	21001
851.22	20952
851.355	20765
851.49	20758
851.625	20792
851.76	20746
851.895	20804
852.03	20758
852.165	20678
852.299	20887
852.434	20864
852.569	20811
852.703	20842
852.838	20876
852.973	21036
853.107	20891
853.242	20811
853.376	20632
853.511	20526
853.645	20629
853.78	20731
853.914	20598
854.048	20697
854.183	20594
854.317	20689
854.451	20861
854.585	20678
854.72	20575
854.854	20674
854.988	20617
855.122	20571
855.256	20526
855.39	20518
855.524	20743
855.658	20629
855.792	20655
855.926	20712
856.06	20705
856.194	20689
856.327	20549
856.461	20571
856.595	20602
856.729	20549
856.862	20765
856.996	20617
857.13	20777
857.263	20686
857.397	20674
857.53	20511
857.664	20632
857.797	20674
857.931	20708
858.064	20640
858.197	20686
858.331	20568
858.464	20541
858.597	20625
858.731	20556
858.864	20526
858.997	20492
859.13	20640
859.263	20651
859.396	20625
859.529	20606
859.662	20613
859.795	20568
859.928	20594
860.061	20743
860.194	20880
860.327	20686
860.46	20621
860.592	20758
860.725	20773
860.858	20781
860.99	20686
861.123	20583
861.256	20511
861.388	20659
861.521	21359
861.653	20476
861.786	20480
861.918	20571
862.05	20556
862.183	20526
862.315	20526
862.447	20693
862.58	20587
862.712	20370
862.844	20336
862.976	20503
863.108	20385
863.24	20853
863.372	20347
863.504	20442
863.636	20286
863.768	20450
863.9	20385
864.032	20313
864.164	20351
864.296	20396
864.428	20431
864.559	20450
864.691	20381
864.823	20434
864.954	20339
865.086	20450
865.217	20298
865.349	20149
865.48	20233
865.612	20221
865.743	20366
865.875	20252
866.006	20183
866.137	20332
866.269	20164
866.4	20202
866.531	20210
866.662	20214
866.793	20286
866.924	20244
867.055	20290
867.186	20157
867.317	20275
867.448	20145
867.579	20176
867.71	20096
867.841	20122
867.972	20145
868.103	20176
868.233	20259
868.364	20275
868.495	20370
868.625	20317
868.756	20640
868.886	20427
869.017	20613
869.147	20609
869.278	20526
869.408	20613
869.539	20495
869.669	20518
869.799	20632
869.929	20545
870.06	20556
870.19	20758
870.32	20765
870.45	20864
870.58	20785
870.71	20914
870.84	20979
870.97	20823
871.1	20785
871.23	20982
871.36	21116
871.489	20986
871.619	20910
871.749	21127
871.879	20998
872.008	21062
872.138	21036
872.267	21104
872.397	20838
872.526	20956
872.656	20994
872.785	20845
872.915	20986
873.044	21119
873.173	21070
873.303	21138
873.432	21154
873.561	21218
873.69	21146
873.819	21135
873.948	21108
874.077	21131
874.206	20960
874.335	21039
874.464	21150
874.593	21264
874.722	21329
874.851	21420
874.979	21428
875.108	21256
875.237	21192
875.365	21275
875.494	21252
875.623	21363
875.751	21332
875.88	21321
876.008	21348
876.136	21488
876.265	21804
876.393	21755
876.521	21884
876.65	21698
876.778	21774
876.906	21705
877.034	21564
877.162	21641
877.29	21591
877.418	21603
877.546	21728
877.674	21682
877.802	21595
877.93	21622
878.058	21633
878.185	21545
878.313	21576
878.441	21675
878.568	21481
878.696	21538
878.824	21766
878.951	21694
879.079	21930
879.206	22013
879.333	21842
879.461	21724
879.588	21797
879.715	21793
879.842	21945
879.97	21743
880.097	21507
880.224	21488
880.351	21359
880.478	21515
880.605	21572
880.732	21523
880.859	21622
880.986	21564
881.112	21530
881.239	21325
881.366	21138
881.493	21161
881.619	21195
881.746	21154
881.872	21165
881.999	21104
882.125	20933
882.252	21104
882.378	20941
882.505	21272
882.631	20918
882.757	20834
882.883	20849
883.01	20785
883.136	20769
883.262	20655
883.388	20651
883.514	20811
883.64	20895
883.766	20724
883.892	20648
884.018	20549
884.143	20804
884.269	20804
884.395	20484
884.52	20545
884.646	20488
884.772	20484
884.897	20286
885.023	20469
885.148	20556
885.274	20739
885.399	20606
885.524	20533
885.65	20530
885.775	20450
885.9	20438
886.025	20564
886.15	20545
886.275	20374
886.4	20336
886.525	20286
886.65	20317
886.775	20301
886.9	20545
887.025	20659
887.149	20393
887.274	20324
887.399	20145
887.523	20142
887.648	20183
887.773	20077
887.897	20358
888.021	20263
888.146	20157
888.27	20438
888.395	20389
888.519	20233
888.643	20263
888.767	20328
888.891	20130
889.015	20069
889.139	20142
889.263	19986
889.387	20081
889.511	20237
889.635	20218
889.759	20058
889.883	19963
890.006	20039
890.13	20115
890.254	19898
890.377	19875
890.501	19746
890.624	19814
890.748	19769
890.871	19693
890.995	19594
891.118	19552
891.241	19616
891.364	19643
891.488	19750
891.611	19559
891.734	19677
891.857	19670
891.98	19605
892.103	19772
892.226	19556
892.349	19620
892.471	19525
892.594	19510
892.717	19601
892.839	19594
892.962	19514
893.085	19655
893.207	19510
893.33	19460
893.452	19434
893.575	19567
893.697	19563
893.819	19613
893.941	19708
894.064	19681
894.186	19483
894.308	19377
894.43	19616
894.552	19696
894.674	19605
894.796	19533
894.918	19453
895.04	19426
895.161	19613
895.283	19662
895.405	19495
895.526	19628
895.648	19426
895.769	19601
895.891	19537
896.012	19666
896.134	19521
896.255	19559
896.376	19483
896.498	19521
896.619	19552
896.74	19445
896.861	19495
896.982	19788
897.103	19932
897.224	19700
897.345	19784
897.466	19731
897.587	19761
897.708	19883
897.828	19700
897.949	19765
898.07	19567
898.19	19685
898.311	19791
898.431	19734
898.552	19780
898.672	19856
898.792	19769
898.913	19795
899.033	19670
899.153	19514
899.273	19476
899.393	19472
899.513	19403
899.633	19552
899.753	19430
899.873	19434
899.993	19525
900.113	19335
900.232	19430
900.352	19430
900.472	19301
900.591	19411
900.711	19312
900.83	19232
900.95	19388
901.069	19403
901.189	19175
901.308	18894
901.427	18905
901.546	18878
901.665	18913
901.784	18859
901.904	18623
902.023	18620
902.141	18456
902.26	18422
902.379	18623
902.498	18593
902.617	18380
902.735	18384
902.854	18498
902.973	18426
903.091	18114
903.21	18110
903.328	18095
903.446	17893
903.565	17912
903.683	17885
903.801	17783
903.919	17885
904.038	17939
904.156	17672
904.274	17661
904.392	17501
904.51	17596
904.627	17573
904.745	17748
904.863	17619
904.981	17364
905.098	17307
905.216	17490
905.334	17235
905.451	17429
905.569	17334
905.686	17242
905.803	17356
905.921	17052
906.038	17242
906.155	17083
906.272	16999
906.389	17037
906.506	16866
906.623	17003
906.74	16858
906.857	16866
906.974	16850
907.091	16908
907.208	16904
907.324	16869
907.441	16843
907.557	16634
907.674	16691
907.79	16512
907.907	16592
908.023	16558
908.139	16603
908.256	16493
908.372	16382
908.488	16489
908.604	16398
908.72	16299
908.836	16284
908.952	16348
909.068	16386
909.184	16451
909.3	16386
909.415	16367
909.531	16272
909.647	16112
909.762	15987
909.878	15975
909.993	15960
910.108	16040
910.224	16032
910.339	16109
910.454	15975
910.57	15915
910.685	15770
910.8	16048
910.915	15994
911.03	15816
911.145	15648
911.259	15641
911.374	15679
911.489	15580
911.604	15526
911.718	15450
911.833	15348
911.947	15370
912.062	15249
912.176	15420
912.291	15469
912.405	15393
912.519	15641
912.633	15633
912.748	15386
912.862	15405
912.976	15245
913.09	15093
913.204	15123
913.318	15245
913.431	15260
913.545	15313
913.659	15214
913.772	15207
913.886	15077
914	14952
914.113	15108
914.226	15173
914.34	15058
914.453	14952
914.566	15123
914.68	14819
914.793	14982
914.906	14640
915.019	14629
915.132	14575
915.245	14610
915.358	14716
915.47	14670
915.583	14644
915.696	14545
915.809	14804
915.921	14826
916.034	14678
916.146	14530
916.259	14564
916.371	14644
916.483	14644
916.595	14507
916.708	14617
916.82	14495
916.932	14423
917.044	14434
917.156	14400
917.268	14305
917.38	14237
917.491	14229
917.603	14339
917.715	14377
917.826	14457
917.938	14202
918.049	14157
918.161	14301
918.272	14415
918.384	14347
918.495	14130
918.606	14176
918.717	14073
918.828	14107
918.939	14012
919.05	14031
919.161	14012
919.272	13875
919.383	13951
919.494	14016
919.604	14305
919.715	14035
919.826	14001
919.936	14092
920.047	14149
920.157	14119
920.267	14259
920.378	14046
920.488	14012
920.598	14157
920.708	14396
920.818	14081
920.928	14229
921.038	14374
921.148	14290
921.258	14077
921.368	13982
921.477	13871
921.587	13818
921.697	13772
921.806	13841
921.916	13670
922.025	13445
922.134	13415
922.244	13396
922.353	13491
922.462	13354
922.571	13221
922.68	13122
922.789	13103
922.898	13103
923.007	13015
923.116	13289
923.224	13118
923.333	12981
923.442	13004
923.55	13000
923.659	12951
923.767	12970
923.876	12905
923.984	12977
924.092	12806
924.201	12878
924.309	12932
924.417	12844
924.525	12760
924.633	12772
924.741	13723
924.849	12547
924.956	12707
925.064	12551
925.172	12467
925.279	12566
925.387	12574
925.494	12536
925.602	12673
925.709	12604
925.816	12448
925.924	12506
926.031	12612
926.138	12429
926.245	12536
926.352	12380
926.459	12460
926.566	12635
926.673	12414
926.779	12232
926.886	12216
926.993	12121
927.099	12114
927.206	12038
927.312	12064
927.419	12201
927.525	12175
927.631	12140
927.737	11980
927.843	11973
927.95	11851
928.056	11999
928.162	11927
928.267	12053
928.373	12448
928.479	12079
928.585	11771
928.69	11851
928.796	11939
928.901	11832
929.007	11676
929.112	11847
929.218	11824
929.323	11779
929.428	11642
929.533	11771
929.638	11661
929.743	11627
929.848	11737
929.953	11577
930.058	11573
930.163	11376
930.267	11436
930.372	11547
930.477	11284
930.581	11558
930.685	11395
930.79	11273
930.894	11311
930.998	11185
931.103	11391
931.207	11098
931.311	10965
931.415	10930
931.519	10733
931.623	10615
