Data from test_V78500241_2752.txt Node
Date: Fri Mar 25 15:29:01 CST 2022
User: usil
Spectrometer: V785-0024
Trigger mode: 0
Integration Time (sec): 4.000000E-1
Scans to average: 1
Nonlinearity correction enabled: false
Boxcar width: 0
Storing dark spectrum: false
XAxis mode: Wavelengths
Number of Pixels in Spectrum: 1024
>>>>>Begin Spectral Data<<<<<
801.071	26861
801.214	27055
801.356	26800
801.499	26743
801.641	26549
801.783	26358
801.926	26598
802.068	26613
802.211	26377
802.353	26294
802.496	26244
802.638	26168
802.78	26157
802.923	26096
803.065	26050
803.208	26107
803.35	26214
803.492	26225
803.635	26343
803.777	26122
803.919	26328
804.061	26583
804.204	26385
804.346	26180
804.488	26282
804.63	26229
804.773	26183
804.915	26309
805.057	26446
805.199	26221
805.341	26339
805.483	26503
805.626	26347
805.768	26180
805.91	26355
806.052	26434
806.194	26225
806.336	26400
806.478	26366
806.62	26206
806.762	26507
806.904	26670
807.046	26883
807.188	26819
807.33	26655
807.472	26872
807.614	26670
807.756	26914
807.898	26636
808.04	26530
808.182	26568
808.324	26727
808.465	26632
808.607	26724
808.749	26933
808.891	27100
809.033	27184
809.174	26998
809.316	26948
809.458	27077
809.6	26796
809.741	26982
809.883	27013
810.025	27279
810.166	27195
810.308	27310
810.45	27123
810.591	27146
810.733	26921
810.875	26815
811.016	26963
811.158	26804
811.299	27028
811.441	27135
811.582	27176
811.724	26929
811.865	26910
812.007	26906
812.148	26960
812.29	26914
812.431	27070
812.573	27211
812.714	27287
812.855	27500
812.997	27648
813.138	27603
813.279	27587
813.421	27405
813.562	27367
813.703	27211
813.845	27074
813.986	26990
814.127	26609
814.268	26743
814.41	26514
814.551	26625
814.692	26697
814.833	26640
814.974	26503
815.115	26609
815.256	26609
815.397	26507
815.539	26522
815.68	26450
815.821	26259
815.962	26343
816.103	26301
816.244	26237
816.385	26096
816.526	26134
816.666	25959
816.807	25750
816.948	25940
817.089	25951
817.23	25963
817.371	25879
817.512	25833
817.653	25818
817.793	25734
817.934	25871
818.075	26027
818.216	25860
818.356	25807
818.497	25674
818.638	25601
818.778	25643
818.919	25628
819.06	25685
819.2	25807
819.341	25799
819.481	25784
819.622	25913
819.762	26191
819.903	26183
820.043	26016
820.184	25982
820.324	25989
820.465	26039
820.605	25864
820.746	25986
820.886	25700
821.026	25887
821.167	25883
821.307	25970
821.447	25795
821.588	25799
821.728	25738
821.868	25434
822.008	25430
822.149	25331
822.289	25209
822.429	25004
822.569	25114
822.709	25034
822.849	24897
822.99	24875
823.13	24814
823.27	24814
823.41	24555
823.55	24578
823.69	24635
823.83	24734
823.97	24627
824.11	24357
824.25	24513
824.389	24369
824.529	24547
824.669	24327
824.809	24498
824.949	24585
825.089	24536
825.228	24448
825.368	24300
825.508	24254
825.648	24243
825.787	24403
825.927	24403
826.067	24353
826.206	24467
826.346	24418
826.485	24391
826.625	24334
826.765	24308
826.904	24369
827.044	24136
827.183	24057
827.323	23939
827.462	24068
827.601	24076
827.741	23961
827.88	23980
828.02	23999
828.159	23916
828.298	24045
828.437	24171
828.577	23851
828.716	24243
828.855	23889
828.994	23832
829.134	23843
829.273	23691
829.412	23703
829.551	23630
829.69	23779
829.829	23752
829.968	23828
830.107	23767
830.246	23794
830.385	23672
830.524	23551
830.663	23547
830.802	23554
830.941	23284
831.08	23242
831.219	23410
831.357	23349
831.496	23463
831.635	23444
831.774	23334
831.913	23216
832.051	23071
832.19	23064
832.329	23174
832.467	22972
832.606	22976
832.744	22927
832.883	23022
833.022	22862
833.16	22938
833.299	23181
833.437	22995
833.576	23048
833.714	23075
833.852	23029
833.991	23178
834.129	23208
834.267	23181
834.406	23060
834.544	23102
834.682	23181
834.821	23079
834.959	23185
835.097	22991
835.235	23044
835.373	23098
835.511	23094
835.65	22862
835.788	22919
835.926	22793
836.064	22744
836.202	22812
836.34	23083
836.478	23003
836.615	22854
836.753	22953
836.891	22984
837.029	22797
837.167	22793
837.305	22793
837.443	22744
837.58	22801
837.718	22771
837.856	22866
837.993	22649
838.131	22805
838.269	22626
838.406	22702
838.544	22607
838.681	22413
838.819	22394
838.956	22188
839.094	22253
839.231	22306
839.369	22466
839.506	22672
839.643	22470
839.781	22280
839.918	22242
840.055	22360
840.193	22272
840.33	22196
840.467	22242
840.604	22322
840.742	22459
840.879	21994
841.016	22093
841.153	22017
841.29	22223
841.427	22074
841.564	22223
841.701	22230
841.838	22173
841.975	22173
842.112	22059
842.249	22002
842.385	22067
842.522	22207
842.659	22109
842.796	21911
842.933	21941
843.069	21930
843.206	21930
843.343	22017
843.479	21934
843.616	21945
843.752	21778
843.889	21724
844.025	21915
844.162	21675
844.298	21884
844.435	21789
844.571	21679
844.708	21789
844.844	21800
844.98	21800
845.117	21751
845.253	21542
845.389	21492
845.525	21701
845.661	21660
845.798	21458
845.934	21504
846.07	21416
846.206	21580
846.342	21568
846.478	21500
846.614	21272
846.75	21138
846.886	21291
847.022	21272
847.158	21173
847.294	21237
847.429	21230
847.565	21173
847.701	21378
847.837	20952
847.972	20899
848.108	20868
848.244	20925
848.379	20842
848.515	20781
848.65	20602
848.786	20716
848.921	20697
849.057	20944
849.192	20948
849.328	20883
849.463	20861
849.598	20686
849.734	20724
849.869	20625
850.004	20571
850.14	20602
850.275	20530
850.41	20571
850.545	20549
850.68	20571
850.815	20537
850.95	20541
851.085	20861
851.22	20602
851.355	20705
851.49	20423
851.625	20556
851.76	20476
851.895	20522
852.03	20484
852.165	20507
852.299	20613
852.434	20632
852.569	20552
852.703	20545
852.838	20629
852.973	20632
853.107	20689
853.242	20568
853.376	20374
853.511	20298
853.645	20393
853.78	20469
853.914	20446
854.048	20385
854.183	20317
854.317	20389
854.451	20526
854.585	20499
854.72	20332
854.854	20434
854.988	20237
855.122	20393
855.256	20206
855.39	20328
855.524	20427
855.658	20488
855.792	20244
855.926	20408
856.06	20594
856.194	20438
856.327	20393
856.461	20339
856.595	20358
856.729	20446
856.862	20609
856.996	20317
857.13	20476
857.263	20511
857.397	20533
857.53	20423
857.664	20434
857.797	20438
857.931	20465
858.064	20393
858.197	20400
858.331	20408
858.464	20309
858.597	20370
858.731	20454
858.864	20396
858.997	20362
859.13	20396
859.263	20438
859.396	20488
859.529	20442
859.662	20309
859.795	20233
859.928	20301
860.061	20514
860.194	20606
860.327	20469
860.46	20381
860.592	20530
860.725	20465
860.858	20518
860.99	20427
861.123	20267
861.256	20355
861.388	20419
861.521	20990
861.653	20153
861.786	20046
861.918	20107
862.05	20107
862.183	20263
862.315	20256
862.447	20336
862.58	20317
862.712	20164
862.844	20054
862.976	20229
863.108	20202
863.24	20651
863.372	20065
863.504	20069
863.636	20035
863.768	20084
863.9	20107
864.032	19944
864.164	20043
864.296	20145
864.428	20214
864.559	20157
864.691	20145
864.823	20126
864.954	20035
865.086	20084
865.217	19993
865.349	19932
865.48	20005
865.612	19947
865.743	20050
865.875	19982
866.006	20039
866.137	20084
866.269	19917
866.4	20065
866.531	19970
866.662	19928
866.793	19944
866.924	19978
867.055	19944
867.186	20005
867.317	19875
867.448	19849
867.579	19864
867.71	19742
867.841	19811
867.972	19856
868.103	19925
868.233	19940
868.364	19944
868.495	19982
868.625	20142
868.756	20298
868.886	20126
869.017	20088
869.147	20259
869.278	20290
869.408	20187
869.539	20161
869.669	20278
869.799	20195
869.929	20309
870.06	20324
870.19	20351
870.32	20438
870.45	20541
870.58	20587
870.71	20678
870.84	20682
870.97	20629
871.1	20697
871.23	20921
871.36	20800
871.489	20693
871.619	20804
871.749	20834
871.879	20743
872.008	20765
872.138	20849
872.267	20815
872.397	20632
872.526	20556
872.656	20644
872.785	20651
872.915	20754
873.044	20914
873.173	20819
873.303	20883
873.432	20773
873.561	20853
873.69	20781
873.819	20739
873.948	20868
874.077	20769
874.206	20838
874.335	20819
874.464	21028
874.593	21081
874.722	20967
874.851	21001
874.979	21043
875.108	21135
875.237	21013
875.365	20906
875.494	21077
875.623	21142
875.751	21081
875.88	21135
876.008	21233
876.136	21214
876.265	21500
876.393	21587
876.521	21542
876.65	21538
876.778	21561
876.906	21370
877.034	21348
877.162	21367
877.29	21291
877.418	21454
877.546	21397
877.674	21412
877.802	21519
877.93	21450
878.058	21279
878.185	21260
878.313	21294
878.441	21321
878.568	21325
878.696	21401
878.824	21450
878.951	21401
879.079	21603
879.206	21698
879.333	21485
879.461	21420
879.588	21606
879.715	21713
879.842	21580
879.97	21511
880.097	21294
880.224	21264
880.351	21283
880.478	21260
880.605	21142
880.732	21325
880.859	21542
880.986	21211
881.112	21226
881.239	21123
881.366	20990
881.493	20952
881.619	20876
881.746	20830
881.872	20876
881.999	20769
882.125	20796
882.252	20762
882.378	20861
882.505	20933
882.631	20727
882.757	20594
882.883	20674
883.01	20442
883.136	20362
883.262	20518
883.388	20503
883.514	20590
883.64	20621
883.766	20514
883.892	20339
884.018	20454
884.143	20492
884.269	20575
884.395	20233
884.52	20206
884.646	20164
884.772	20149
884.897	20103
885.023	20317
885.148	20240
885.274	20275
885.399	20301
885.524	20084
885.65	20138
885.775	20138
885.9	20126
886.025	20347
886.15	20218
886.275	20149
886.4	20138
886.525	20088
886.65	20122
886.775	20039
886.9	20286
887.025	20328
887.149	20202
887.274	20012
887.399	19913
887.523	19932
887.648	19940
887.773	19917
887.897	19993
888.021	20031
888.146	19944
888.27	20031
888.395	20062
888.519	19982
888.643	19955
888.767	19989
888.891	19822
889.015	19704
889.139	19818
889.263	19753
889.387	19814
889.511	19970
889.635	19906
889.759	19727
889.883	19731
890.006	19742
890.13	19860
890.254	19753
890.377	19582
890.501	19563
890.624	19430
890.748	19567
890.871	19464
890.995	19346
891.118	19331
891.241	19396
891.364	19434
891.488	19419
891.611	19381
891.734	19388
891.857	19362
891.98	19335
892.103	19373
892.226	19324
892.349	19301
892.471	19228
892.594	19244
892.717	19396
892.839	19190
892.962	19312
893.085	19339
893.207	19244
893.33	19145
893.452	19232
893.575	19285
893.697	19175
893.819	19293
893.941	19472
894.064	19468
894.186	19251
894.308	19175
894.43	19255
894.552	19468
894.674	19350
894.796	19278
894.918	19324
895.04	19228
895.161	19396
895.283	19362
895.405	19129
895.526	19217
895.648	19225
895.769	19266
895.891	19324
896.012	19362
896.134	19301
896.255	19194
896.376	19354
896.498	19263
896.619	19384
896.74	19255
896.861	19358
896.982	19719
897.103	19898
897.224	19552
897.345	19487
897.466	19392
897.587	19422
897.708	19719
897.828	19529
897.949	19400
898.07	19362
898.19	19537
898.311	19647
898.431	19464
898.552	19514
898.672	19571
898.792	19594
898.913	19544
899.033	19441
899.153	19445
899.273	19274
899.393	19266
899.513	19312
899.633	19358
899.753	19358
899.873	19308
899.993	19339
900.113	19251
900.232	19312
900.352	19190
900.472	19118
900.591	19050
900.711	19141
900.83	19031
900.95	19221
901.069	19164
901.189	18905
901.308	18745
901.427	18722
901.546	18642
901.665	18677
901.784	18711
901.904	18521
902.023	18433
902.141	18308
902.26	18289
902.379	18342
902.498	18159
902.617	18148
902.735	18064
902.854	18163
902.973	18083
903.091	17954
903.21	17824
903.328	17893
903.446	17786
903.565	17756
903.683	17661
903.801	17676
903.919	17722
904.038	17535
904.156	17520
904.274	17570
904.392	17425
904.51	17452
904.627	17387
904.745	17467
904.863	17482
904.981	17254
905.098	17060
905.216	17189
905.334	17121
905.451	17193
905.569	17105
905.686	17193
905.803	17170
905.921	16866
906.038	16995
906.155	16946
906.272	16881
906.389	16824
906.506	16645
906.623	16725
906.74	16729
906.857	16516
906.974	16618
907.091	16740
907.208	16740
907.324	16805
907.441	16599
907.557	16474
907.674	16489
907.79	16386
907.907	16447
908.023	16390
908.139	16440
908.256	16405
908.372	16303
908.488	16375
908.604	16200
908.72	16192
908.836	16185
908.952	16021
909.068	16105
909.184	16211
909.3	16147
909.415	16131
909.531	16021
909.647	15873
909.762	15998
909.878	15835
909.993	15873
910.108	15808
910.224	15759
910.339	15800
910.454	15747
910.57	15698
910.685	15686
910.8	15736
910.915	15831
911.03	15641
911.145	15500
911.259	15374
911.374	15412
911.489	15408
911.604	15268
911.718	15222
911.833	15214
911.947	15192
912.062	15138
912.176	15233
912.291	15252
912.405	15184
912.519	15351
912.633	15321
912.748	15176
912.862	15047
912.976	15058
913.09	14891
913.204	14994
913.318	15032
913.431	15173
913.545	15131
913.659	15150
913.772	14902
913.886	14906
914	14880
914.113	14918
914.226	15104
914.34	14838
914.453	14777
914.566	14868
914.68	14781
914.793	14678
914.906	14473
915.019	14393
915.132	14347
915.245	14484
915.358	14480
915.47	14427
915.583	14446
915.696	14526
915.809	14590
915.921	14568
916.034	14419
916.146	14355
916.259	14332
916.371	14404
916.483	14366
916.595	14320
916.708	14336
916.82	14275
916.932	14286
917.044	14233
917.156	14248
917.268	14054
917.38	14164
917.491	14008
917.603	14157
917.715	14221
917.826	14191
917.938	14039
918.049	13947
918.161	13982
918.272	14180
918.384	14149
918.495	14065
918.606	14024
918.717	13830
918.828	13989
918.939	13925
919.05	13898
919.161	13887
919.272	13837
919.383	13734
919.494	13932
919.604	14054
919.715	13841
919.826	13837
919.936	13868
920.047	13951
920.157	13860
920.267	14020
920.378	13917
920.488	13742
920.598	13917
920.708	14225
920.818	13902
920.928	14008
921.038	14176
921.148	14088
921.258	13814
921.368	13700
921.477	13563
921.587	13552
921.697	13499
921.806	13620
921.916	13514
922.025	13335
922.134	13225
922.244	13301
922.353	13301
922.462	13190
922.571	13084
922.68	12996
922.789	12928
922.898	12867
923.007	12875
923.116	12989
923.224	13042
923.333	12916
923.442	12821
923.55	12722
923.659	12798
923.767	12840
923.876	12692
923.984	12859
924.092	12703
924.201	12776
924.309	12646
924.417	12707
924.525	12627
924.633	12658
924.741	13453
924.849	12471
924.956	12612
925.064	12429
925.172	12357
925.279	12456
925.387	12399
925.494	12376
925.602	12540
925.709	12418
925.816	12338
925.924	12300
926.031	12399
926.138	12273
926.245	12369
926.352	12167
926.459	12448
926.566	12380
926.673	12292
926.779	12072
926.886	12140
926.993	11980
927.099	12060
927.206	11908
927.312	11950
927.419	12049
927.525	12034
927.631	12079
927.737	11927
927.843	11802
927.95	11779
928.056	11786
928.162	11832
928.267	11916
928.373	12410
928.479	11885
928.585	11642
928.69	11718
928.796	11805
928.901	11680
929.007	11600
929.112	11634
929.218	11672
929.323	11615
929.428	11493
929.533	11710
929.638	11509
929.743	11520
929.848	11676
929.953	11490
930.058	11467
930.163	11162
930.267	11254
930.372	11414
930.477	11204
930.581	11337
930.685	11288
930.79	11090
930.894	11181
930.998	11204
931.103	11258
931.207	10866
931.311	10904
931.415	10706
931.519	10554
931.623	10516
