Data from test_V78500241_1681.txt Node
Date: Fri Mar 25 15:21:33 CST 2022
User: usil
Spectrometer: V785-0024
Trigger mode: 0
Integration Time (sec): 4.000000E-1
Scans to average: 1
Nonlinearity correction enabled: false
Boxcar width: 0
Storing dark spectrum: false
XAxis mode: Wavelengths
Number of Pixels in Spectrum: 1024
>>>>>Begin Spectral Data<<<<<
801.071	27964
801.214	28010
801.356	27686
801.499	27789
801.641	27492
801.783	27568
801.926	27709
802.068	27778
802.211	27393
802.353	27447
802.496	27272
802.638	27207
802.78	27165
802.923	27161
803.065	27028
803.208	27135
803.35	27226
803.492	27207
803.635	27302
803.777	27272
803.919	27401
804.061	27682
804.204	27523
804.346	27507
804.488	27359
804.63	27439
804.773	27325
804.915	27447
805.057	27511
805.199	27507
805.341	27504
805.483	27450
805.626	27481
805.768	27287
805.91	27485
806.052	27583
806.194	27336
806.336	27739
806.478	27583
806.62	27519
806.762	27709
806.904	27762
807.046	28109
807.188	28055
807.33	28173
807.472	28032
807.614	28029
807.756	27838
807.898	27918
808.04	27743
808.182	27762
808.324	27720
808.465	27835
808.607	27987
808.749	28139
808.891	28329
809.033	28398
809.174	28188
809.316	28063
809.458	28287
809.6	28131
809.741	28280
809.883	28341
810.025	28459
810.166	28527
810.308	28497
810.45	28504
810.591	28287
810.733	28177
810.875	28105
811.016	28032
811.158	28181
811.299	28329
811.441	28356
811.582	28413
811.724	28219
811.865	28188
812.007	28120
812.148	28215
812.29	28276
812.431	28382
812.573	28592
812.714	28561
812.855	28740
812.997	28763
813.138	28820
813.279	28790
813.421	28713
813.562	28759
813.703	28432
813.845	28421
813.986	28131
814.127	27953
814.268	27960
814.41	27899
814.551	27861
814.692	27892
814.833	27797
814.974	27766
815.115	27911
815.256	27713
815.397	27751
815.539	27907
815.68	27747
815.821	27656
815.962	27808
816.103	27580
816.244	27477
816.385	27431
816.526	27389
816.666	27336
816.807	27154
816.948	27154
817.089	27321
817.23	27154
817.371	27222
817.512	27249
817.653	27249
817.793	27089
817.934	27188
818.075	27085
818.216	27169
818.356	27108
818.497	27116
818.638	26880
818.778	26872
818.919	26918
819.06	26956
819.2	27047
819.341	27199
819.481	27203
819.622	27336
819.762	27500
819.903	27317
820.043	27245
820.184	27420
820.324	27287
820.465	27298
820.605	27272
820.746	27340
820.886	27329
821.026	27408
821.167	27249
821.307	27374
821.447	27188
821.588	27013
821.728	26944
821.868	26788
822.008	26594
822.149	26682
822.289	26568
822.429	26286
822.569	26244
822.709	26278
822.849	26119
822.99	26191
823.13	26130
823.27	26046
823.41	26008
823.55	25890
823.69	25997
823.83	25989
823.97	25925
824.11	25864
824.25	25738
824.389	25746
824.529	25830
824.669	25780
824.809	25890
824.949	25795
825.089	26016
825.228	25837
825.368	25605
825.508	25567
825.648	25658
825.787	25753
825.927	25624
826.067	25776
826.206	25540
826.346	25776
826.485	25761
826.625	25632
826.765	25902
826.904	25734
827.044	25392
827.183	25415
827.323	25548
827.462	25415
827.601	25346
827.741	25483
827.88	25495
828.02	25308
828.159	25388
828.298	25441
828.437	25563
828.577	25110
828.716	25495
828.855	25438
828.994	24962
829.134	25118
829.273	25050
829.412	25057
829.551	25027
829.69	25080
829.829	25232
829.968	25168
830.107	25148
830.246	25069
830.385	25050
830.524	25019
830.663	24821
830.802	24875
830.941	24639
831.08	24555
831.219	24711
831.357	24684
831.496	24890
831.635	24795
831.774	24658
831.913	24654
832.051	24490
832.19	24528
832.329	24464
832.467	24365
832.606	24319
832.744	24300
832.883	24384
833.022	24304
833.16	24399
833.299	24395
833.437	24441
833.576	24342
833.714	24467
833.852	24441
833.991	24513
834.129	24479
834.267	24490
834.406	24437
834.544	24479
834.682	24471
834.821	24376
834.959	24585
835.097	24403
835.235	24467
835.373	24452
835.511	24456
835.65	24357
835.788	24327
835.926	24163
836.064	24129
836.202	24159
836.34	24357
836.478	24353
836.615	24292
836.753	24224
836.891	24376
837.029	24262
837.167	24247
837.305	24076
837.443	24167
837.58	23999
837.718	24152
837.856	24140
837.993	24072
838.131	24083
838.269	23893
838.406	23965
838.544	23912
838.681	23798
838.819	23672
838.956	23577
839.094	23585
839.231	23695
839.369	23802
839.506	23965
839.643	23958
839.781	23653
839.918	23471
840.055	23570
840.193	23509
840.33	23596
840.467	23429
840.604	23573
840.742	23824
840.879	23258
841.016	23383
841.153	23429
841.29	23619
841.427	23596
841.564	23497
841.701	23433
841.838	23455
841.975	23410
842.112	23429
842.249	23402
842.385	23330
842.522	23322
842.659	23353
842.796	23246
842.933	23231
843.069	23200
843.206	23155
843.343	23277
843.479	23364
843.616	23280
843.752	23067
843.889	23052
844.025	23140
844.162	22987
844.298	23136
844.435	23071
844.571	23083
844.708	23056
844.844	23189
844.98	22995
845.117	23151
845.253	22946
845.389	22915
845.525	22957
845.661	22786
845.798	22805
845.934	22881
846.07	22805
846.206	22862
846.342	22824
846.478	22717
846.614	22641
846.75	22474
846.886	22421
847.022	22561
847.158	22588
847.294	22474
847.429	22451
847.565	22371
847.701	22683
847.837	22299
847.972	22257
848.108	22299
848.244	22337
848.379	22143
848.515	22070
848.65	22021
848.786	22048
848.921	22128
849.057	22150
849.192	22185
849.328	22097
849.463	22093
849.598	22070
849.734	22017
849.869	21854
850.004	21717
850.14	21926
850.275	21827
850.41	21766
850.545	21835
850.68	21880
850.815	21766
850.95	21941
851.085	21937
851.22	21922
851.355	21972
851.49	21732
851.625	21797
851.76	21724
851.895	21679
852.03	21808
852.165	21827
852.299	21873
852.434	21964
852.569	21956
852.703	21812
852.838	21911
852.973	21922
853.107	21975
853.242	21705
853.376	21759
853.511	21496
853.645	21625
853.78	21819
853.914	21720
854.048	21698
854.183	21663
854.317	21724
854.451	21850
854.585	21660
854.72	21747
854.854	21755
854.988	21538
855.122	21724
855.256	21572
855.39	21713
855.524	21789
855.658	21770
855.792	21641
855.926	21656
856.06	21747
856.194	21671
856.327	21561
856.461	21644
856.595	21580
856.729	21652
856.862	21720
856.996	21660
857.13	21648
857.263	21846
857.397	21694
857.53	21557
857.664	21663
857.797	21610
857.931	21804
858.064	21743
858.197	21667
858.331	21675
858.464	21568
858.597	21485
858.731	21682
858.864	21641
858.997	21603
859.13	21580
859.263	21595
859.396	21743
859.529	21705
859.662	21557
859.795	21606
859.928	21713
860.061	21854
860.194	21888
860.327	21781
860.46	21698
860.592	21762
860.725	21854
860.858	21713
860.99	21595
861.123	21679
861.256	21641
861.388	21671
861.521	22284
861.653	21587
861.786	21393
861.918	21511
862.05	21466
862.183	21538
862.315	21633
862.447	21618
862.58	21595
862.712	21321
862.844	21367
862.976	21443
863.108	21458
863.24	21762
863.372	21264
863.504	21431
863.636	21408
863.768	21344
863.9	21294
864.032	21329
864.164	21458
864.296	21393
864.428	21534
864.559	21507
864.691	21351
864.823	21458
864.954	21397
865.086	21443
865.217	21283
865.349	21180
865.48	21294
865.612	21363
865.743	21397
865.875	21310
866.006	21287
866.137	21226
866.269	21310
866.4	21180
866.531	21138
866.662	21207
866.793	21233
866.924	21074
867.055	21325
867.186	21150
867.317	21123
867.448	21165
867.579	21268
867.71	21047
867.841	21058
867.972	21192
868.103	21180
868.233	21195
868.364	21154
868.495	21237
868.625	21492
868.756	21595
868.886	21443
869.017	21401
869.147	21603
869.278	21511
869.408	21530
869.539	21355
869.669	21469
869.799	21439
869.929	21530
870.06	21519
870.19	21705
870.32	21679
870.45	21793
870.58	21736
870.71	21861
870.84	21987
870.97	21770
871.1	21755
871.23	21983
871.36	22036
871.489	21831
871.619	21972
871.749	22097
871.879	21953
872.008	22207
872.138	22021
872.267	22032
872.397	21911
872.526	21850
872.656	21804
872.785	21915
872.915	22013
873.044	22025
873.173	22055
873.303	22097
873.432	22131
873.561	22112
873.69	22124
873.819	21964
873.948	22044
874.077	22078
874.206	22063
874.335	22013
874.464	22139
874.593	22135
874.722	22295
874.851	22238
874.979	22188
875.108	22223
875.237	22109
875.365	22169
875.494	22257
875.623	22306
875.751	22219
875.88	22295
876.008	22379
876.136	22466
876.265	22660
876.393	22710
876.521	22637
876.65	22812
876.778	22653
876.906	22656
877.034	22588
877.162	22656
877.29	22599
877.418	22599
877.546	22538
877.674	22641
877.802	22554
877.93	22512
878.058	22512
878.185	22447
878.313	22478
878.441	22527
878.568	22470
878.696	22485
878.824	22592
878.951	22679
879.079	22767
879.206	22972
879.333	22771
879.461	22645
879.588	22649
879.715	22812
879.842	22869
879.97	22698
880.097	22512
880.224	22352
880.351	22523
880.478	22462
880.605	22443
880.732	22348
880.859	22599
880.986	22382
881.112	22363
881.239	22265
881.366	22192
881.493	22097
881.619	22006
881.746	22067
881.872	22131
881.999	21960
882.125	22010
882.252	21953
882.378	21937
882.505	22086
882.631	21831
882.757	21682
882.883	21812
883.01	21667
883.136	21682
883.262	21599
883.388	21466
883.514	21679
883.64	21625
883.766	21682
883.892	21428
884.018	21500
884.143	21667
884.269	21724
884.395	21477
884.52	21340
884.646	21374
884.772	21275
884.897	21294
885.023	21386
885.148	21363
885.274	21435
885.399	21507
885.524	21393
885.65	21302
885.775	21237
885.9	21275
886.025	21412
886.15	21519
886.275	21256
886.4	21325
886.525	21302
886.65	21241
886.775	21245
886.9	21408
887.025	21595
887.149	21298
887.274	21089
887.399	21020
887.523	20982
887.648	21001
887.773	20937
887.897	21127
888.021	21192
888.146	21032
888.27	21135
888.395	21222
888.519	20971
888.643	21222
888.767	21169
888.891	21058
889.015	20906
889.139	21039
889.263	20937
889.387	20998
889.511	21218
889.635	20994
889.759	20823
889.883	20895
890.006	20899
890.13	20952
890.254	20864
890.377	20842
890.501	20735
890.624	20571
890.748	20659
890.871	20522
890.995	20484
891.118	20339
891.241	20442
891.364	20461
891.488	20545
891.611	20533
891.734	20545
891.857	20503
891.98	20427
892.103	20552
892.226	20438
892.349	20469
892.471	20267
892.594	20343
892.717	20450
892.839	20355
892.962	20347
893.085	20370
893.207	20343
893.33	20263
893.452	20145
893.575	20313
893.697	20301
893.819	20431
893.941	20621
894.064	20442
894.186	20370
894.308	20278
894.43	20355
894.552	20484
894.674	20408
894.796	20298
894.918	20309
895.04	20419
895.161	20442
895.283	20427
895.405	20355
895.526	20332
895.648	20336
895.769	20419
895.891	20408
896.012	20362
896.134	20431
896.255	20438
896.376	20377
896.498	20324
896.619	20320
896.74	20431
896.861	20408
896.982	20697
897.103	20826
897.224	20674
897.345	20640
897.466	20473
897.587	20678
897.708	20708
897.828	20556
897.949	20408
898.07	20461
898.19	20438
898.311	20640
898.431	20431
898.552	20541
898.672	20583
898.792	20617
898.913	20621
899.033	20358
899.153	20366
899.273	20157
899.393	20336
899.513	20339
899.633	20248
899.753	20476
899.873	20225
899.993	20229
900.113	20191
900.232	20313
900.352	20324
900.472	20195
900.591	20039
900.711	20088
900.83	20092
900.95	20069
901.069	20187
901.189	19963
901.308	19746
901.427	19689
901.546	19681
901.665	19670
901.784	19582
901.904	19575
902.023	19453
902.141	19308
902.26	19198
902.379	19343
902.498	19244
902.617	19133
902.735	19171
902.854	19179
902.973	18977
903.091	18875
903.21	18844
903.328	18825
903.446	18711
903.565	18608
903.683	18703
903.801	18601
903.919	18654
904.038	18601
904.156	18471
904.274	18441
904.392	18376
904.51	18292
904.627	18380
904.745	18490
904.863	18456
904.981	18209
905.098	18015
905.216	17984
905.334	18117
905.451	18068
905.569	18060
905.686	18045
905.803	17988
905.921	17920
906.038	17916
906.155	17935
906.272	17672
906.389	17745
906.506	17630
906.623	17714
906.74	17630
906.857	17474
906.974	17573
907.091	17657
907.208	17714
907.324	17547
907.441	17570
907.557	17311
907.674	17212
907.79	17360
907.907	17322
908.023	17326
908.139	17379
908.256	17277
908.372	17250
908.488	17147
908.604	17098
908.72	17018
908.836	17041
908.952	17064
909.068	17022
909.184	17140
909.3	17079
909.415	16987
909.531	17003
909.647	16809
909.762	16767
909.878	16755
909.993	16694
910.108	16660
910.224	16691
910.339	16725
910.454	16694
910.57	16478
910.685	16478
910.8	16759
910.915	16702
911.03	16451
911.145	16371
911.259	16409
911.374	16272
911.489	16223
911.604	16173
911.718	16135
911.833	16185
911.947	15903
912.062	15827
912.176	15968
912.291	16105
912.405	16013
912.519	16162
912.633	16246
912.748	16109
912.862	15987
912.976	15975
913.09	15816
913.204	15991
913.318	15861
913.431	15968
913.545	16006
913.659	15937
913.772	15808
913.886	15713
914	15656
914.113	15774
914.226	15831
914.34	15789
914.453	15625
914.566	15804
914.68	15549
914.793	15488
914.906	15454
915.019	15268
915.132	15283
915.245	15230
915.358	15431
915.47	15310
915.583	15283
915.696	15279
915.809	15439
915.921	15393
916.034	15176
916.146	15226
916.259	15165
916.371	15317
916.483	15260
916.595	15116
916.708	15043
916.82	15074
916.932	15043
917.044	15005
917.156	15074
917.268	14925
917.38	14998
917.491	14914
917.603	14899
917.715	14956
917.826	15051
917.938	14887
918.049	14762
918.161	14792
918.272	14925
918.384	15017
918.495	14796
918.606	14739
918.717	14659
918.828	14701
918.939	14621
919.05	14667
919.161	14716
919.272	14465
919.383	14476
919.494	14674
919.604	14864
919.715	14663
919.826	14590
919.936	14689
920.047	14716
920.157	14678
920.267	14842
920.378	14632
920.488	14613
920.598	14762
920.708	14941
920.818	14792
920.928	14804
921.038	14861
921.148	14857
921.258	14571
921.368	14514
921.477	14374
921.587	14271
921.697	14240
921.806	14377
921.916	14275
922.025	14039
922.134	14008
922.244	13986
922.353	14016
922.462	13940
922.571	13852
922.68	13571
922.789	13628
922.898	13636
923.007	13643
923.116	13674
923.224	13552
923.333	13571
923.442	13514
923.55	13506
923.659	13590
923.767	13582
923.876	13502
923.984	13586
924.092	13400
924.201	13388
924.309	13422
924.417	13384
924.525	13373
924.633	13403
924.741	14225
924.849	13129
924.956	13362
925.064	13050
925.172	13057
925.279	13023
925.387	13149
925.494	13057
925.602	13164
925.709	13076
925.816	12954
925.924	12954
926.031	13122
926.138	12996
926.245	13095
926.352	12875
926.459	13069
926.566	13065
926.673	12897
926.779	12863
926.886	12833
926.993	12726
927.099	12582
927.206	12585
927.312	12544
927.419	12639
927.525	12681
927.631	12627
927.737	12532
927.843	12475
927.95	12357
928.056	12372
928.162	12437
928.267	12506
928.373	13027
928.479	12574
928.585	12251
928.69	12391
928.796	12448
928.901	12270
929.007	12114
929.112	12311
929.218	12330
929.323	12098
929.428	12125
929.533	12296
929.638	12144
929.743	12136
929.848	12175
929.953	12110
930.058	11988
930.163	11821
930.267	11859
930.372	12064
930.477	11863
930.581	12045
930.685	11866
930.79	11760
930.894	11855
930.998	11718
931.103	11817
931.207	11516
931.311	11398
931.415	11372
931.519	11132
931.623	11132
