Data from test_V78500241_3315.txt Node
Date: Fri Mar 25 15:32:56 CST 2022
User: usil
Spectrometer: V785-0024
Trigger mode: 0
Integration Time (sec): 4.000000E-1
Scans to average: 1
Nonlinearity correction enabled: false
Boxcar width: 0
Storing dark spectrum: false
XAxis mode: Wavelengths
Number of Pixels in Spectrum: 1024
>>>>>Begin Spectral Data<<<<<
801.071	27222
801.214	27252
801.356	27085
801.499	26982
801.641	26910
801.783	26880
801.926	26864
802.068	26800
802.211	26838
802.353	26667
802.496	26655
802.638	26499
802.78	26385
802.923	26552
803.065	26374
803.208	26336
803.35	26537
803.492	26678
803.635	26769
803.777	26518
803.919	26503
804.061	26952
804.204	26781
804.346	26594
804.488	26636
804.63	26473
804.773	26442
804.915	26606
805.057	26727
805.199	26568
805.341	26727
805.483	26807
805.626	26746
805.768	26811
805.91	26826
806.052	26845
806.194	26708
806.336	26864
806.478	26655
806.62	26777
806.762	26891
806.904	26876
807.046	27154
807.188	27176
807.33	27233
807.472	27180
807.614	27066
807.756	27104
807.898	26952
808.04	26998
808.182	27074
808.324	26899
808.465	27100
808.607	27161
808.749	27336
808.891	27572
809.033	27492
809.174	27553
809.316	27272
809.458	27348
809.6	27325
809.741	27332
809.883	27450
810.025	27526
810.166	27660
810.308	27618
810.45	27614
810.591	27568
810.733	27370
810.875	27272
811.016	27169
811.158	27344
811.299	27420
811.441	27530
811.582	27534
811.724	27557
811.865	27363
812.007	27241
812.148	27321
812.29	27367
812.431	27492
812.573	27618
812.714	27679
812.855	27876
812.997	27968
813.138	28021
813.279	27918
813.421	27880
813.562	27838
813.703	27614
813.845	27568
813.986	27302
814.127	27066
814.268	26967
814.41	26990
814.551	27020
814.692	27104
814.833	26834
814.974	26982
815.115	26960
815.256	26880
815.397	26781
815.539	26834
815.68	26769
815.821	26727
815.962	26792
816.103	26796
816.244	26686
816.385	26568
816.526	26526
816.666	26431
816.807	26168
816.948	26309
817.089	26366
817.23	26256
817.371	26313
817.512	26301
817.653	26248
817.793	26275
817.934	26320
818.075	26320
818.216	26339
818.356	26233
818.497	26077
818.638	26031
818.778	25963
818.919	26046
819.06	25913
819.2	26043
819.341	26157
819.481	26172
819.622	26488
819.762	26663
819.903	26480
820.043	26366
820.184	26332
820.324	26385
820.465	26385
820.605	26374
820.746	26320
820.886	26282
821.026	26332
821.167	26248
821.307	26446
821.447	26244
821.588	26183
821.728	25982
821.868	25826
822.008	25696
822.149	25841
822.289	25651
822.429	25487
822.569	25407
822.709	25445
822.849	25388
822.99	25255
823.13	25289
823.27	25217
823.41	25057
823.55	25038
823.69	25179
823.83	24996
823.97	24951
824.11	24901
824.25	24757
824.389	24745
824.529	24939
824.669	24981
824.809	24970
824.949	24932
825.089	25008
825.228	24844
825.368	24749
825.508	24700
825.648	24825
825.787	24844
825.927	24833
826.067	24772
826.206	24726
826.346	24700
826.485	24958
826.625	24745
826.765	24806
826.904	24806
827.044	24738
827.183	24555
827.323	24376
827.462	24429
827.601	24399
827.741	24426
827.88	24452
828.02	24247
828.159	24437
828.298	24426
828.437	24479
828.577	24490
828.716	24502
828.855	24327
828.994	24224
829.134	24167
829.273	24232
829.412	24079
829.551	24022
829.69	24155
829.829	24095
829.968	24201
830.107	24148
830.246	24159
830.385	24235
830.524	24038
830.663	23920
830.802	23863
830.941	23585
831.08	23745
831.219	23885
831.357	23904
831.496	24098
831.635	23756
831.774	23680
831.913	23699
832.051	23543
832.19	23630
832.329	23505
832.467	23577
832.606	23326
832.744	23395
832.883	23341
833.022	23376
833.16	23379
833.299	23657
833.437	23589
833.576	23455
833.714	23585
833.852	23581
833.991	23509
834.129	23501
834.267	23592
834.406	23615
834.544	23619
834.682	23627
834.821	23516
834.959	23802
835.097	23551
835.235	23642
835.373	23505
835.511	23562
835.65	23383
835.788	23433
835.926	23143
836.064	23132
836.202	23162
836.34	23395
836.478	23512
836.615	23410
836.753	23318
836.891	23398
837.029	23360
837.167	23395
837.305	23292
837.443	23425
837.58	23273
837.718	23360
837.856	23250
837.993	23105
838.131	23326
838.269	23056
838.406	23147
838.544	23239
838.681	22835
838.819	22889
838.956	22744
839.094	22774
839.231	22850
839.369	22896
839.506	23041
839.643	22900
839.781	22801
839.918	22611
840.055	22637
840.193	22634
840.33	22645
840.467	22592
840.604	22683
840.742	22889
840.879	22557
841.016	22641
841.153	22573
841.29	22881
841.427	22596
841.564	22630
841.701	22702
841.838	22546
841.975	22580
842.112	22573
842.249	22417
842.385	22455
842.522	22698
842.659	22596
842.796	22577
842.933	22470
843.069	22329
843.206	22360
843.343	22459
843.479	22226
843.616	22371
843.752	22234
843.889	22124
844.025	22226
844.162	22238
844.298	22246
844.435	22177
844.571	22044
844.708	22230
844.844	22303
844.98	22379
845.117	22363
845.253	22166
845.389	21991
845.525	22036
845.661	22097
845.798	21968
845.934	21987
846.07	21949
846.206	21873
846.342	22006
846.478	21926
846.614	21701
846.75	21671
846.886	21743
847.022	21698
847.158	21713
847.294	21755
847.429	21701
847.565	21648
847.701	21876
847.837	21416
847.972	21428
848.108	21561
848.244	21439
848.379	21313
848.515	21230
848.65	21207
848.786	21336
848.921	21351
849.057	21443
849.192	21397
849.328	21302
849.463	21249
849.598	21287
849.734	21184
849.869	21001
850.004	20948
850.14	21161
850.275	21085
850.41	21013
850.545	21009
850.68	21032
850.815	20998
850.95	20899
851.085	21298
851.22	21074
851.355	21066
851.49	20990
851.625	20914
851.76	21009
851.895	20975
852.03	20887
852.165	21009
852.299	21112
852.434	21096
852.569	21039
852.703	21032
852.838	21100
852.973	21203
853.107	21039
853.242	20887
853.376	20914
853.511	20731
853.645	20804
853.78	21085
853.914	20807
854.048	20712
854.183	20872
854.317	20720
854.451	20998
854.585	20899
854.72	20857
854.854	21036
854.988	20693
855.122	20811
855.256	20796
855.39	20762
855.524	20960
855.658	20948
855.792	20864
855.926	20838
856.06	20960
856.194	20925
856.327	20811
856.461	20845
856.595	20762
856.729	20857
856.862	20796
856.996	20921
857.13	20990
857.263	20975
857.397	20883
857.53	20689
857.664	20933
857.797	20876
857.931	20994
858.064	20925
858.197	20899
858.331	20868
858.464	20712
858.597	20754
858.731	20842
858.864	20777
858.997	20868
859.13	20849
859.263	20845
859.396	20887
859.529	20800
859.662	20720
859.795	20746
859.928	20906
860.061	20975
860.194	20952
860.327	20887
860.46	20834
860.592	20982
860.725	20956
860.858	20906
860.99	20838
861.123	20708
861.256	20758
861.388	20845
861.521	21428
861.653	20682
861.786	20514
861.918	20720
862.05	20632
862.183	20815
862.315	20777
862.447	20994
862.58	20686
862.712	20568
862.844	20518
862.976	20625
863.108	20663
863.24	20967
863.372	20568
863.504	20617
863.636	20568
863.768	20720
863.9	20533
864.032	20461
864.164	20499
864.296	20716
864.428	20655
864.559	20655
864.691	20682
864.823	20583
864.954	20552
865.086	20514
865.217	20507
865.349	20355
865.48	20514
865.612	20400
865.743	20549
865.875	20503
866.006	20526
866.137	20488
866.269	20473
866.4	20469
866.531	20400
866.662	20347
866.793	20431
866.924	20381
867.055	20492
867.186	20370
867.317	20442
867.448	20355
867.579	20419
867.71	20370
867.841	20495
867.972	20332
868.103	20423
868.233	20446
868.364	20339
868.495	20564
868.625	20590
868.756	20853
868.886	20480
869.017	20590
869.147	20754
869.278	20743
869.408	20693
869.539	20651
869.669	20686
869.799	20678
869.929	20758
870.06	20632
870.19	20887
870.32	20979
870.45	21047
870.58	20979
870.71	21020
870.84	21203
870.97	20982
871.1	20990
871.23	21283
871.36	21237
871.489	21104
871.619	21214
871.749	21294
871.879	21325
872.008	21340
872.138	21211
872.267	21302
872.397	21192
872.526	20925
872.656	21058
872.785	21047
872.915	21283
873.044	21393
873.173	21298
873.303	21386
873.432	21447
873.561	21367
873.69	21344
873.819	21252
873.948	21351
874.077	21249
874.206	21348
874.335	21260
874.464	21359
874.593	21504
874.722	21542
874.851	21599
874.979	21595
875.108	21572
875.237	21466
875.365	21405
875.494	21439
875.623	21606
875.751	21412
875.88	21587
876.008	21717
876.136	21717
876.265	21991
876.393	22029
876.521	21899
876.65	21979
876.778	21934
876.906	21831
877.034	21804
877.162	21945
877.29	21808
877.418	21926
877.546	21823
877.674	21937
877.802	21876
877.93	21884
878.058	21808
878.185	21774
878.313	21812
878.441	21869
878.568	21694
878.696	21808
878.824	21922
878.951	21960
879.079	22055
879.206	22242
879.333	22036
879.461	21819
879.588	22029
879.715	22090
879.842	22055
879.97	21934
880.097	21686
880.224	21755
880.351	21797
880.478	21732
880.605	21671
880.732	21736
880.859	21876
880.986	21652
881.112	21808
881.239	21679
881.366	21348
881.493	21252
881.619	21192
881.746	21233
881.872	21275
881.999	21184
882.125	21135
882.252	21207
882.378	21180
882.505	21412
882.631	21142
882.757	21028
882.883	21017
883.01	20994
883.136	20849
883.262	20834
883.388	20918
883.514	21017
883.64	20975
883.766	20872
883.892	20689
884.018	20765
884.143	20925
884.269	20956
884.395	20579
884.52	20594
884.646	20663
884.772	20507
884.897	20507
885.023	20655
885.148	20804
885.274	20765
885.399	20621
885.524	20640
885.65	20651
885.775	20648
885.9	20765
886.025	20785
886.15	20796
886.275	20454
886.4	20625
886.525	20575
886.65	20575
886.775	20457
886.9	20712
887.025	20731
887.149	20587
887.274	20454
887.399	20294
887.523	20465
887.648	20313
887.773	20339
887.897	20480
888.021	20263
888.146	20358
888.27	20385
888.395	20385
888.519	20412
888.643	20469
888.767	20404
888.891	20347
889.015	20206
889.139	20290
889.263	20122
889.387	20267
889.511	20450
889.635	20434
889.759	20218
889.883	20176
890.006	20084
890.13	20275
890.254	20111
890.377	20100
890.501	19944
890.624	19944
890.748	19974
890.871	19906
890.995	19753
891.118	19693
891.241	19845
891.364	19791
891.488	19894
891.611	19765
891.734	19776
891.857	19765
891.98	19772
892.103	19814
892.226	19681
892.349	19738
892.471	19559
892.594	19837
892.717	19700
892.839	19578
892.962	19746
893.085	19757
893.207	19811
893.33	19559
893.452	19616
893.575	19723
893.697	19685
893.819	19776
893.941	19917
894.064	19811
894.186	19586
894.308	19582
894.43	19784
894.552	19871
894.674	19833
894.796	19700
894.918	19685
895.04	19586
895.161	19772
895.283	19658
895.405	19647
895.526	19769
895.648	19655
895.769	19651
895.891	19715
896.012	19757
896.134	19856
896.255	19647
896.376	19613
896.498	19731
896.619	19719
896.74	19685
896.861	19780
896.982	20016
897.103	20065
897.224	19978
897.345	19906
897.466	19845
897.587	19925
897.708	20100
897.828	19963
897.949	19791
898.07	19727
898.19	19871
898.311	20062
898.431	19776
898.552	19818
898.672	19951
898.792	20031
898.913	19852
899.033	19902
899.153	19776
899.273	19597
899.393	19742
899.513	19795
899.633	19693
899.753	19734
899.873	19620
899.993	19651
900.113	19525
900.232	19556
900.352	19639
900.472	19518
900.591	19441
900.711	19434
900.83	19369
900.95	19434
901.069	19651
901.189	19388
901.308	19164
901.427	18985
901.546	19046
901.665	18962
901.784	19038
901.904	18920
902.023	18882
902.141	18555
902.26	18532
902.379	18547
902.498	18547
902.617	18445
902.735	18521
902.854	18593
902.973	18498
903.091	18247
903.21	18182
903.328	18243
903.446	18049
903.565	18064
903.683	18057
903.801	17935
903.919	17980
904.038	17942
904.156	17805
904.274	17946
904.392	17897
904.51	17802
904.627	17786
904.745	17836
904.863	17840
904.981	17630
905.098	17421
905.216	17474
905.334	17486
905.451	17448
905.569	17376
905.686	17596
905.803	17532
905.921	17322
906.038	17337
906.155	17353
906.272	17124
906.389	17147
906.506	16911
906.623	17006
906.74	17094
906.857	16927
906.974	16915
907.091	17083
907.208	17094
907.324	16984
907.441	16900
907.557	16862
907.674	16885
907.79	16675
907.907	16729
908.023	16748
908.139	16679
908.256	16710
908.372	16653
908.488	16721
908.604	16573
908.72	16474
908.836	16516
908.952	16455
909.068	16462
909.184	16504
909.3	16436
909.415	16573
909.531	16424
909.647	16287
909.762	16230
909.878	16124
909.993	16124
910.108	16154
910.224	16166
910.339	16063
910.454	15998
910.57	15998
910.685	15850
910.8	16173
910.915	16090
911.03	15953
911.145	15819
911.259	15778
911.374	15694
911.489	15701
911.604	15644
911.718	15549
911.833	15485
911.947	15428
912.062	15412
912.176	15561
912.291	15534
912.405	15625
912.519	15667
912.633	15770
912.748	15511
912.862	15488
912.976	15389
913.09	15275
913.204	15412
913.318	15317
913.431	15367
913.545	15473
913.659	15336
913.772	15279
913.886	15192
914	15131
914.113	15237
914.226	15256
914.34	15199
914.453	15062
914.566	15108
914.68	15104
914.793	15119
914.906	14849
915.019	14705
915.132	14777
915.245	14785
915.358	14811
915.47	14739
915.583	14872
915.696	14861
915.809	14929
915.921	14864
916.034	14724
916.146	14632
916.259	14667
916.371	14769
916.483	14655
916.595	14644
916.708	14556
916.82	14545
916.932	14571
917.044	14590
917.156	14526
917.268	14454
917.38	14473
917.491	14499
917.603	14533
917.715	14526
917.826	14594
917.938	14404
918.049	14305
918.161	14492
918.272	14492
918.384	14518
918.495	14377
918.606	14298
918.717	14130
918.828	14183
918.939	14370
919.05	14157
919.161	14195
919.272	14134
919.383	14126
919.494	14244
919.604	14480
919.715	14126
919.826	14065
919.936	14111
920.047	14225
920.157	14187
920.267	14412
920.378	14218
920.488	14126
920.598	14286
920.708	14537
920.818	14301
920.928	14256
921.038	14526
921.148	14370
921.258	14142
921.368	14058
921.477	13936
921.587	13959
921.697	13803
921.806	13928
921.916	13791
922.025	13548
922.134	13518
922.244	13472
922.353	13499
922.462	13411
922.571	13392
922.68	13232
922.789	13129
922.898	13274
923.007	13137
923.116	13270
923.224	13263
923.333	13274
923.442	13088
923.55	13000
923.659	12943
923.767	13122
923.876	13053
923.984	13088
924.092	12970
924.201	13107
924.309	12928
924.417	12878
924.525	12894
924.633	12947
924.741	13788
924.849	12677
924.956	12749
925.064	12684
925.172	12540
925.279	12646
925.387	12776
925.494	12673
925.602	12840
925.709	12711
925.816	12536
925.924	12620
926.031	12692
926.138	12662
926.245	12677
926.352	12452
926.459	12665
926.566	12639
926.673	12540
926.779	12418
926.886	12388
926.993	12247
927.099	12281
927.206	12106
927.312	12159
927.419	12323
927.525	12205
927.631	12266
927.737	12079
927.843	12079
927.95	11977
928.056	12117
928.162	12098
928.267	12076
928.373	12589
928.479	12102
928.585	11821
928.69	11996
928.796	12019
928.901	11958
929.007	11775
929.112	11897
929.218	11859
929.323	11870
929.428	11745
929.533	11950
929.638	11722
929.743	11783
929.848	11824
929.953	11726
930.058	11688
930.163	11547
930.267	11478
930.372	11642
930.477	11360
930.581	11649
930.685	11573
930.79	11356
930.894	11353
930.998	11379
931.103	11474
931.207	11121
931.311	11098
931.415	11003
931.519	10778
931.623	10767
