Data from test_V78500241_2939.txt Node
Date: Fri Mar 25 15:30:19 CST 2022
User: usil
Spectrometer: V785-0024
Trigger mode: 0
Integration Time (sec): 4.000000E-1
Scans to average: 1
Nonlinearity correction enabled: false
Boxcar width: 0
Storing dark spectrum: false
XAxis mode: Wavelengths
Number of Pixels in Spectrum: 1024
>>>>>Begin Spectral Data<<<<<
801.071	27138
801.214	27249
801.356	26883
801.499	26868
801.641	26872
801.783	26826
801.926	26921
802.068	26830
802.211	26819
802.353	26617
802.496	26575
802.638	26617
802.78	26488
802.923	26461
803.065	26278
803.208	26404
803.35	26434
803.492	26552
803.635	26781
803.777	26507
803.919	26568
804.061	26971
804.204	26632
804.346	26564
804.488	26511
804.63	26583
804.773	26453
804.915	26579
805.057	26819
805.199	26514
805.341	26758
805.483	26705
805.626	26617
805.768	26632
805.91	26804
806.052	26712
806.194	26659
806.336	26796
806.478	26765
806.62	26731
806.762	26811
806.904	27058
807.046	27218
807.188	27104
807.33	27203
807.472	27127
807.614	26921
807.756	27066
807.898	26994
808.04	26929
808.182	26861
808.324	27009
808.465	27028
808.607	27268
808.749	27386
808.891	27420
809.033	27488
809.174	27450
809.316	27283
809.458	27283
809.6	27401
809.741	27576
809.883	27469
810.025	27698
810.166	27701
810.308	27572
810.45	27614
810.591	27469
810.733	27321
810.875	27462
811.016	27176
811.158	27443
811.299	27424
811.441	27622
811.582	27447
811.724	27302
811.865	27275
812.007	27302
812.148	27359
812.29	27515
812.431	27450
812.573	27511
812.714	27603
812.855	27679
812.997	27701
813.138	28013
813.279	27876
813.421	27854
813.562	27789
813.703	27599
813.845	27542
813.986	27211
814.127	27066
814.268	26940
814.41	27081
814.551	26967
814.692	27066
814.833	26956
814.974	27047
815.115	26902
815.256	26819
815.397	26861
815.539	26819
815.68	26640
815.821	26750
815.962	26754
816.103	26788
816.244	26609
816.385	26381
816.526	26492
816.666	26294
816.807	26259
816.948	26377
817.089	26298
817.23	26294
817.371	26252
817.512	26195
817.653	26237
817.793	26305
817.934	26309
818.075	26210
818.216	26278
818.356	26187
818.497	25982
818.638	25959
818.778	25974
818.919	25913
819.06	26031
819.2	26290
819.341	26168
819.481	26244
819.622	26571
819.762	26579
819.903	26393
820.043	26480
820.184	26351
820.324	26305
820.465	26351
820.605	26324
820.746	26278
820.886	26153
821.026	26218
821.167	26278
821.307	26351
821.447	26142
821.588	26115
821.728	25982
821.868	25791
822.008	25734
822.149	25605
822.289	25533
822.429	25377
822.569	25308
822.709	25297
822.849	25289
822.99	25209
823.13	25206
823.27	25171
823.41	25118
823.55	24954
823.69	24863
823.83	25012
823.97	24825
824.11	24916
824.25	24757
824.389	24787
824.529	24928
824.669	24973
824.809	24992
824.949	24817
825.089	24909
825.228	24795
825.368	24654
825.508	24684
825.648	24650
825.787	24791
825.927	24764
826.067	24719
826.206	24745
826.346	24776
826.485	24620
826.625	24730
826.765	24772
826.904	24749
827.044	24528
827.183	24582
827.323	24410
827.462	24494
827.601	24391
827.741	24334
827.88	24471
828.02	24285
828.159	24372
828.298	24407
828.437	24369
828.577	24330
828.716	24456
828.855	24323
828.994	24159
829.134	24148
829.273	24087
829.412	24079
829.551	24022
829.69	24041
829.829	24106
829.968	24194
830.107	24091
830.246	24015
830.385	24018
830.524	24015
830.663	23946
830.802	23733
830.941	23779
831.08	23638
831.219	23805
831.357	23718
831.496	23946
831.635	23638
831.774	23600
831.913	23531
832.051	23455
832.19	23364
832.329	23482
832.467	23452
832.606	23383
832.744	23330
832.883	23436
833.022	23349
833.16	23364
833.299	23261
833.437	23197
833.576	23490
833.714	23467
833.852	23303
833.991	23478
834.129	23547
834.267	23490
834.406	23467
834.544	23406
834.682	23554
834.821	23307
834.959	23566
835.097	23288
835.235	23562
835.373	23364
835.511	23429
835.65	23284
835.788	23273
835.926	23231
836.064	23048
836.202	23193
836.34	23185
836.478	23299
836.615	23181
836.753	23227
836.891	23223
837.029	23178
837.167	23140
837.305	23132
837.443	23193
837.58	23162
837.718	23174
837.856	23117
837.993	23022
838.131	23056
838.269	22995
838.406	23113
838.544	22904
838.681	22752
838.819	22691
838.956	22626
839.094	22603
839.231	22592
839.369	22736
839.506	23067
839.643	22767
839.781	22500
839.918	22485
840.055	22561
840.193	22561
840.33	22531
840.467	22538
840.604	22618
840.742	22778
840.879	22462
841.016	22466
841.153	22546
841.29	22527
841.427	22447
841.564	22584
841.701	22459
841.838	22360
841.975	22382
842.112	22443
842.249	22432
842.385	22344
842.522	22592
842.659	22322
842.796	22162
842.933	22215
843.069	22116
843.206	22097
843.343	22337
843.479	22223
843.616	22337
843.752	22048
843.889	21972
844.025	22105
844.162	22036
844.298	22116
844.435	22002
844.571	21945
844.708	22017
844.844	22204
844.98	22082
845.117	22109
845.253	21922
845.389	21941
845.525	21930
845.661	21778
845.798	21793
845.934	21903
846.07	21755
846.206	21945
846.342	22036
846.478	21785
846.614	21549
846.75	21477
846.886	21389
847.022	21557
847.158	21492
847.294	21511
847.429	21534
847.565	21515
847.701	21637
847.837	21306
847.972	21165
848.108	21367
848.244	21363
848.379	20982
848.515	21116
848.65	21032
848.786	21157
848.921	21036
849.057	21070
849.192	21131
849.328	21093
849.463	21100
849.598	20994
849.734	21036
849.869	20910
850.004	20918
850.14	20785
850.275	20918
850.41	20864
850.545	20887
850.68	20834
850.815	20785
850.95	20815
851.085	21085
851.22	20891
851.355	20823
851.49	20914
851.625	20838
851.76	20807
851.895	20750
852.03	20720
852.165	20891
852.299	20868
852.434	20807
852.569	20883
852.703	20773
852.838	20849
852.973	20872
853.107	20979
853.242	20765
853.376	20667
853.511	20533
853.645	20564
853.78	20773
853.914	20659
854.048	20670
854.183	20644
854.317	20598
854.451	20769
854.585	20613
854.72	20617
854.854	20845
854.988	20632
855.122	20697
855.256	20503
855.39	20644
855.524	20864
855.658	20746
855.792	20655
855.926	20651
856.06	20746
856.194	20720
856.327	20701
856.461	20549
856.595	20602
856.729	20606
856.862	20807
856.996	20602
857.13	20750
857.263	20788
857.397	20762
857.53	20674
857.664	20739
857.797	20880
857.931	20815
858.064	20697
858.197	20800
858.331	20727
858.464	20590
858.597	20507
858.731	20655
858.864	20598
858.997	20568
859.13	20625
859.263	20705
859.396	20667
859.529	20735
859.662	20590
859.795	20499
859.928	20545
860.061	20807
860.194	20769
860.327	20746
860.46	20712
860.592	20853
860.725	20849
860.858	20868
860.99	20629
861.123	20632
861.256	20564
861.388	20640
861.521	21283
861.653	20469
861.786	20320
861.918	20457
862.05	20556
862.183	20518
862.315	20575
862.447	20720
862.58	20689
862.712	20408
862.844	20374
862.976	20495
863.108	20552
863.24	20819
863.372	20294
863.504	20427
863.636	20476
863.768	20423
863.9	20400
864.032	20240
864.164	20313
864.296	20419
864.428	20522
864.559	20488
864.691	20355
864.823	20408
864.954	20396
865.086	20320
865.217	20294
865.349	20237
865.48	20278
865.612	20393
865.743	20442
865.875	20336
866.006	20191
866.137	20400
866.269	20202
866.4	20290
866.531	20240
866.662	20172
866.793	20180
866.924	20168
867.055	20271
867.186	20317
867.317	20256
867.448	20233
867.579	20035
867.71	20119
867.841	20126
867.972	20202
868.103	20244
868.233	20271
868.364	20214
868.495	20320
868.625	20412
868.756	20564
868.886	20324
869.017	20454
869.147	20583
869.278	20530
869.408	20488
869.539	20434
869.669	20598
869.799	20518
869.929	20609
870.06	20655
870.19	20804
870.32	20644
870.45	20804
870.58	20868
870.71	20998
870.84	21036
870.97	20800
871.1	20864
871.23	20941
871.36	21070
871.489	20910
871.619	21081
871.749	21100
871.879	21241
872.008	21176
872.138	21112
872.267	21005
872.397	21036
872.526	20868
872.656	20872
872.785	21005
872.915	21176
873.044	21161
873.173	21142
873.303	21176
873.432	21096
873.561	21165
873.69	21074
873.819	21036
873.948	21192
874.077	21070
874.206	21009
874.335	21104
874.464	21241
874.593	21405
874.722	21374
874.851	21310
874.979	21359
875.108	21389
875.237	21355
875.365	21279
875.494	21462
875.623	21416
875.751	21184
875.88	21340
876.008	21473
876.136	21622
876.265	21728
876.393	21869
876.521	21907
876.65	21759
876.778	21736
876.906	21705
877.034	21542
877.162	21739
877.29	21633
877.418	21675
877.546	21732
877.674	21717
877.802	21717
877.93	21679
878.058	21530
878.185	21568
878.313	21709
878.441	21690
878.568	21542
878.696	21530
878.824	21682
878.951	21732
879.079	21915
879.206	21915
879.333	21854
879.461	21625
879.588	21800
879.715	21823
879.842	21945
879.97	21652
880.097	21469
880.224	21458
880.351	21469
880.478	21504
880.605	21462
880.732	21485
880.859	21686
880.986	21614
881.112	21534
881.239	21420
881.366	21294
881.493	21074
881.619	21161
881.746	21028
881.872	21165
881.999	21017
882.125	21096
882.252	21077
882.378	21157
882.505	21313
882.631	20975
882.757	20944
882.883	20910
883.01	20762
883.136	20727
883.262	20701
883.388	20651
883.514	20788
883.64	20727
883.766	20659
883.892	20621
884.018	20617
884.143	20701
884.269	20788
884.395	20499
884.52	20396
884.646	20499
884.772	20396
884.897	20339
885.023	20469
885.148	20465
885.274	20644
885.399	20541
885.524	20404
885.65	20564
885.775	20355
885.9	20461
886.025	20522
886.15	20526
886.275	20434
886.4	20450
886.525	20377
886.65	20313
886.775	20393
886.9	20590
887.025	20667
887.149	20522
887.274	20339
887.399	20206
887.523	20180
887.648	20187
887.773	19993
887.897	20305
888.021	20355
888.146	20122
888.27	20278
888.395	20225
888.519	20259
888.643	20180
888.767	20176
888.891	20096
889.015	19993
889.139	20100
889.263	20046
889.387	20107
889.511	20294
889.635	20077
889.759	19940
889.883	19890
890.006	20050
890.13	20161
890.254	20035
890.377	19940
890.501	19750
890.624	19750
890.748	19818
890.871	19677
890.995	19772
891.118	19655
891.241	19655
891.364	19586
891.488	19696
891.611	19529
891.734	19616
891.857	19757
891.98	19651
892.103	19826
892.226	19712
892.349	19582
892.471	19377
892.594	19567
892.717	19552
892.839	19597
892.962	19597
893.085	19609
893.207	19430
893.33	19308
893.452	19472
893.575	19559
893.697	19476
893.819	19639
893.941	19731
894.064	19753
894.186	19518
894.308	19441
894.43	19655
894.552	19643
894.674	19655
894.796	19571
894.918	19518
895.04	19510
895.161	19639
895.283	19556
895.405	19422
895.526	19502
895.648	19567
895.769	19468
895.891	19430
896.012	19605
896.134	19529
896.255	19544
896.376	19419
896.498	19525
896.619	19575
896.74	19449
896.861	19578
896.982	19890
897.103	19982
897.224	19967
897.345	19704
897.466	19761
897.587	19753
897.708	19841
897.828	19909
897.949	19704
898.07	19544
898.19	19715
898.311	19883
898.431	19685
898.552	19677
898.672	19837
898.792	19856
898.913	19894
899.033	19605
899.153	19632
899.273	19441
899.393	19651
899.513	19594
899.633	19594
899.753	19700
899.873	19384
899.993	19662
900.113	19594
900.232	19502
900.352	19468
900.472	19285
900.591	19244
900.711	19282
900.83	19228
900.95	19308
901.069	19449
901.189	19206
901.308	19091
901.427	18886
901.546	18928
901.665	19031
901.784	18977
901.904	18768
902.023	18677
902.141	18494
902.26	18563
902.379	18650
902.498	18502
902.617	18506
902.735	18486
902.854	18426
902.973	18334
903.091	18133
903.21	18171
903.328	18171
903.446	18057
903.565	17843
903.683	17885
903.801	17710
903.919	17805
904.038	17855
904.156	17741
904.274	17653
904.392	17649
904.51	17760
904.627	17710
904.745	17646
904.863	17767
904.981	17608
905.098	17532
905.216	17459
905.334	17322
905.451	17387
905.569	17288
905.686	17455
905.803	17280
905.921	17261
906.038	17246
906.155	17193
906.272	17022
906.389	16949
906.506	16911
906.623	16839
906.74	16946
906.857	16763
906.974	16763
907.091	16847
907.208	16957
907.324	16965
907.441	16778
907.557	16611
907.674	16565
907.79	16664
907.907	16656
908.023	16672
908.139	16626
908.256	16527
908.372	16527
908.488	16512
908.604	16417
908.72	16177
908.836	16341
908.952	16360
909.068	16379
909.184	16371
909.3	16295
909.415	16253
909.531	16306
909.647	16109
909.762	16055
909.878	16154
909.993	16010
910.108	16010
910.224	16048
910.339	16044
910.454	15895
910.57	15876
910.685	15808
910.8	15979
910.915	16021
911.03	15816
911.145	15778
911.259	15720
911.374	15641
911.489	15606
911.604	15477
911.718	15408
911.833	15332
911.947	15332
912.062	15283
912.176	15370
912.291	15469
912.405	15382
912.519	15633
912.633	15564
912.748	15420
912.862	15389
912.976	15256
913.09	15119
913.204	15298
913.318	15241
913.431	15313
913.545	15241
913.659	15279
913.772	15146
913.886	15085
914	15081
914.113	15127
914.226	15123
914.34	15081
914.453	14967
914.566	15043
914.68	14944
914.793	14864
914.906	14640
915.019	14648
915.132	14606
915.245	14606
915.358	14636
915.47	14632
915.583	14644
915.696	14602
915.809	14758
915.921	14788
916.034	14602
916.146	14587
916.259	14560
916.371	14598
916.483	14571
916.595	14461
916.708	14492
916.82	14511
916.932	14469
917.044	14431
917.156	14434
917.268	14362
917.38	14298
917.491	14313
917.603	14339
917.715	14377
917.826	14446
917.938	14290
918.049	14214
918.161	14286
918.272	14366
918.384	14347
918.495	14183
918.606	14115
918.717	14069
918.828	14145
918.939	14145
919.05	14043
919.161	14077
919.272	13959
919.383	13970
919.494	14107
919.604	14210
919.715	14077
919.826	13940
919.936	14046
920.047	14062
920.157	14027
920.267	14336
920.378	14081
920.488	14062
920.598	14263
920.708	14347
920.818	14237
920.928	14244
921.038	14324
921.148	14320
921.258	14008
921.368	13951
921.477	13811
921.587	13849
921.697	13693
921.806	13811
921.916	13647
922.025	13559
922.134	13426
922.244	13441
922.353	13533
922.462	13400
922.571	13221
922.68	13183
922.789	13137
922.898	13065
923.007	13164
923.116	13194
923.224	13046
923.333	13076
923.442	12985
923.55	12916
923.659	12985
923.767	12943
923.876	12875
923.984	13012
924.092	12848
924.201	12848
924.309	12863
924.417	12856
924.525	12738
924.633	12882
924.741	13746
924.849	12551
924.956	12760
925.064	12536
925.172	12566
925.279	12509
925.387	12570
925.494	12547
925.602	12608
925.709	12551
925.816	12486
925.924	12464
926.031	12635
926.138	12486
926.245	12525
926.352	12483
926.459	12559
926.566	12528
926.673	12452
926.779	12357
926.886	12330
926.993	12087
927.099	12125
927.206	12117
927.312	11996
927.419	12171
927.525	12136
927.631	12133
927.737	12034
927.843	11927
927.95	11893
928.056	12019
928.162	12011
928.267	12053
928.373	12642
928.479	12011
928.585	11836
928.69	11954
928.796	11866
928.901	11840
929.007	11707
929.112	11832
929.218	11874
929.323	11726
929.428	11779
929.533	11866
929.638	11657
929.743	11672
929.848	11688
929.953	11630
930.058	11551
930.163	11330
930.267	11440
930.372	11463
930.477	11410
930.581	11585
930.685	11406
930.79	11246
930.894	11387
930.998	11265
931.103	11471
931.207	11071
931.311	10987
931.415	10858
931.519	10660
931.623	10710
