Data from test_V78500241_145.txt Node
Date: Fri Mar 25 15:10:52 CST 2022
User: usil
Spectrometer: V785-0024
Trigger mode: 0
Integration Time (sec): 4.000000E-1
Scans to average: 1
Nonlinearity correction enabled: false
Boxcar width: 0
Storing dark spectrum: false
XAxis mode: Wavelengths
Number of Pixels in Spectrum: 1024
>>>>>Begin Spectral Data<<<<<
801.071	27934
801.214	28097
801.356	27701
801.499	27660
801.641	27641
801.783	27530
801.926	27572
802.068	27637
802.211	27431
802.353	27481
802.496	27245
802.638	27287
802.78	27302
802.923	27146
803.065	27036
803.208	27062
803.35	27089
803.492	27302
803.635	27329
803.777	27142
803.919	27382
804.061	27671
804.204	27313
804.346	27173
804.488	27154
804.63	27199
804.773	27104
804.915	27207
805.057	27279
805.199	27184
805.341	27283
805.483	27344
805.626	27306
805.768	27310
805.91	27283
806.052	27393
806.194	27264
806.336	27351
806.478	27336
806.62	27344
806.762	27302
806.904	27576
807.046	27644
807.188	27629
807.33	27675
807.472	27827
807.614	27739
807.756	27603
807.898	27458
808.04	27454
808.182	27526
808.324	27473
808.465	27359
808.607	27671
808.749	27934
808.891	28013
809.033	27873
809.174	27945
809.316	27861
809.458	27854
809.6	27789
809.741	27964
809.883	27861
810.025	27994
810.166	28120
810.308	27991
810.45	27937
810.591	28029
810.733	27660
810.875	27884
811.016	27827
811.158	27622
811.299	27793
811.441	27850
811.582	27816
811.724	27743
811.865	27728
812.007	27804
812.148	27743
812.29	27861
812.431	27907
812.573	28135
812.714	28128
812.855	28322
812.997	28375
813.138	28497
813.279	28291
813.421	28287
813.562	28299
813.703	28097
813.845	27949
813.986	27641
814.127	27504
814.268	27405
814.41	27515
814.551	27370
814.692	27340
814.833	27378
814.974	27382
815.115	27367
815.256	27161
815.397	27321
815.539	27203
815.68	27192
815.821	27039
815.962	27089
816.103	27146
816.244	26948
816.385	26826
816.526	26834
816.666	26613
816.807	26689
816.948	26579
817.089	26579
817.23	26564
817.371	26594
817.512	26457
817.653	26438
817.793	26533
817.934	26571
818.075	26537
818.216	26480
818.356	26473
818.497	26404
818.638	26282
818.778	26221
818.919	26176
819.06	26374
819.2	26415
819.341	26305
819.481	26492
819.622	26541
819.762	26849
819.903	26686
820.043	26587
820.184	26476
820.324	26522
820.465	26629
820.605	26587
820.746	26583
820.886	26389
821.026	26453
821.167	26351
821.307	26522
821.447	26366
821.588	26301
821.728	26199
821.868	25947
822.008	25864
822.149	25970
822.289	25818
822.429	25742
822.569	25597
822.709	25693
822.849	25358
822.99	25308
823.13	25301
823.27	25350
823.41	25297
823.55	25038
823.69	25114
823.83	25244
823.97	25031
824.11	24954
824.25	25080
824.389	25027
824.529	25027
824.669	24932
824.809	25164
824.949	24996
825.089	24996
825.228	24859
825.368	24760
825.508	24726
825.648	24700
825.787	24772
825.927	24837
826.067	24749
826.206	24665
826.346	24840
826.485	24776
826.625	24814
826.765	24837
826.904	24833
827.044	24513
827.183	24612
827.323	24407
827.462	24391
827.601	24494
827.741	24437
827.88	24517
828.02	24376
828.159	24391
828.298	24513
828.437	24338
828.577	24399
828.716	24540
828.855	24292
828.994	24125
829.134	24167
829.273	24235
829.412	23912
829.551	24072
829.69	24034
829.829	24155
829.968	24194
830.107	24083
830.246	24057
830.385	24087
830.524	24038
830.663	23912
830.802	23760
830.941	23745
831.08	23649
831.219	23684
831.357	23863
831.496	23901
831.635	23745
831.774	23581
831.913	23524
832.051	23535
832.19	23448
832.329	23421
832.467	23334
832.606	23356
832.744	23376
832.883	23364
833.022	23231
833.16	23356
833.299	23379
833.437	23398
833.576	23356
833.714	23299
833.852	23448
833.991	23436
834.129	23391
834.267	23356
834.406	23444
834.544	23265
834.682	23414
834.821	23376
834.959	23395
835.097	23315
835.235	23307
835.373	23311
835.511	23258
835.65	23246
835.788	23174
835.926	23090
836.064	23109
836.202	23083
836.34	23200
836.478	23258
836.615	23208
836.753	23155
836.891	23242
837.029	23143
837.167	23166
837.305	23102
837.443	23098
837.58	22946
837.718	23075
837.856	22999
837.993	22942
838.131	23044
838.269	22839
838.406	22930
838.544	22885
838.681	22759
838.819	22516
838.956	22428
839.094	22405
839.231	22451
839.369	22523
839.506	22774
839.643	22603
839.781	22535
839.918	22504
840.055	22417
840.193	22329
840.33	22375
840.467	22417
840.604	22352
840.742	22634
840.879	22223
841.016	22314
841.153	22253
841.29	22459
841.427	22280
841.564	22382
841.701	22386
841.838	22192
841.975	22284
842.112	22246
842.249	22147
842.385	21945
842.522	22348
842.659	22105
842.796	22067
842.933	22109
843.069	22010
843.206	22036
843.343	21964
843.479	22063
843.616	22025
843.752	21770
843.889	21884
844.025	21865
844.162	21793
844.298	21770
844.435	21823
844.571	21823
844.708	21945
844.844	21911
844.98	21850
845.117	21846
845.253	21633
845.389	21739
845.525	21675
845.661	21614
845.798	21564
845.934	21625
846.07	21568
846.206	21553
846.342	21625
846.478	21485
846.614	21317
846.75	21252
846.886	21283
847.022	21336
847.158	21279
847.294	21313
847.429	21230
847.565	21260
847.701	21458
847.837	21062
847.972	20933
848.108	21047
848.244	21043
848.379	20952
848.515	20781
848.65	20804
848.786	20815
848.921	20823
849.057	20952
849.192	20910
849.328	21036
849.463	20880
849.598	20682
849.734	20804
849.869	20777
850.004	20537
850.14	20670
850.275	20670
850.41	20530
850.545	20640
850.68	20511
850.815	20450
850.95	20606
851.085	20724
851.22	20644
851.355	20495
851.49	20636
851.625	20514
851.76	20446
851.895	20556
852.03	20385
852.165	20545
852.299	20446
852.434	20663
852.569	20670
852.703	20549
852.838	20560
852.973	20667
853.107	20522
853.242	20518
853.376	20309
853.511	20298
853.645	20347
853.78	20450
853.914	20351
854.048	20362
854.183	20305
854.317	20305
854.451	20560
854.585	20400
854.72	20336
854.854	20336
854.988	20294
855.122	20309
855.256	20138
855.39	20332
855.524	20282
855.658	20385
855.792	20320
855.926	20370
856.06	20454
856.194	20457
856.327	20278
856.461	20248
856.595	20271
856.729	20347
856.862	20457
856.996	20415
857.13	20434
857.263	20434
857.397	20499
857.53	20381
857.664	20469
857.797	20370
857.931	20377
858.064	20286
858.197	20404
858.331	20324
858.464	20233
858.597	20298
858.731	20355
858.864	20271
858.997	20324
859.13	20290
859.263	20313
859.396	20339
859.529	20202
859.662	20313
859.795	20298
859.928	20218
860.061	20480
860.194	20495
860.327	20214
860.46	20263
860.592	20408
860.725	20396
860.858	20339
860.99	20332
861.123	20267
861.256	20309
861.388	20267
861.521	20933
861.653	20240
861.786	20183
861.918	20195
862.05	20298
862.183	20206
862.315	20419
862.447	20237
862.58	20294
862.712	20138
862.844	20020
862.976	20164
863.108	19982
863.24	20351
863.372	19890
863.504	20005
863.636	20001
863.768	20073
863.9	20024
864.032	19997
864.164	19982
864.296	19936
864.428	20062
864.559	20035
864.691	20092
864.823	20024
864.954	19967
865.086	19970
865.217	19928
865.349	19883
865.48	19932
865.612	19974
865.743	20039
865.875	19932
866.006	19837
866.137	19993
866.269	19936
866.4	19890
866.531	19791
866.662	19719
866.793	19822
866.924	19795
867.055	19795
867.186	19875
867.317	19738
867.448	19826
867.579	19883
867.71	19879
867.841	19635
867.972	19925
868.103	19928
868.233	19715
868.364	19845
868.495	19898
868.625	19940
868.756	20233
868.886	19993
869.017	20054
869.147	20157
869.278	20172
869.408	20069
869.539	20027
869.669	20084
869.799	20183
869.929	20240
870.06	20084
870.19	20366
870.32	20366
870.45	20317
870.58	20488
870.71	20670
870.84	20526
870.97	20526
871.1	20393
871.23	20575
871.36	20735
871.489	20594
871.619	20625
871.749	20697
871.879	20648
872.008	20800
872.138	20712
872.267	20674
872.397	20682
872.526	20594
872.656	20476
872.785	20518
872.915	20724
873.044	20773
873.173	20701
873.303	20785
873.432	20674
873.561	20731
873.69	20819
873.819	20655
873.948	20781
874.077	20697
874.206	20693
874.335	20629
874.464	20815
874.593	21039
874.722	20899
874.851	21062
874.979	21055
875.108	20986
875.237	20853
875.365	20857
875.494	20937
875.623	21036
875.751	20906
875.88	20975
876.008	20967
876.136	21127
876.265	21279
876.393	21477
876.521	21329
876.65	21439
876.778	21359
876.906	21313
877.034	21154
877.162	21325
877.29	21241
877.418	21310
877.546	21321
877.674	21329
877.802	21332
877.93	21245
878.058	21233
878.185	21157
878.313	21169
878.441	21249
878.568	21119
878.696	21252
878.824	21317
878.951	21458
879.079	21523
879.206	21519
879.333	21416
879.461	21310
879.588	21359
879.715	21568
879.842	21542
879.97	21332
880.097	20937
880.224	21100
880.351	21150
880.478	21009
880.605	21077
880.732	21070
880.859	21325
880.986	21123
881.112	20979
881.239	21108
881.366	20937
881.493	20788
881.619	20686
881.746	20853
881.872	20792
881.999	20769
882.125	20575
882.252	20746
882.378	20632
882.505	20724
882.631	20564
882.757	20537
882.883	20427
883.01	20431
883.136	20385
883.262	20275
883.388	20275
883.514	20499
883.64	20355
883.766	20355
883.892	20202
884.018	20313
884.143	20309
884.269	20518
884.395	20161
884.52	20043
884.646	20195
884.772	20107
884.897	19970
885.023	19989
885.148	20240
885.274	20313
885.399	20298
885.524	20168
885.65	20100
885.775	20107
885.9	20054
886.025	20168
886.15	20103
886.275	19997
886.4	19944
886.525	20027
886.65	20058
886.775	19932
886.9	20115
887.025	20294
887.149	20016
887.274	19890
887.399	19852
887.523	19753
887.648	19860
887.773	19738
887.897	19852
888.021	19868
888.146	19871
888.27	19944
888.395	19963
888.519	19772
888.643	19864
888.767	19875
888.891	19704
889.015	19655
889.139	19696
889.263	19632
889.387	19670
889.511	19890
889.635	19662
889.759	19677
889.883	19643
890.006	19632
890.13	19639
890.254	19575
890.377	19575
890.501	19441
890.624	19365
890.748	19468
890.871	19247
890.995	19152
891.118	19118
891.241	19278
891.364	19278
891.488	19335
891.611	19343
891.734	19240
891.857	19183
891.98	19225
892.103	19320
892.226	19225
892.349	19095
892.471	18973
892.594	19088
892.717	19198
892.839	19190
892.962	19232
893.085	19164
893.207	19213
893.33	19034
893.452	19046
893.575	19194
893.697	19122
893.819	19251
893.941	19384
894.064	19377
894.186	19168
894.308	19053
894.43	19187
894.552	19331
894.674	19251
894.796	19027
894.918	19251
895.04	19168
895.161	19206
895.283	19206
895.405	18996
895.526	19152
895.648	19137
895.769	19129
895.891	19251
896.012	19236
896.134	19251
896.255	19183
896.376	19175
896.498	19042
896.619	19206
896.74	19251
896.861	19240
896.982	19487
897.103	19681
897.224	19373
897.345	19480
897.466	19472
897.587	19384
897.708	19495
897.828	19449
897.949	19407
898.07	19183
898.19	19430
898.311	19506
898.431	19419
898.552	19400
898.672	19434
898.792	19502
898.913	19346
899.033	19293
899.153	19103
899.273	19050
899.393	19156
899.513	19221
899.633	19183
899.753	19114
899.873	19061
899.993	19061
900.113	19091
900.232	19110
900.352	19095
900.472	19034
900.591	18958
900.711	18996
900.83	18962
900.95	19103
901.069	19133
901.189	18924
901.308	18783
901.427	18513
901.546	18635
901.665	18631
901.784	18635
901.904	18513
902.023	18292
902.141	18178
902.26	18076
902.379	18136
902.498	18095
902.617	18064
902.735	18057
902.854	18034
902.973	17965
903.091	17813
903.21	17775
903.328	17752
903.446	17589
903.565	17501
903.683	17592
903.801	17471
903.919	17657
904.038	17577
904.156	17303
904.274	17383
904.392	17436
904.51	17292
904.627	17299
904.745	17292
904.863	17360
904.981	17132
905.098	17029
905.216	17052
905.334	17094
905.451	16968
905.569	16869
905.686	17071
905.803	16923
905.921	16755
906.038	16927
906.155	16896
906.272	16725
906.389	16729
906.506	16622
906.623	16588
906.74	16603
906.857	16474
906.974	16459
907.091	16516
907.208	16725
907.324	16569
907.441	16493
907.557	16382
907.674	16276
907.79	16204
907.907	16196
908.023	16226
908.139	16344
908.256	16188
908.372	16067
908.488	16067
908.604	15994
908.72	15953
908.836	16006
908.952	15911
909.068	15926
909.184	16074
909.3	15975
909.415	15934
909.531	15945
909.647	15656
909.762	15667
909.878	15580
909.993	15770
910.108	15644
910.224	15572
910.339	15606
910.454	15534
910.57	15428
910.685	15397
910.8	15736
910.915	15587
911.03	15545
911.145	15222
911.259	15180
911.374	15287
911.489	15245
911.604	15104
911.718	14963
911.833	14975
911.947	14948
912.062	14830
912.176	14891
912.291	14979
912.405	15066
912.519	15146
912.633	15097
912.748	15017
912.862	14921
912.976	14815
913.09	14693
913.204	14864
913.318	14811
913.431	14864
913.545	14876
913.659	14960
913.772	14796
913.886	14655
914	14613
914.113	14705
914.226	14777
914.34	14610
914.453	14526
914.566	14552
914.68	14507
914.793	14488
914.906	14427
915.019	14278
915.132	14176
915.245	14221
915.358	14206
915.47	14290
915.583	14366
915.696	14343
915.809	14488
915.921	14366
916.034	14187
916.146	14176
916.259	14214
916.371	14267
916.483	14176
916.595	14020
916.708	14100
916.82	14100
916.932	14115
917.044	14065
917.156	14027
917.268	13959
917.38	13959
917.491	13997
917.603	13921
917.715	14027
917.826	14016
917.938	13807
918.049	13814
918.161	13890
918.272	14069
918.384	13852
918.495	13940
918.606	13769
918.717	13647
918.828	13632
918.939	13769
919.05	13719
919.161	13826
919.272	13449
919.383	13430
919.494	13727
919.604	13913
919.715	13715
919.826	13636
919.936	13655
920.047	13731
920.157	13708
920.267	13883
920.378	13769
920.488	13666
920.598	13826
920.708	13974
920.818	13845
920.928	13807
921.038	13947
921.148	13913
921.258	13540
921.368	13460
921.477	13400
921.587	13396
921.697	13266
921.806	13438
921.916	13270
922.025	13080
922.134	13126
922.244	13053
922.353	13141
922.462	12943
922.571	12905
922.68	12745
922.789	12722
922.898	12673
923.007	12669
923.116	12650
923.224	12612
923.333	12711
923.442	12566
923.55	12494
923.659	12578
923.767	12627
923.876	12509
923.984	12593
924.092	12399
924.201	12566
924.309	12445
924.417	12422
924.525	12323
924.633	12384
924.741	13031
924.849	12243
924.956	12277
925.064	12247
925.172	12095
925.279	12167
925.387	12232
925.494	12251
925.602	12277
925.709	12262
925.816	12133
925.924	12098
926.031	12220
926.138	12079
926.245	12194
926.352	11999
926.459	12175
926.566	12247
926.673	12114
926.779	11916
926.886	11920
926.993	11889
927.099	11741
927.206	11710
927.312	11737
927.419	11722
927.525	11779
927.631	11760
927.737	11710
927.843	11691
927.95	11452
928.056	11661
928.162	11634
928.267	11646
928.373	12190
928.479	11688
928.585	11414
928.69	11516
928.796	11547
928.901	11558
929.007	11318
929.112	11467
929.218	11467
929.323	11326
929.428	11307
929.533	11539
929.638	11318
929.743	11265
929.848	11318
929.953	11311
930.058	11212
930.163	11045
930.267	11067
930.372	11102
930.477	10987
930.581	11280
930.685	11037
930.79	10934
930.894	10999
930.998	10923
931.103	10938
931.207	10618
931.311	10645
931.415	10485
931.519	10268
931.623	10306
