Data from test_V78500241_977.txt Node
Date: Fri Mar 25 15:16:39 CST 2022
User: usil
Spectrometer: V785-0024
Trigger mode: 0
Integration Time (sec): 4.000000E-1
Scans to average: 1
Nonlinearity correction enabled: false
Boxcar width: 0
Storing dark spectrum: false
XAxis mode: Wavelengths
Number of Pixels in Spectrum: 1024
>>>>>Begin Spectral Data<<<<<
801.071	28276
801.214	28090
801.356	27895
801.499	28013
801.641	27724
801.783	27774
801.926	27876
802.068	27850
802.211	27739
802.353	27663
802.496	27576
802.638	27492
802.78	27507
802.923	27443
803.065	27488
803.208	27332
803.35	27561
803.492	27523
803.635	27789
803.777	27625
803.919	27656
804.061	27991
804.204	27732
804.346	27629
804.488	27564
804.63	27781
804.773	27580
804.915	27819
805.057	27804
805.199	27553
805.341	27698
805.483	27861
805.626	27671
805.768	27755
805.91	27732
806.052	27895
806.194	27743
806.336	28044
806.478	27823
806.62	27888
806.762	27987
806.904	28238
807.046	28356
807.188	28185
807.33	28219
807.472	28352
807.614	28291
807.756	28219
807.898	28074
808.04	28124
808.182	28120
808.324	28032
808.465	28131
808.607	28371
808.749	28440
808.891	28622
809.033	28733
809.174	28535
809.316	28500
809.458	28512
809.6	28409
809.741	28550
809.883	28668
810.025	28949
810.166	28831
810.308	28885
810.45	28767
810.591	28626
810.733	28622
810.875	28386
811.016	28462
811.158	28493
811.299	28607
811.441	28641
811.582	28607
811.724	28649
811.865	28360
812.007	28637
812.148	28443
812.29	28466
812.431	28744
812.573	28896
812.714	28938
812.855	29132
812.997	29117
813.138	29360
813.279	29086
813.421	29105
813.562	29113
813.703	28805
813.845	28793
813.986	28592
814.127	28405
814.268	28253
814.41	28257
814.551	28169
814.692	28272
814.833	28242
814.974	28276
815.115	28173
815.256	28112
815.397	28040
815.539	28135
815.68	28093
815.821	28006
815.962	28078
816.103	27884
816.244	27972
816.385	27926
816.526	27827
816.666	27511
816.807	27447
816.948	27717
817.089	27625
817.23	27568
817.371	27481
817.512	27603
817.653	27458
817.793	27625
817.934	27591
818.075	27534
818.216	27492
818.356	27477
818.497	27534
818.638	27279
818.778	27310
818.919	27275
819.06	27393
819.2	27439
819.341	27435
819.481	27549
819.622	27549
819.762	27968
819.903	27899
820.043	27595
820.184	27652
820.324	27652
820.465	27736
820.605	27724
820.746	27698
820.886	27454
821.026	27633
821.167	27701
821.307	27755
821.447	27477
821.588	27370
821.728	27321
821.868	27241
822.008	27036
822.149	26967
822.289	27043
822.429	26845
822.569	26617
822.709	26762
822.849	26609
822.99	26396
823.13	26541
823.27	26408
823.41	26275
823.55	26111
823.69	26507
823.83	26423
823.97	26199
824.11	26168
824.25	26252
824.389	26092
824.529	26202
824.669	26164
824.809	26328
824.949	26419
825.089	26206
825.228	26157
825.368	26073
825.508	25978
825.648	25974
825.787	26046
825.927	26145
826.067	26050
826.206	26168
826.346	26107
826.485	26016
826.625	26183
826.765	26149
826.904	26046
827.044	25917
827.183	25845
827.323	25795
827.462	25849
827.601	25887
827.741	25761
827.88	25868
828.02	25628
828.159	25883
828.298	25761
828.437	25925
828.577	25685
828.716	25879
828.855	25738
828.994	25605
829.134	25457
829.273	25430
829.412	25487
829.551	25388
829.69	25502
829.829	25506
829.968	25518
830.107	25666
830.246	25445
830.385	25495
830.524	25419
830.663	25244
830.802	25183
830.941	25095
831.08	25129
831.219	25023
831.357	25221
831.496	25373
831.635	25069
831.774	25038
831.913	25012
832.051	24913
832.19	24814
832.329	25095
832.467	24814
832.606	24734
832.744	24772
832.883	24703
833.022	24779
833.16	24859
833.299	24840
833.437	24863
833.576	24875
833.714	24776
833.852	24848
833.991	24852
834.129	25080
834.267	24958
834.406	24878
834.544	24947
834.682	24791
834.821	24833
834.959	25050
835.097	24783
835.235	24810
835.373	24886
835.511	24734
835.65	24745
835.788	24684
835.926	24570
836.064	24578
836.202	24642
836.34	24658
836.478	24711
836.615	24566
836.753	24582
836.891	24734
837.029	24635
837.167	24608
837.305	24677
837.443	24559
837.58	24521
837.718	24669
837.856	24677
837.993	24456
838.131	24593
838.269	24445
838.406	24471
838.544	24273
838.681	24323
838.819	24091
838.956	24038
839.094	24060
839.231	23920
839.369	24110
839.506	24330
839.643	24311
839.781	24167
839.918	23942
840.055	23980
840.193	23954
840.33	23889
840.467	23901
840.604	23889
840.742	24311
840.879	23722
841.016	23866
841.153	23817
841.29	24030
841.427	23866
841.564	23920
841.701	23851
841.838	23802
841.975	23756
842.112	23863
842.249	23703
842.385	23729
842.522	23832
842.659	23672
842.796	23649
842.933	23699
843.069	23623
843.206	23687
843.343	23741
843.479	23649
843.616	23687
843.752	23535
843.889	23395
844.025	23501
844.162	23368
844.298	23421
844.435	23471
844.571	23440
844.708	23455
844.844	23634
844.98	23478
845.117	23478
845.253	23391
845.389	23269
845.525	23220
845.661	23261
845.798	23064
845.934	23189
846.07	23185
846.206	23136
846.342	23280
846.478	23098
846.614	22915
846.75	22949
846.886	22923
847.022	22953
847.158	22927
847.294	22915
847.429	22771
847.565	22968
847.701	23159
847.837	22653
847.972	22535
848.108	22725
848.244	22809
848.379	22462
848.515	22382
848.65	22455
848.786	22500
848.921	22497
849.057	22542
849.192	22611
849.328	22451
849.463	22497
849.598	22413
849.734	22344
849.869	22375
850.004	22276
850.14	22226
850.275	22242
850.41	22333
850.545	22158
850.68	22238
850.815	22268
850.95	22329
851.085	22447
851.22	22333
851.355	22265
851.49	22295
851.625	22181
851.76	22196
851.895	22192
852.03	22101
852.165	22196
852.299	22074
852.434	22333
852.569	22287
852.703	22223
852.838	22284
852.973	22421
853.107	22375
853.242	22333
853.376	22067
853.511	22002
853.645	22040
853.78	22207
853.914	22177
854.048	22097
854.183	22032
854.317	22090
854.451	22249
854.585	22036
854.72	22063
854.854	22154
854.988	22013
855.122	22059
855.256	21949
855.39	22032
855.524	22139
855.658	22120
855.792	22166
855.926	22109
856.06	22097
856.194	22166
856.327	22090
856.461	21972
856.595	21983
856.729	22002
856.862	22147
856.996	22166
857.13	22036
857.263	22192
857.397	22219
857.53	22131
857.664	22128
857.797	22090
857.931	22196
858.064	22128
858.197	22257
858.331	22173
858.464	22021
858.597	21907
858.731	22017
858.864	21998
858.997	22093
859.13	22150
859.263	22040
859.396	22154
859.529	22112
859.662	22070
859.795	22090
859.928	22162
860.061	22253
860.194	22219
860.327	22158
860.46	22139
860.592	22082
860.725	22325
860.858	22162
860.99	22017
861.123	21941
861.256	21998
861.388	22101
861.521	22653
861.653	21979
861.786	21808
861.918	21873
862.05	21937
862.183	21972
862.315	21915
862.447	22150
862.58	22021
862.712	21812
862.844	21717
862.976	21922
863.108	21880
863.24	22090
863.372	21770
863.504	21922
863.636	21717
863.768	21728
863.9	21804
864.032	21857
864.164	21720
864.296	21793
864.428	21991
864.559	21930
864.691	21751
864.823	21793
864.954	21705
865.086	21686
865.217	21679
865.349	21534
865.48	21660
865.612	21663
865.743	21865
865.875	21644
866.006	21709
866.137	21648
866.269	21660
866.4	21705
866.531	21682
866.662	21450
866.793	21568
866.924	21542
867.055	21557
867.186	21633
867.317	21496
867.448	21538
867.579	21606
867.71	21526
867.841	21496
867.972	21553
868.103	21583
868.233	21663
868.364	21568
868.495	21789
868.625	21686
868.756	21831
868.886	21739
869.017	21743
869.147	21907
869.278	21937
869.408	21770
869.539	21922
869.669	21937
869.799	21926
869.929	21922
870.06	21861
870.19	22154
870.32	22097
870.45	22017
870.58	22158
870.71	22276
870.84	22211
870.97	22318
871.1	22303
871.23	22352
871.36	22268
871.489	22253
871.619	22287
871.749	22371
871.879	22287
872.008	22561
872.138	22428
872.267	22451
872.397	22207
872.526	22238
872.656	22211
872.785	22280
872.915	22455
873.044	22489
873.173	22459
873.303	22603
873.432	22447
873.561	22527
873.69	22348
873.819	22459
873.948	22451
874.077	22390
874.206	22386
874.335	22493
874.464	22603
874.593	22702
874.722	22717
874.851	22694
874.979	22535
875.108	22554
875.237	22607
875.365	22512
875.494	22599
875.623	22710
875.751	22634
875.88	22698
876.008	22809
876.136	22873
876.265	22991
876.393	23067
876.521	23044
876.65	23143
876.778	23067
876.906	22991
877.034	23056
877.162	22934
877.29	22938
877.418	22949
877.546	22953
877.674	22980
877.802	23014
877.93	22968
878.058	23033
878.185	22869
878.313	22900
878.441	22995
878.568	22793
878.696	22927
878.824	23140
878.951	22987
879.079	23083
879.206	23235
879.333	23166
879.461	23113
879.588	23185
879.715	23235
879.842	23296
879.97	23090
880.097	22835
880.224	22805
880.351	22816
880.478	22862
880.605	22786
880.732	22820
880.859	23083
880.986	22820
881.112	22869
881.239	22630
881.366	22523
881.493	22424
881.619	22382
881.746	22322
881.872	22356
881.999	22295
882.125	22310
882.252	22363
882.378	22382
882.505	22413
882.631	22276
882.757	22017
882.883	22131
883.01	21983
883.136	22017
883.262	21941
883.388	21937
883.514	22082
883.64	22112
883.766	21941
883.892	21739
884.018	21823
884.143	22002
884.269	22185
884.395	21804
884.52	21637
884.646	21679
884.772	21507
884.897	21629
885.023	21701
885.148	21949
885.274	21949
885.399	21732
885.524	21675
885.65	21694
885.775	21686
885.9	21641
886.025	21812
886.15	21759
886.275	21656
886.4	21648
886.525	21770
886.65	21576
886.775	21747
886.9	21724
887.025	21915
887.149	21709
887.274	21462
887.399	21488
887.523	21507
887.648	21447
887.773	21351
887.897	21447
888.021	21477
888.146	21313
888.27	21477
888.395	21557
888.519	21443
888.643	21500
888.767	21492
888.891	21386
889.015	21355
889.139	21428
889.263	21207
889.387	21424
889.511	21496
889.635	21401
889.759	21214
889.883	21298
890.006	21256
890.13	21370
890.254	21176
890.377	21249
890.501	21055
890.624	21108
890.748	21104
890.871	20952
890.995	20826
891.118	20796
891.241	20834
891.364	20937
891.488	20971
891.611	20758
891.734	20838
891.857	20929
891.98	20838
892.103	20925
892.226	20834
892.349	20773
892.471	20640
892.594	20689
892.717	20830
892.839	20712
892.962	20853
893.085	20765
893.207	20754
893.33	20640
893.452	20587
893.575	20769
893.697	20861
893.819	20845
893.941	20998
894.064	20883
894.186	20716
894.308	20629
894.43	20830
894.552	20918
894.674	20701
894.796	20564
894.918	20712
895.04	20697
895.161	20769
895.283	20746
895.405	20651
895.526	20697
895.648	20587
895.769	20762
895.891	20632
896.012	20758
896.134	20895
896.255	20746
896.376	20617
896.498	20629
896.619	20746
896.74	20686
896.861	20796
896.982	21051
897.103	21154
897.224	20914
897.345	20861
897.466	20735
897.587	20952
897.708	21032
897.828	21062
897.949	20781
898.07	20842
898.19	20819
898.311	20963
898.431	20834
898.552	20899
898.672	20998
898.792	20910
898.913	20952
899.033	20765
899.153	20667
899.273	20678
899.393	20697
899.513	20655
899.633	20625
899.753	20613
899.873	20549
899.993	20727
900.113	20583
900.232	20602
900.352	20651
900.472	20594
900.591	20229
900.711	20530
900.83	20286
900.95	20575
901.069	20514
901.189	20313
901.308	20176
901.427	20001
901.546	19959
901.665	19970
901.784	19963
901.904	19822
902.023	19723
902.141	19537
902.26	19590
902.379	19586
902.498	19506
902.617	19567
902.735	19556
902.854	19502
902.973	19449
903.091	19247
903.21	19137
903.328	19110
903.446	19148
903.565	18913
903.683	18935
903.801	18905
903.919	18886
904.038	18905
904.156	18768
904.274	18844
904.392	18658
904.51	18814
904.627	18681
904.745	18673
904.863	18726
904.981	18547
905.098	18483
905.216	18369
905.334	18475
905.451	18460
905.569	18388
905.686	18460
905.803	18376
905.921	18235
906.038	18315
906.155	18311
906.272	18041
906.389	18106
906.506	17935
906.623	17988
906.74	17908
906.857	17786
906.974	17843
907.091	17965
907.208	18060
907.324	17961
907.441	17824
907.557	17722
907.674	17699
907.79	17604
907.907	17547
908.023	17528
908.139	17665
908.256	17627
908.372	17562
908.488	17520
908.604	17421
908.72	17288
908.836	17463
908.952	17307
909.068	17440
909.184	17482
909.3	17387
909.415	17459
909.531	17395
909.647	17121
909.762	17094
909.878	17155
909.993	17064
910.108	17029
910.224	17018
910.339	17045
910.454	16957
910.57	16934
910.685	16858
910.8	17132
910.915	17041
911.03	16847
911.145	16679
911.259	16691
911.374	16596
911.489	16508
911.604	16546
911.718	16432
911.833	16405
911.947	16284
912.062	16219
912.176	16360
912.291	16329
912.405	16360
912.519	16599
912.633	16622
912.748	16386
912.862	16341
912.976	16257
913.09	16105
913.204	16169
913.318	16173
913.431	16356
913.545	16280
913.659	16398
913.772	16101
913.886	16055
914	16082
914.113	16067
914.226	16207
914.34	16002
914.453	15869
914.566	16017
914.68	15941
914.793	15918
914.906	15675
915.019	15561
915.132	15504
915.245	15641
915.358	15584
915.47	15466
915.583	15679
915.696	15557
915.809	15686
915.921	15709
916.034	15492
916.146	15431
916.259	15469
916.371	15534
916.483	15538
916.595	15454
916.708	15443
916.82	15367
916.932	15466
917.044	15348
917.156	15317
917.268	15245
917.38	15279
917.491	15218
917.603	15275
917.715	15233
917.826	15405
917.938	15161
918.049	15032
918.161	15150
918.272	15287
918.384	15287
918.495	15169
918.606	15039
918.717	14937
918.828	14982
918.939	14990
919.05	14906
919.161	14861
919.272	14743
919.383	14842
919.494	15074
919.604	15188
919.715	14883
919.826	14868
919.936	14933
920.047	14918
920.157	14967
920.267	15097
920.378	14948
920.488	14967
920.598	15066
920.708	15226
920.818	15058
920.928	14952
921.038	15081
921.148	15207
921.258	14925
921.368	14792
921.477	14602
921.587	14663
921.697	14526
921.806	14629
921.916	14514
922.025	14389
922.134	14317
922.244	14328
922.353	14267
922.462	14180
922.571	14054
922.68	14054
922.789	13909
922.898	13932
923.007	13944
923.116	13890
923.224	13921
923.333	13799
923.442	13849
923.55	13765
923.659	13750
923.767	13833
923.876	13723
923.984	13750
924.092	13578
924.201	13636
924.309	13655
924.417	13742
924.525	13571
924.633	13559
924.741	14583
924.849	13388
924.956	13499
925.064	13259
925.172	13236
925.279	13343
925.387	13392
925.494	13354
925.602	13422
925.709	13362
925.816	13209
925.924	13179
926.031	13396
926.138	13240
926.245	13422
926.352	13160
926.459	13259
926.566	13324
926.673	13217
926.779	13187
926.886	13137
926.993	12924
927.099	12985
927.206	12787
927.312	12798
927.419	12920
927.525	12852
927.631	12894
927.737	12817
927.843	12673
927.95	12593
928.056	12669
928.162	12738
928.267	12768
928.373	13324
928.479	12875
928.585	12593
928.69	12681
928.796	12642
928.901	12563
929.007	12445
929.112	12555
929.218	12479
929.323	12433
929.428	12376
929.533	12517
929.638	12338
929.743	12388
929.848	12388
929.953	12262
930.058	12357
930.163	12140
930.267	12049
930.372	12281
930.477	12019
930.581	12289
930.685	12098
930.79	12083
930.894	12003
930.998	11916
931.103	12030
931.207	11718
931.311	11649
931.415	11528
931.519	11436
931.623	11246
