Data from test_V78500241_2814.txt Node
Date: Fri Mar 25 15:29:27 CST 2022
User: usil
Spectrometer: V785-0024
Trigger mode: 0
Integration Time (sec): 4.000000E-1
Scans to average: 1
Nonlinearity correction enabled: false
Boxcar width: 0
Storing dark spectrum: false
XAxis mode: Wavelengths
Number of Pixels in Spectrum: 1024
>>>>>Begin Spectral Data<<<<<
801.071	27211
801.214	27077
801.356	26853
801.499	26754
801.641	26678
801.783	26743
801.926	26864
802.068	26670
802.211	26678
802.353	26469
802.496	26389
802.638	26377
802.78	26381
802.923	26237
803.065	26214
803.208	26233
803.35	26240
803.492	26511
803.635	26575
803.777	26305
803.919	26427
804.061	26811
804.204	26465
804.346	26347
804.488	26301
804.63	26412
804.773	26446
804.915	26590
805.057	26587
805.199	26355
805.341	26526
805.483	26564
805.626	26560
805.768	26511
805.91	26556
806.052	26568
806.194	26453
806.336	26632
806.478	26492
806.62	26541
806.762	26739
806.904	26834
807.046	27074
807.188	27074
807.33	27051
807.472	27070
807.614	26838
807.756	26940
807.898	26792
808.04	26826
808.182	26807
808.324	26853
808.465	26861
808.607	26979
808.749	27188
808.891	27291
809.033	27230
809.174	27302
809.316	27032
809.458	27100
809.6	27131
809.741	27272
809.883	27283
810.025	27412
810.166	27469
810.308	27310
810.45	27450
810.591	27367
810.733	27165
810.875	27192
811.016	27165
811.158	27199
811.299	27329
811.441	27447
811.582	27367
811.724	27272
811.865	27180
812.007	27146
812.148	27230
812.29	27138
812.431	27329
812.573	27504
812.714	27599
812.855	27637
812.997	27701
813.138	27846
813.279	27686
813.421	27682
813.562	27724
813.703	27603
813.845	27317
813.986	27108
814.127	26925
814.268	26826
814.41	26868
814.551	26754
814.692	26910
814.833	26792
814.974	26781
815.115	26830
815.256	26678
815.397	26625
815.539	26655
815.68	26651
815.821	26579
815.962	26792
816.103	26632
816.244	26457
816.385	26400
816.526	26362
816.666	26176
816.807	26073
816.948	26115
817.089	26240
817.23	26103
817.371	26134
817.512	26046
817.653	26092
817.793	26005
817.934	26130
818.075	26096
818.216	26035
818.356	26054
818.497	26081
818.638	25700
818.778	25772
818.919	25871
819.06	25902
819.2	26077
819.341	25963
819.481	26062
819.622	26142
819.762	26377
819.903	26396
820.043	26176
820.184	26161
820.324	26145
820.465	26134
820.605	26119
820.746	26149
820.886	26081
821.026	26096
821.167	26081
821.307	26191
821.447	26035
821.588	25974
821.728	25906
821.868	25677
822.008	25552
822.149	25582
822.289	25620
822.429	25202
822.569	25103
822.709	25213
822.849	25069
822.99	25088
823.13	25088
823.27	24966
823.41	24840
823.55	24852
823.69	24821
823.83	24844
823.97	24859
824.11	24749
824.25	24639
824.389	24658
824.529	24635
824.669	24715
824.809	24791
824.949	24749
825.089	24722
825.228	24798
825.368	24585
825.508	24513
825.648	24589
825.787	24528
825.927	24677
826.067	24498
826.206	24642
826.346	24536
826.485	24570
826.625	24570
826.765	24654
826.904	24525
827.044	24262
827.183	24258
827.323	24213
827.462	24251
827.601	24228
827.741	24273
827.88	24266
828.02	24201
828.159	24194
828.298	24220
828.437	24327
828.577	24228
828.716	24407
828.855	24163
828.994	23984
829.134	23939
829.273	24049
829.412	23908
829.551	23946
829.69	23999
829.829	24049
829.968	24003
830.107	24003
830.246	23946
830.385	24018
830.524	23756
830.663	23790
830.802	23756
830.941	23471
831.08	23330
831.219	23596
831.357	23653
831.496	23870
831.635	23596
831.774	23417
831.913	23406
832.051	23231
832.19	23334
832.329	23349
832.467	23200
832.606	23170
832.744	23174
832.883	23212
833.022	23239
833.16	23204
833.299	23269
833.437	23197
833.576	23299
833.714	23250
833.852	23296
833.991	23448
834.129	23311
834.267	23421
834.406	23376
834.544	23216
834.682	23288
834.821	23223
834.959	23490
835.097	23284
835.235	23311
835.373	23170
835.511	23204
835.65	23132
835.788	23181
835.926	23121
836.064	23033
836.202	22904
836.34	22987
836.478	23235
836.615	23052
836.753	23269
836.891	23193
837.029	23121
837.167	23136
837.305	23041
837.443	23044
837.58	23025
837.718	23025
837.856	23056
837.993	22938
838.131	22900
838.269	22923
838.406	22828
838.544	22793
838.681	22615
838.819	22611
838.956	22470
839.094	22535
839.231	22637
839.369	22645
839.506	22934
839.643	22706
839.781	22493
839.918	22371
840.055	22402
840.193	22386
840.33	22402
840.467	22470
840.604	22310
840.742	22740
840.879	22192
841.016	22310
841.153	22249
841.29	22360
841.427	22344
841.564	22303
841.701	22428
841.838	22379
841.975	22375
842.112	22303
842.249	22097
842.385	22181
842.522	22379
842.659	22215
842.796	22124
842.933	22086
843.069	22010
843.206	22093
843.343	22234
843.479	22166
843.616	22246
843.752	21781
843.889	21968
844.025	22036
844.162	21949
844.298	22070
844.435	21861
844.571	21880
844.708	21960
844.844	22063
844.98	22135
845.117	22059
845.253	21831
845.389	21922
845.525	21785
845.661	21759
845.798	21622
845.934	21660
846.07	21785
846.206	21641
846.342	21713
846.478	21747
846.614	21473
846.75	21370
846.886	21378
847.022	21473
847.158	21291
847.294	21416
847.429	21397
847.565	21359
847.701	21614
847.837	21298
847.972	20910
848.108	21184
848.244	21184
848.379	20963
848.515	21089
848.65	20838
848.786	20967
848.921	20998
849.057	21199
849.192	21154
849.328	21169
849.463	20952
849.598	20891
849.734	20994
849.869	20918
850.004	20815
850.14	20834
850.275	20811
850.41	20602
850.545	20762
850.68	20792
850.815	20750
850.95	20754
851.085	21024
851.22	20941
851.355	20826
851.49	20712
851.625	20678
851.76	20838
851.895	20720
852.03	20769
852.165	20842
852.299	20845
852.434	20902
852.569	20937
852.703	20785
852.838	20762
852.973	20998
853.107	20899
853.242	20724
853.376	20636
853.511	20461
853.645	20587
853.78	20693
853.914	20693
854.048	20617
854.183	20507
854.317	20625
854.451	20883
854.585	20609
854.72	20522
854.854	20731
854.988	20484
855.122	20514
855.256	20552
855.39	20636
855.524	20701
855.658	20667
855.792	20686
855.926	20552
856.06	20670
856.194	20716
856.327	20579
856.461	20617
856.595	20579
856.729	20541
856.862	20670
856.996	20545
857.13	20541
857.263	20686
857.397	20655
857.53	20549
857.664	20640
857.797	20629
857.931	20708
858.064	20667
858.197	20754
858.331	20587
858.464	20617
858.597	20511
858.731	20598
858.864	20568
858.997	20503
859.13	20571
859.263	20743
859.396	20712
859.529	20602
859.662	20552
859.795	20480
859.928	20583
860.061	20781
860.194	20693
860.327	20708
860.46	20583
860.592	20674
860.725	20773
860.858	20754
860.99	20659
861.123	20442
861.256	20507
861.388	20556
861.521	21192
861.653	20454
861.786	20419
861.918	20377
862.05	20495
862.183	20552
862.315	20606
862.447	20648
862.58	20499
862.712	20358
862.844	20355
862.976	20408
863.108	20275
863.24	20826
863.372	20180
863.504	20313
863.636	20320
863.768	20408
863.9	20313
864.032	20256
864.164	20282
864.296	20362
864.428	20446
864.559	20446
864.691	20461
864.823	20332
864.954	20248
865.086	20263
865.217	20229
865.349	20157
865.48	20225
865.612	20275
865.743	20328
865.875	20252
866.006	20206
866.137	20347
866.269	20271
866.4	20122
866.531	20153
866.662	20172
866.793	20142
866.924	20218
867.055	20240
867.186	20157
867.317	20138
867.448	20092
867.579	20149
867.71	20103
867.841	20005
867.972	20157
868.103	20221
868.233	20130
868.364	20229
868.495	20214
868.625	20351
868.756	20454
868.886	20381
869.017	20400
869.147	20575
869.278	20461
869.408	20461
869.539	20427
869.669	20412
869.799	20499
869.929	20484
870.06	20473
870.19	20594
870.32	20674
870.45	20823
870.58	20811
870.71	20918
870.84	20853
870.97	20861
871.1	20773
871.23	20982
871.36	20994
871.489	20880
871.619	21074
871.749	21100
871.879	21081
872.008	21032
872.138	20956
872.267	21013
872.397	20887
872.526	20754
872.656	20857
872.785	20849
872.915	20944
873.044	21085
873.173	20979
873.303	21165
873.432	20998
873.561	21123
873.69	21058
873.819	21005
873.948	21195
874.077	21024
874.206	20910
874.335	21077
874.464	21150
874.593	21245
874.722	21192
874.851	21233
874.979	21260
875.108	21332
875.237	21142
875.365	21089
875.494	21230
875.623	21367
875.751	21241
875.88	21214
876.008	21485
876.136	21466
876.265	21717
876.393	21736
876.521	21686
876.65	21797
876.778	21793
876.906	21648
877.034	21576
877.162	21679
877.29	21595
877.418	21583
877.546	21637
877.674	21526
877.802	21641
877.93	21701
878.058	21618
878.185	21511
878.313	21580
878.441	21561
878.568	21568
878.696	21557
878.824	21603
878.951	21766
879.079	21778
879.206	21770
879.333	21743
879.461	21564
879.588	21701
879.715	21823
879.842	21907
879.97	21770
880.097	21523
880.224	21428
880.351	21511
880.478	21466
880.605	21374
880.732	21599
880.859	21663
880.986	21443
881.112	21424
881.239	21279
881.366	21237
881.493	21077
881.619	21127
881.746	21032
881.872	21055
881.999	21161
882.125	20967
882.252	21043
882.378	20998
882.505	21157
882.631	20857
882.757	20762
882.883	20849
883.01	20804
883.136	20735
883.262	20674
883.388	20495
883.514	20785
883.64	20663
883.766	20651
883.892	20518
884.018	20518
884.143	20731
884.269	20796
884.395	20571
884.52	20434
884.646	20415
884.772	20214
884.897	20393
885.023	20305
885.148	20480
885.274	20609
885.399	20545
885.524	20377
885.65	20438
885.775	20339
885.9	20408
886.025	20400
886.15	20366
886.275	20400
886.4	20183
886.525	20450
886.65	20313
886.775	20396
886.9	20434
887.025	20598
887.149	20351
887.274	20256
887.399	20168
887.523	20237
887.648	20138
887.773	20081
887.897	20244
888.021	20214
888.146	20191
888.27	20248
888.395	20324
888.519	20187
888.643	20153
888.767	20294
888.891	20130
889.015	20050
889.139	19887
889.263	19944
889.387	19986
889.511	20168
889.635	20008
889.759	20058
889.883	19932
890.006	19963
890.13	20065
890.254	19936
890.377	19890
890.501	19765
890.624	19727
890.748	19689
890.871	19616
890.995	19563
891.118	19445
891.241	19616
891.364	19556
891.488	19715
891.611	19613
891.734	19616
891.857	19510
891.98	19681
892.103	19674
892.226	19556
892.349	19510
892.471	19297
892.594	19434
892.717	19578
892.839	19476
892.962	19377
893.085	19476
893.207	19384
893.33	19308
893.452	19419
893.575	19521
893.697	19449
893.819	19639
893.941	19807
894.064	19601
894.186	19460
894.308	19373
894.43	19548
894.552	19540
894.674	19540
894.796	19457
894.918	19563
895.04	19453
895.161	19506
895.283	19510
895.405	19438
895.526	19563
895.648	19449
895.769	19426
895.891	19373
896.012	19491
896.134	19537
896.255	19381
896.376	19521
896.498	19434
896.619	19472
896.74	19411
896.861	19613
896.982	19833
897.103	19989
897.224	19757
897.345	19689
897.466	19685
897.587	19788
897.708	19879
897.828	19704
897.949	19605
898.07	19525
898.19	19605
898.311	19795
898.431	19491
898.552	19814
898.672	19811
898.792	19769
898.913	19704
899.033	19624
899.153	19556
899.273	19419
899.393	19506
899.513	19563
899.633	19438
899.753	19518
899.873	19445
899.993	19460
900.113	19343
900.232	19514
900.352	19350
900.472	19373
900.591	19171
900.711	19263
900.83	19206
900.95	19274
901.069	19365
901.189	19099
901.308	18878
901.427	18878
901.546	18913
901.665	18840
901.784	18920
901.904	18700
902.023	18620
902.141	18460
902.26	18429
902.379	18460
902.498	18327
902.617	18323
902.735	18323
902.854	18384
902.973	18350
903.091	18060
903.21	18045
903.328	18045
903.446	17874
903.565	17851
903.683	17878
903.801	17703
903.919	17904
904.038	17859
904.156	17661
904.274	17733
904.392	17657
904.51	17691
904.627	17665
904.745	17646
904.863	17748
904.981	17398
905.098	17345
905.216	17334
905.334	17318
905.451	17360
905.569	17227
905.686	17318
905.803	17277
905.921	17003
906.038	17212
906.155	17204
906.272	16980
906.389	16927
906.506	16843
906.623	16862
906.74	16930
906.857	16763
906.974	16778
907.091	16892
907.208	17048
907.324	16892
907.441	16729
907.557	16672
907.674	16550
907.79	16474
907.907	16523
908.023	16493
908.139	16554
908.256	16569
908.372	16443
908.488	16432
908.604	16272
908.72	16363
908.836	16325
908.952	16333
909.068	16291
909.184	16344
909.3	16204
909.415	16295
909.531	16318
909.647	15922
909.762	15930
909.878	15964
909.993	16082
910.108	15934
910.224	15888
910.339	15903
910.454	15785
910.57	15732
910.685	15747
910.8	15895
910.915	15884
911.03	15812
911.145	15641
911.259	15641
911.374	15625
911.489	15526
911.604	15500
911.718	15291
911.833	15374
911.947	15294
912.062	15214
912.176	15462
912.291	15408
912.405	15317
912.519	15694
912.633	15526
912.748	15420
912.862	15340
912.976	15294
913.09	15028
913.204	15093
913.318	15112
913.431	15256
913.545	15218
913.659	15207
913.772	15180
913.886	15123
914	15043
914.113	15116
914.226	15062
914.34	14960
914.453	14960
914.566	15070
914.68	14807
914.793	14880
914.906	14796
915.019	14530
915.132	14511
915.245	14663
915.358	14712
915.47	14648
915.583	14571
915.696	14549
915.809	14697
915.921	14739
916.034	14606
916.146	14442
916.259	14625
916.371	14606
916.483	14617
916.595	14507
916.708	14492
916.82	14419
916.932	14408
917.044	14484
917.156	14427
917.268	14282
917.38	14336
917.491	14286
917.603	14278
917.715	14309
917.826	14412
917.938	14290
918.049	14218
918.161	14328
918.272	14358
918.384	14374
918.495	14305
918.606	14058
918.717	13925
918.828	14081
918.939	14031
919.05	13997
919.161	14092
919.272	13685
919.383	13902
919.494	14088
919.604	14244
919.715	14092
919.826	14027
919.936	14031
920.047	14180
920.157	14043
920.267	14206
920.378	14115
920.488	14001
920.598	14202
920.708	14294
920.818	14267
920.928	14214
921.038	14404
921.148	14358
921.258	14046
921.368	13898
921.477	13814
921.587	13769
921.697	13700
921.806	13803
921.916	13609
922.025	13430
922.134	13460
922.244	13400
922.353	13563
922.462	13365
922.571	13274
922.68	13114
922.789	13095
922.898	13069
923.007	13061
923.116	13175
923.224	13122
923.333	13145
923.442	12985
923.55	12928
923.659	12947
923.767	12966
923.876	12909
923.984	12981
924.092	12821
924.201	12894
924.309	12909
924.417	12798
924.525	12757
924.633	12806
924.741	13537
924.849	12623
924.956	12696
925.064	12578
925.172	12547
925.279	12547
925.387	12597
925.494	12532
925.602	12612
925.709	12570
925.816	12456
925.924	12525
926.031	12551
926.138	12502
926.245	12509
926.352	12410
926.459	12479
926.566	12547
926.673	12403
926.779	12330
926.886	12369
926.993	12258
927.099	12159
927.206	12076
927.312	12026
927.419	12106
927.525	12110
927.631	12194
927.737	12121
927.843	11931
927.95	11847
928.056	11973
928.162	11984
928.267	11977
928.373	12612
928.479	11988
928.585	11710
928.69	11802
928.796	11942
928.901	11866
929.007	11615
929.112	11767
929.218	11684
929.323	11752
929.428	11710
929.533	11775
929.638	11497
929.743	11668
929.848	11688
929.953	11707
930.058	11520
930.163	11311
930.267	11315
930.372	11547
930.477	11383
930.581	11543
930.685	11402
930.79	11337
930.894	11216
930.998	11170
931.103	11376
931.207	11109
931.311	10961
931.415	10850
931.519	10801
931.623	10725
