Data from test_V78500241_1692.txt Node
Date: Fri Mar 25 15:21:38 CST 2022
User: usil
Spectrometer: V785-0024
Trigger mode: 0
Integration Time (sec): 4.000000E-1
Scans to average: 1
Nonlinearity correction enabled: false
Boxcar width: 0
Storing dark spectrum: false
XAxis mode: Wavelengths
Number of Pixels in Spectrum: 1024
>>>>>Begin Spectral Data<<<<<
801.071	28059
801.214	28010
801.356	27812
801.499	27705
801.641	27519
801.783	27583
801.926	27568
802.068	27542
802.211	27367
802.353	27424
802.496	27435
802.638	27340
802.78	27230
802.923	27180
803.065	27146
803.208	27195
803.35	27161
803.492	27443
803.635	27469
803.777	27389
803.919	27473
804.061	27873
804.204	27412
804.346	27389
804.488	27412
804.63	27526
804.773	27378
804.915	27370
805.057	27591
805.199	27515
805.341	27530
805.483	27591
805.626	27656
805.768	27488
805.91	27511
806.052	27553
806.194	27564
806.336	27899
806.478	27622
806.62	27538
806.762	27656
806.904	27876
807.046	28067
807.188	27934
807.33	28120
807.472	28021
807.614	27930
807.756	27972
807.898	27964
808.04	27914
808.182	27857
808.324	27922
808.465	27918
808.607	28082
808.749	28249
808.891	28314
809.033	28394
809.174	28272
809.316	28303
809.458	28230
809.6	28204
809.741	28291
809.883	28333
810.025	28557
810.166	28459
810.308	28504
810.45	28523
810.591	28436
810.733	28219
810.875	28257
811.016	28074
811.158	28185
811.299	28356
811.441	28371
811.582	28542
811.724	28223
811.865	28238
812.007	28158
812.148	28192
812.29	28280
812.431	28356
812.573	28500
812.714	28592
812.855	28717
812.997	28854
813.138	28965
813.279	28888
813.421	28835
813.562	28641
813.703	28694
813.845	28470
813.986	28177
814.127	28169
814.268	27903
814.41	28010
814.551	27812
814.692	28112
814.833	27835
814.974	27869
815.115	27888
815.256	27797
815.397	27876
815.539	27785
815.68	27785
815.821	27682
815.962	27831
816.103	27701
816.244	27686
816.385	27530
816.526	27454
816.666	27340
816.807	27135
816.948	27268
817.089	27408
817.23	27252
817.371	27252
817.512	27298
817.653	27138
817.793	27302
817.934	27104
818.075	27268
818.216	27165
818.356	27135
818.497	27062
818.638	26990
818.778	27070
818.919	26967
819.06	26933
819.2	27116
819.341	27252
819.481	27188
819.622	27485
819.762	27500
819.903	27367
820.043	27332
820.184	27424
820.324	27374
820.465	27332
820.605	27427
820.746	27329
820.886	27218
821.026	27378
821.167	27367
821.307	27389
821.447	27252
821.588	27119
821.728	27112
821.868	26853
822.008	26705
822.149	26769
822.289	26689
822.429	26507
822.569	26362
822.709	26419
822.849	26100
822.99	26339
823.13	26210
823.27	26149
823.41	26142
823.55	25921
823.69	25982
823.83	25902
823.97	25951
824.11	25871
824.25	25776
824.389	25864
824.529	25974
824.669	25879
824.809	25959
824.949	25955
825.089	26039
825.228	25894
825.368	25712
825.508	25723
825.648	25731
825.787	25746
825.927	25765
826.067	25719
826.206	25715
826.346	25738
826.485	25666
826.625	25799
826.765	25944
826.904	25788
827.044	25510
827.183	25491
827.323	25457
827.462	25487
827.601	25460
827.741	25533
827.88	25521
828.02	25209
828.159	25358
828.298	25468
828.437	25460
828.577	25301
828.716	25453
828.855	25304
828.994	25297
829.134	25194
829.273	25335
829.412	25217
829.551	25046
829.69	25209
829.829	25179
829.968	25308
830.107	25270
830.246	25160
830.385	25103
830.524	25000
830.663	24928
830.802	24806
830.941	24642
831.08	24612
831.219	25012
831.357	24829
831.496	25031
831.635	24711
831.774	24726
831.913	24559
832.051	24642
832.19	24479
832.329	24612
832.467	24475
832.606	24471
832.744	24323
832.883	24437
833.022	24292
833.16	24509
833.299	24509
833.437	24623
833.576	24490
833.714	24464
833.852	24525
833.991	24635
834.129	24589
834.267	24665
834.406	24544
834.544	24471
834.682	24448
834.821	24566
834.959	24684
835.097	24544
835.235	24471
835.373	24475
835.511	24525
835.65	24258
835.788	24338
835.926	24232
836.064	24076
836.202	24079
836.34	24388
836.478	24471
836.615	24407
836.753	24369
836.891	24456
837.029	24376
837.167	24148
837.305	24254
837.443	24209
837.58	24251
837.718	24330
837.856	24163
837.993	24213
838.131	24216
838.269	24155
838.406	24095
838.544	24152
838.681	23790
838.819	23870
838.956	23649
839.094	23703
839.231	23741
839.369	23668
839.506	24060
839.643	23824
839.781	23722
839.918	23528
840.055	23695
840.193	23684
840.33	23577
840.467	23608
840.604	23509
840.742	23764
840.879	23345
841.016	23448
841.153	23463
841.29	23619
841.427	23554
841.564	23600
841.701	23535
841.838	23501
841.975	23433
842.112	23414
842.249	23383
842.385	23334
842.522	23539
842.659	23455
842.796	23235
842.933	23220
843.069	23254
843.206	23315
843.343	23448
843.479	23349
843.616	23315
843.752	23216
843.889	23094
844.025	23197
844.162	23083
844.298	23159
844.435	23060
844.571	23109
844.708	23105
844.844	23337
844.98	23356
845.117	23140
845.253	23052
845.389	22980
845.525	22949
845.661	23029
845.798	22797
845.934	22957
846.07	22713
846.206	22839
846.342	22946
846.478	22645
846.614	22508
846.75	22542
846.886	22557
847.022	22634
847.158	22653
847.294	22523
847.429	22592
847.565	22535
847.701	22797
847.837	22337
847.972	22219
848.108	22481
848.244	22329
848.379	22196
848.515	22242
848.65	22226
848.786	22139
848.921	22223
849.057	22272
849.192	22284
849.328	22181
849.463	22139
849.598	22059
849.734	22143
849.869	22120
850.004	21797
850.14	21998
850.275	21960
850.41	21812
850.545	21895
850.68	21930
850.815	21949
850.95	21911
851.085	22086
851.22	22006
851.355	21945
851.49	21895
851.625	21869
851.76	21926
851.895	21755
852.03	21804
852.165	22101
852.299	22002
852.434	22029
852.569	22112
852.703	21800
852.838	21918
852.973	21983
853.107	22010
853.242	21964
853.376	21797
853.511	21542
853.645	21751
853.78	21823
853.914	21781
854.048	21884
854.183	21785
854.317	21728
854.451	21949
854.585	21793
854.72	21698
854.854	21907
854.988	21717
855.122	21842
855.256	21568
855.39	21865
855.524	21766
855.658	21667
855.792	21724
855.926	21686
856.06	21766
856.194	21964
856.327	21751
856.461	21705
856.595	21713
856.729	21724
856.862	21793
856.996	21690
857.13	21728
857.263	21743
857.397	21884
857.53	21701
857.664	21816
857.797	21679
857.931	21876
858.064	21648
858.197	21865
858.331	21751
858.464	21675
858.597	21568
858.731	21709
858.864	21686
858.997	21580
859.13	21747
859.263	21759
859.396	21842
859.529	21686
859.662	21682
859.795	21523
859.928	21694
860.061	21865
860.194	21892
860.327	21762
860.46	21846
860.592	21827
860.725	21785
860.858	21812
860.99	21641
861.123	21682
861.256	21644
861.388	21755
861.521	22318
861.653	21603
861.786	21507
861.918	21492
862.05	21625
862.183	21633
862.315	21736
862.447	21652
862.58	21732
862.712	21481
862.844	21336
862.976	21587
863.108	21424
863.24	21690
863.372	21389
863.504	21428
863.636	21519
863.768	21485
863.9	21439
864.032	21313
864.164	21420
864.296	21481
864.428	21405
864.559	21488
864.691	21549
864.823	21507
864.954	21416
865.086	21500
865.217	21367
865.349	21306
865.48	21351
865.612	21351
865.743	21492
865.875	21397
866.006	21313
866.137	21454
866.269	21302
866.4	21317
866.531	21272
866.662	21245
866.793	21207
866.924	21195
867.055	21302
867.186	21313
867.317	21233
867.448	21176
867.579	21199
867.71	21173
867.841	21176
867.972	21310
868.103	21195
868.233	21272
868.364	21226
868.495	21264
868.625	21439
868.756	21629
868.886	21519
869.017	21652
869.147	21663
869.278	21694
869.408	21553
869.539	21428
869.669	21557
869.799	21553
869.929	21580
870.06	21538
870.19	21827
870.32	21842
870.45	21720
870.58	21800
870.71	21926
870.84	22036
870.97	21903
871.1	21835
871.23	22013
871.36	22143
871.489	21979
871.619	22017
871.749	22067
871.879	22246
872.008	22173
872.138	22204
872.267	22139
872.397	21880
872.526	21979
872.656	21953
872.785	21930
872.915	22070
873.044	22211
873.173	22093
873.303	22124
873.432	22219
873.561	22169
873.69	22116
873.819	22128
873.948	22204
874.077	22173
874.206	22021
874.335	22040
874.464	22306
874.593	22344
874.722	22204
874.851	22306
874.979	22375
875.108	22314
875.237	22443
875.365	22261
875.494	22272
875.623	22459
875.751	22333
875.88	22333
876.008	22459
876.136	22497
876.265	22729
876.393	22862
876.521	22729
876.65	22771
876.778	22782
876.906	22634
877.034	22557
877.162	22603
877.29	22713
877.418	22729
877.546	22736
877.674	22664
877.802	22706
877.93	22664
878.058	22603
878.185	22546
878.313	22729
878.441	22713
878.568	22565
878.696	22577
878.824	22641
878.951	22748
879.079	22835
879.206	23018
879.333	22752
879.461	22641
879.588	22725
879.715	22755
879.842	22900
879.97	22721
880.097	22550
880.224	22421
880.351	22413
880.478	22398
880.605	22462
880.732	22432
880.859	22744
880.986	22474
881.112	22504
881.239	22253
881.366	22276
881.493	22177
881.619	22128
881.746	22131
881.872	21953
881.999	22128
882.125	22090
882.252	22093
882.378	21994
882.505	22177
882.631	21884
882.757	21667
882.883	21861
883.01	21736
883.136	21701
883.262	21663
883.388	21542
883.514	21660
883.64	21766
883.766	21743
883.892	21572
884.018	21564
884.143	21732
884.269	21819
884.395	21386
884.52	21367
884.646	21500
884.772	21435
884.897	21374
885.023	21466
885.148	21466
885.274	21477
885.399	21534
885.524	21447
885.65	21507
885.775	21355
885.9	21386
886.025	21424
886.15	21291
886.275	21272
886.4	21283
886.525	21340
886.65	21302
886.775	21329
886.9	21416
887.025	21629
887.149	21340
887.274	21321
887.399	21226
887.523	21211
887.648	21081
887.773	20975
887.897	21233
888.021	21317
888.146	21119
888.27	21313
888.395	21165
888.519	21154
888.643	21195
888.767	21218
888.891	21173
889.015	20857
889.139	20944
889.263	20891
889.387	21112
889.511	21055
889.635	21096
889.759	21005
889.883	20967
890.006	20971
890.13	21169
890.254	20807
890.377	20746
890.501	20701
890.624	20625
890.748	20788
890.871	20533
890.995	20609
891.118	20404
891.241	20609
891.364	20507
891.488	20613
891.611	20689
891.734	20522
891.857	20545
891.98	20480
892.103	20495
892.226	20469
892.349	20533
892.471	20248
892.594	20389
892.717	20480
892.839	20328
892.962	20457
893.085	20526
893.207	20415
893.33	20298
893.452	20248
893.575	20389
893.697	20381
893.819	20533
893.941	20663
894.064	20648
894.186	20427
894.308	20309
894.43	20492
894.552	20602
894.674	20495
894.796	20347
894.918	20370
895.04	20343
895.161	20499
895.283	20434
895.405	20389
895.526	20374
895.648	20374
895.769	20339
895.891	20495
896.012	20393
896.134	20480
896.255	20385
896.376	20385
896.498	20351
896.619	20473
896.74	20480
896.861	20457
896.982	20670
897.103	20880
897.224	20606
897.345	20575
897.466	20587
897.587	20598
897.708	20754
897.828	20655
897.949	20495
898.07	20412
898.19	20568
898.311	20678
898.431	20617
898.552	20560
898.672	20792
898.792	20754
898.913	20594
899.033	20537
899.153	20427
899.273	20366
899.393	20454
899.513	20317
899.633	20381
899.753	20431
899.873	20191
899.993	20324
900.113	20317
900.232	20404
900.352	20298
900.472	20298
900.591	20138
900.711	20168
900.83	20005
900.95	20122
901.069	20164
901.189	20065
901.308	19708
901.427	19674
901.546	19655
901.665	19651
901.784	19734
901.904	19525
902.023	19468
902.141	19183
902.26	19209
902.379	19217
902.498	19285
902.617	19126
902.735	19320
902.854	19179
902.973	19053
903.091	18935
903.21	18791
903.328	18859
903.446	18920
903.565	18696
903.683	18738
903.801	18547
903.919	18616
904.038	18551
904.156	18467
904.274	18604
904.392	18460
904.51	18384
904.627	18479
904.745	18536
904.863	18544
904.981	18304
905.098	18167
905.216	18125
905.334	18117
905.451	18163
905.569	18076
905.686	18201
905.803	18064
905.921	17916
906.038	18038
906.155	17897
906.272	17901
906.389	17958
906.506	17756
906.623	17726
906.74	17653
906.857	17600
906.974	17512
907.091	17703
907.208	17779
907.324	17733
907.441	17516
907.557	17448
907.674	17318
907.79	17261
907.907	17387
908.023	17455
908.139	17311
908.256	17383
908.372	17250
908.488	17296
908.604	17189
908.72	17060
908.836	17113
908.952	17060
909.068	17143
909.184	17216
909.3	17037
909.415	16999
909.531	17155
909.647	16873
909.762	16839
909.878	16759
909.993	16729
910.108	16847
910.224	16744
910.339	16801
910.454	16634
910.57	16694
910.685	16558
910.8	16793
910.915	16698
911.03	16596
911.145	16451
911.259	16413
911.374	16284
911.489	16223
911.604	16287
911.718	16166
911.833	16101
911.947	16105
912.062	15941
912.176	16101
912.291	16013
912.405	16109
912.519	16246
912.633	16303
912.748	16135
912.862	16090
912.976	16040
913.09	15835
913.204	15960
913.318	16074
913.431	16006
913.545	15979
913.659	15956
913.772	15854
913.886	15873
914	15739
914.113	15884
914.226	15968
914.34	15759
914.453	15641
914.566	15728
914.68	15694
914.793	15618
914.906	15477
915.019	15401
915.132	15329
915.245	15310
915.358	15302
915.47	15378
915.583	15310
915.696	15348
915.809	15416
915.921	15473
916.034	15245
916.146	15230
916.259	15184
916.371	15336
916.483	15283
916.595	15150
916.708	15192
916.82	15127
916.932	15104
917.044	15100
917.156	15077
917.268	14948
917.38	15097
917.491	15009
917.603	14990
917.715	15070
917.826	15066
917.938	14883
918.049	14830
918.161	14876
918.272	15081
918.384	15043
918.495	14941
918.606	14746
918.717	14735
918.828	14735
918.939	14762
919.05	14613
919.161	14716
919.272	14560
919.383	14568
919.494	14743
919.604	14979
919.715	14689
919.826	14518
919.936	14727
920.047	14823
920.157	14716
920.267	14823
920.378	14678
920.488	14670
920.598	14853
920.708	15005
920.818	14849
920.928	14743
921.038	15055
921.148	14929
921.258	14587
921.368	14514
921.477	14404
921.587	14412
921.697	14286
921.806	14366
921.916	14301
922.025	14142
922.134	14062
922.244	13989
922.353	14020
922.462	13947
922.571	13871
922.68	13742
922.789	13658
922.898	13727
923.007	13567
923.116	13761
923.224	13765
923.333	13632
923.442	13529
923.55	13605
923.659	13624
923.767	13662
923.876	13514
923.984	13647
924.092	13365
924.201	13483
924.309	13460
924.417	13407
924.525	13400
924.633	13407
924.741	14172
924.849	13213
924.956	13263
925.064	13171
925.172	13053
925.279	13168
925.387	13183
925.494	13095
925.602	13285
925.709	13103
925.816	13088
925.924	13019
926.031	13145
926.138	13027
926.245	13088
926.352	12989
926.459	13118
926.566	13110
926.673	13004
926.779	12787
926.886	12916
926.993	12768
927.099	12658
927.206	12639
927.312	12658
927.419	12764
927.525	12650
927.631	12658
927.737	12525
927.843	12528
927.95	12464
928.056	12452
928.162	12528
928.267	12540
928.373	13034
928.479	12616
928.585	12342
928.69	12410
928.796	12464
928.901	12338
929.007	12201
929.112	12369
929.218	12292
929.323	12323
929.428	12224
929.533	12380
929.638	12144
929.743	12205
929.848	12136
929.953	12079
930.058	12026
930.163	11901
930.267	11954
930.372	12091
930.477	11927
930.581	12053
930.685	11965
930.79	11771
930.894	11783
930.998	11748
931.103	11908
931.207	11551
931.311	11467
931.415	11334
931.519	11102
931.623	11098
