Data from test_V78500241_508.txt Node
Date: Fri Mar 25 15:13:23 CST 2022
User: usil
Spectrometer: V785-0024
Trigger mode: 0
Integration Time (sec): 4.000000E-1
Scans to average: 1
Nonlinearity correction enabled: false
Boxcar width: 0
Storing dark spectrum: false
XAxis mode: Wavelengths
Number of Pixels in Spectrum: 1024
>>>>>Begin Spectral Data<<<<<
801.071	27420
801.214	27325
801.356	27173
801.499	27070
801.641	26933
801.783	26902
801.926	26994
802.068	26899
802.211	26754
802.353	26769
802.496	26617
802.638	26598
802.78	26674
802.923	26549
803.065	26434
803.208	26415
803.35	26621
803.492	26644
803.635	26788
803.777	26663
803.919	26701
804.061	26940
804.204	26815
804.346	26754
804.488	26556
804.63	26708
804.773	26644
804.915	26792
805.057	26838
805.199	26857
805.341	26777
805.483	26823
805.626	26750
805.768	26731
805.91	26895
806.052	26857
806.194	26815
806.336	26971
806.478	26891
806.62	26823
806.762	26944
806.904	27135
807.046	27405
807.188	27165
807.33	27264
807.472	27291
807.614	27192
807.756	27211
807.898	27199
808.04	27055
808.182	27081
808.324	27077
808.465	27199
808.607	27142
808.749	27386
808.891	27492
809.033	27576
809.174	27523
809.316	27393
809.458	27515
809.6	27359
809.741	27488
809.883	27591
810.025	27671
810.166	27766
810.308	27778
810.45	27808
810.591	27816
810.733	27701
810.875	27545
811.016	27336
811.158	27332
811.299	27427
811.441	27637
811.582	27564
811.724	27462
811.865	27412
812.007	27401
812.148	27408
812.29	27348
812.431	27603
812.573	27827
812.714	27873
812.855	27903
812.997	28063
813.138	28196
813.279	28238
813.421	27983
813.562	27998
813.703	27816
813.845	27739
813.986	27386
814.127	27203
814.268	27039
814.41	27207
814.551	27123
814.692	27119
814.833	27096
814.974	27020
815.115	27028
815.256	27036
815.397	27104
815.539	27062
815.68	26940
815.821	26956
815.962	27070
816.103	26925
816.244	26678
816.385	26743
816.526	26621
816.666	26541
816.807	26385
816.948	26457
817.089	26488
817.23	26511
817.371	26381
817.512	26507
817.653	26366
817.793	26415
817.934	26438
818.075	26393
818.216	26400
818.356	26484
818.497	26199
818.638	26172
818.778	26145
818.919	26164
819.06	26077
819.2	26298
819.341	26564
819.481	26450
819.622	26583
819.762	26819
819.903	26682
820.043	26689
820.184	26602
820.324	26545
820.465	26511
820.605	26583
820.746	26389
820.886	26381
821.026	26598
821.167	26590
821.307	26537
821.447	26583
821.588	26492
821.728	26248
821.868	25970
822.008	25879
822.149	25875
822.289	25856
822.429	25628
822.569	25537
822.709	25719
822.849	25373
822.99	25343
823.13	25339
823.27	25308
823.41	25183
823.55	25129
823.69	25232
823.83	25107
823.97	25110
824.11	24954
824.25	24924
824.389	24924
824.529	25012
824.669	24962
824.809	25069
824.949	25000
825.089	25228
825.228	25065
825.368	24947
825.508	24970
825.648	24787
825.787	25019
825.927	24920
826.067	24707
826.206	24734
826.346	24852
826.485	24837
826.625	24806
826.765	25023
826.904	24943
827.044	24688
827.183	24642
827.323	24585
827.462	24726
827.601	24700
827.741	24521
827.88	24532
828.02	24475
828.159	24768
828.298	24700
828.437	24677
828.577	24570
828.716	24623
828.855	24540
828.994	24281
829.134	24247
829.273	24418
829.412	24346
829.551	24251
829.69	24285
829.829	24384
829.968	24388
830.107	24334
830.246	24224
830.385	24133
830.524	24247
830.663	24182
830.802	24117
830.941	23805
831.08	23927
831.219	23931
831.357	23882
831.496	24087
831.635	23897
831.774	23824
831.913	23813
832.051	23752
832.19	23600
832.329	23745
832.467	23691
832.606	23570
832.744	23691
832.883	23600
833.022	23554
833.16	23539
833.299	23604
833.437	23668
833.576	23649
833.714	23684
833.852	23707
833.991	23805
834.129	23695
834.267	23764
834.406	23634
834.544	23764
834.682	23741
834.821	23562
834.959	23752
835.097	23585
835.235	23813
835.373	23722
835.511	23722
835.65	23524
835.788	23570
835.926	23364
836.064	23326
836.202	23311
836.34	23497
836.478	23528
836.615	23440
836.753	23478
836.891	23566
837.029	23604
837.167	23459
837.305	23482
837.443	23376
837.58	23414
837.718	23505
837.856	23452
837.993	23258
838.131	23356
838.269	23307
838.406	23284
838.544	23200
838.681	22984
838.819	22961
838.956	22790
839.094	22771
839.231	22949
839.369	22854
839.506	23368
839.643	22961
839.781	22820
839.918	22736
840.055	22881
840.193	22900
840.33	22877
840.467	22679
840.604	22858
840.742	23067
840.879	22550
841.016	22698
841.153	22710
841.29	22824
841.427	22698
841.564	22843
841.701	22653
841.838	22786
841.975	22702
842.112	22668
842.249	22607
842.385	22599
842.522	22538
842.659	22466
842.796	22493
842.933	22478
843.069	22611
843.206	22493
843.343	22489
843.479	22542
843.616	22573
843.752	22306
843.889	22310
844.025	22447
844.162	22310
844.298	22447
844.435	22325
844.571	22303
844.708	22409
844.844	22360
844.98	22443
845.117	22436
845.253	22135
845.389	22207
845.525	22230
845.661	22173
845.798	22158
845.934	22181
846.07	21991
846.206	22051
846.342	22188
846.478	21998
846.614	21861
846.75	21690
846.886	21766
847.022	21823
847.158	21743
847.294	21736
847.429	21915
847.565	21789
847.701	22067
847.837	21408
847.972	21595
848.108	21606
848.244	21622
848.379	21378
848.515	21389
848.65	21313
848.786	21291
848.921	21340
849.057	21481
849.192	21329
849.328	21374
849.463	21386
849.598	21237
849.734	21291
849.869	21245
850.004	21142
850.14	21203
850.275	21119
850.41	21066
850.545	21146
850.68	21005
850.815	21165
850.95	21020
851.085	21268
851.22	21211
851.355	21119
851.49	21192
851.625	21039
851.76	21184
851.895	20956
852.03	20990
852.165	21020
852.299	21131
852.434	21188
852.569	21165
852.703	21199
852.838	21184
852.973	21336
853.107	21287
853.242	21070
853.376	20849
853.511	20819
853.645	20906
853.78	21001
853.914	21089
854.048	20819
854.183	20975
854.317	21047
854.451	21142
854.585	20906
854.72	20849
854.854	20990
854.988	20853
855.122	20963
855.256	20781
855.39	20872
855.524	21013
855.658	20975
855.792	20895
855.926	21039
856.06	20944
856.194	20982
856.327	20914
856.461	20842
856.595	20876
856.729	21032
856.862	21100
856.996	20948
857.13	21028
857.263	21001
857.397	21055
857.53	20902
857.664	20956
857.797	21013
857.931	21036
858.064	21051
858.197	21112
858.331	20876
858.464	20891
858.597	20826
858.731	20956
858.864	20971
858.997	20857
859.13	20902
859.263	20937
859.396	21009
859.529	20872
859.662	20853
859.795	20883
859.928	20990
860.061	21108
860.194	21112
860.327	21169
860.46	21013
860.592	21024
860.725	21055
860.858	20975
860.99	20971
861.123	20933
861.256	20781
861.388	20921
861.521	21660
861.653	20823
861.786	20773
861.918	20697
862.05	20845
862.183	20941
862.315	20842
862.447	21001
862.58	20921
862.712	20724
862.844	20663
862.976	20769
863.108	20754
863.24	20921
863.372	20697
863.504	20663
863.636	20552
863.768	20579
863.9	20674
864.032	20712
864.164	20644
864.296	20613
864.428	20815
864.559	20674
864.691	20701
864.823	20731
864.954	20739
865.086	20705
865.217	20651
865.349	20438
865.48	20518
865.612	20514
865.743	20682
865.875	20450
866.006	20442
866.137	20545
866.269	20583
866.4	20522
866.531	20545
866.662	20434
866.793	20552
866.924	20499
867.055	20465
867.186	20423
867.317	20484
867.448	20514
867.579	20389
867.71	20450
867.841	20507
867.972	20469
868.103	20419
868.233	20533
868.364	20545
868.495	20594
868.625	20686
868.756	20883
868.886	20735
869.017	20674
869.147	20727
869.278	20819
869.408	20804
869.539	20781
869.669	20872
869.799	20796
869.929	20944
870.06	20762
870.19	21112
870.32	21051
870.45	21085
870.58	20994
870.71	21195
870.84	21176
870.97	21116
871.1	21108
871.23	21306
871.36	21359
871.489	21176
871.619	21321
871.749	21268
871.879	21405
872.008	21473
872.138	21321
872.267	21283
872.397	21241
872.526	21089
872.656	21161
872.785	21264
872.915	21192
873.044	21370
873.173	21393
873.303	21447
873.432	21424
873.561	21481
873.69	21279
873.819	21329
873.948	21310
874.077	21412
874.206	21348
874.335	21439
874.464	21511
874.593	21637
874.722	21545
874.851	21656
874.979	21644
875.108	21686
875.237	21576
875.365	21447
875.494	21618
875.623	21663
875.751	21500
875.88	21576
876.008	21823
876.136	21778
876.265	21956
876.393	22147
876.521	22025
876.65	22105
876.778	22017
876.906	22002
877.034	21895
877.162	21873
877.29	21884
877.418	21903
877.546	21949
877.674	21888
877.802	21857
877.93	21991
878.058	21907
878.185	21865
878.313	21907
878.441	21956
878.568	21915
878.696	21888
878.824	22021
878.951	22093
879.079	22116
879.206	22246
879.333	22074
879.461	22101
879.588	22017
879.715	22082
879.842	22219
879.97	22017
880.097	21800
880.224	21743
880.351	21819
880.478	21869
880.605	21793
880.732	21759
880.859	21987
880.986	21812
881.112	21762
881.239	21637
881.366	21496
881.493	21374
881.619	21443
881.746	21435
881.872	21298
881.999	21344
882.125	21340
882.252	21424
882.378	21336
882.505	21325
882.631	21173
882.757	21108
882.883	21070
883.01	21207
883.136	20960
883.262	20895
883.388	20975
883.514	21203
883.64	21096
883.766	20929
883.892	20834
884.018	20883
884.143	21032
884.269	21020
884.395	20796
884.52	20705
884.646	20602
884.772	20549
884.897	20522
885.023	20651
885.148	20743
885.274	20632
885.399	20838
885.524	20796
885.65	20724
885.775	20720
885.9	20674
886.025	20845
886.15	20785
886.275	20743
886.4	20575
886.525	20625
886.65	20629
886.775	20621
886.9	20689
887.025	20819
887.149	20613
887.274	20461
887.399	20476
887.523	20476
887.648	20377
887.773	20343
887.897	20518
888.021	20507
888.146	20370
888.27	20564
888.395	20507
888.519	20457
888.643	20495
888.767	20537
888.891	20396
889.015	20294
889.139	20400
889.263	20214
889.387	20301
889.511	20499
889.635	20438
889.759	20176
889.883	20142
890.006	20199
890.13	20431
890.254	20161
890.377	20084
890.501	20001
890.624	19925
890.748	20046
890.871	20008
890.995	19727
891.118	19833
891.241	19879
891.364	19811
891.488	20005
891.611	20012
891.734	19879
891.857	19879
891.98	19860
892.103	19913
892.226	19746
892.349	19788
892.471	19639
892.594	19689
892.717	19772
892.839	19601
892.962	19575
893.085	19769
893.207	19791
893.33	19632
893.452	19681
893.575	19898
893.697	19826
893.819	19814
893.941	19860
894.064	19803
894.186	19685
894.308	19719
894.43	19860
894.552	19936
894.674	19860
894.796	19594
894.918	19719
895.04	19704
895.161	19883
895.283	19803
895.405	19693
895.526	19670
895.648	19689
895.769	19799
895.891	19890
896.012	19845
896.134	19761
896.255	19734
896.376	19715
896.498	19757
896.619	19772
896.74	19845
896.861	19811
896.982	20065
897.103	20126
897.224	20027
897.345	20058
897.466	19982
897.587	19959
897.708	20092
897.828	20035
897.949	19944
898.07	19822
898.19	19890
898.311	20035
898.431	19928
898.552	20054
898.672	20039
898.792	20122
898.913	19974
899.033	19940
899.153	19734
899.273	19647
899.393	19803
899.513	19814
899.633	19765
899.753	19784
899.873	19677
899.993	19757
900.113	19715
900.232	19742
900.352	19552
900.472	19552
900.591	19483
900.711	19506
900.83	19400
900.95	19578
901.069	19514
901.189	19403
901.308	19080
901.427	19050
901.546	19103
901.665	19099
901.784	19099
901.904	19000
902.023	18871
902.141	18764
902.26	18665
902.379	18798
902.498	18673
902.617	18559
902.735	18623
902.854	18612
902.973	18566
903.091	18376
903.21	18308
903.328	18277
903.446	18190
903.565	18076
903.683	18152
903.801	17874
903.919	18091
904.038	17992
904.156	17923
904.274	17977
904.392	17824
904.51	17828
904.627	17790
904.745	17885
904.863	17847
904.981	17726
905.098	17585
905.216	17490
905.334	17676
905.451	17566
905.569	17638
905.686	17608
905.803	17627
905.921	17288
906.038	17421
906.155	17322
906.272	17159
906.389	17269
906.506	17162
906.623	17075
906.74	17151
906.857	16965
906.974	17056
907.091	17140
907.208	17102
907.324	17162
907.441	17075
907.557	16820
907.674	16771
907.79	16687
907.907	16733
908.023	16854
908.139	16759
908.256	16710
908.372	16626
908.488	16649
908.604	16569
908.72	16580
908.836	16588
908.952	16493
909.068	16580
909.184	16603
909.3	16451
909.415	16596
909.531	16550
909.647	16253
909.762	16204
909.878	16185
909.993	16158
910.108	16310
910.224	16204
910.339	16162
910.454	16120
910.57	16002
910.685	15987
910.8	16207
910.915	16090
911.03	15998
911.145	15937
911.259	15838
911.374	15838
911.489	15789
911.604	15675
911.718	15519
911.833	15564
911.947	15530
912.062	15454
912.176	15679
912.291	15698
912.405	15458
912.519	15709
912.633	15857
912.748	15633
912.862	15477
912.976	15412
913.09	15192
913.204	15348
913.318	15416
913.431	15378
913.545	15485
913.659	15534
913.772	15367
913.886	15199
914	15154
914.113	15317
914.226	15294
914.34	15268
914.453	15188
914.566	15214
914.68	15097
914.793	15058
914.906	14990
915.019	14777
915.132	14754
915.245	14880
915.358	14788
915.47	14796
915.583	14800
915.696	14864
915.809	14861
915.921	14910
916.034	14819
916.146	14731
916.259	14876
916.371	14864
916.483	14727
916.595	14625
916.708	14720
916.82	14640
916.932	14594
917.044	14606
917.156	14537
917.268	14457
917.38	14522
917.491	14427
917.603	14415
917.715	14594
917.826	14526
917.938	14412
918.049	14320
918.161	14450
918.272	14450
918.384	14552
918.495	14400
918.606	14267
918.717	14168
918.828	14351
918.939	14355
919.05	14134
919.161	14248
919.272	14012
919.383	14119
919.494	14259
919.604	14454
919.715	14278
919.826	14214
919.936	14168
920.047	14259
920.157	14221
920.267	14328
920.378	14180
920.488	14210
920.598	14423
920.708	14514
920.818	14355
920.928	14271
921.038	14545
921.148	14427
921.258	14237
921.368	14172
921.477	13932
921.587	13970
921.697	13811
921.806	14016
921.916	13833
922.025	13578
922.134	13514
922.244	13544
922.353	13746
922.462	13502
922.571	13415
922.68	13373
922.789	13278
922.898	13274
923.007	13217
923.116	13343
923.224	13316
923.333	13168
923.442	13168
923.55	13103
923.659	13198
923.767	13202
923.876	13103
923.984	13168
924.092	12905
924.201	13023
924.309	12985
924.417	12989
924.525	12928
924.633	12970
924.741	13689
924.849	12825
924.956	12852
925.064	12745
925.172	12662
925.279	12696
925.387	12673
925.494	12715
925.602	12894
925.709	12711
925.816	12658
925.924	12639
926.031	12764
926.138	12684
926.245	12658
926.352	12547
926.459	12722
926.566	12673
926.673	12532
926.779	12483
926.886	12429
926.993	12319
927.099	12319
927.206	12239
927.312	12270
927.419	12380
927.525	12327
927.631	12346
927.737	12258
927.843	12095
927.95	12026
928.056	12106
928.162	12083
928.267	12095
928.373	12787
928.479	12129
928.585	12019
928.69	12083
928.796	12095
928.901	12045
929.007	11927
929.112	12064
929.218	12034
929.323	11889
929.428	11950
929.533	11969
929.638	11836
929.743	11798
929.848	11851
929.953	11821
930.058	11745
930.163	11642
930.267	11532
930.372	11623
930.477	11516
930.581	11748
930.685	11543
930.79	11433
930.894	11505
930.998	11467
931.103	11592
931.207	11143
931.311	11147
931.415	10987
931.519	10866
931.623	10820
