Data from test_V78500241_3201.txt Node
Date: Fri Mar 25 15:32:08 CST 2022
User: usil
Spectrometer: V785-0024
Trigger mode: 0
Integration Time (sec): 4.000000E-1
Scans to average: 1
Nonlinearity correction enabled: false
Boxcar width: 0
Storing dark spectrum: false
XAxis mode: Wavelengths
Number of Pixels in Spectrum: 1024
>>>>>Begin Spectral Data<<<<<
801.071	26990
801.214	26967
801.356	26830
801.499	26682
801.641	26488
801.783	26560
801.926	26651
802.068	26495
802.211	26480
802.353	26412
802.496	26138
802.638	26092
802.78	26195
802.923	26176
803.065	25936
803.208	25986
803.35	26069
803.492	26347
803.635	26324
803.777	26210
803.919	26332
804.061	26575
804.204	26328
804.346	26195
804.488	26149
804.63	26176
804.773	26130
804.915	26240
805.057	26377
805.199	26237
805.341	26248
805.483	26480
805.626	26370
805.768	26218
805.91	26256
806.052	26358
806.194	26191
806.336	26503
806.478	26370
806.62	26229
806.762	26408
806.904	26823
807.046	26739
807.188	26910
807.33	26845
807.472	26811
807.614	26746
807.756	26845
807.898	26693
808.04	26648
808.182	26503
808.324	26636
808.465	26720
808.607	26921
808.749	26994
808.891	27131
809.033	27051
809.174	26914
809.316	26944
809.458	26918
809.6	26876
809.741	27203
809.883	27070
810.025	27249
810.166	27233
810.308	27260
810.45	27268
810.591	27218
810.733	27055
810.875	27028
811.016	26918
811.158	26880
811.299	27138
811.441	27146
811.582	27108
811.724	26925
811.865	26880
812.007	26971
812.148	26826
812.29	27089
812.431	27146
812.573	27272
812.714	27435
812.855	27374
812.997	27530
813.138	27580
813.279	27583
813.421	27431
813.562	27302
813.703	27165
813.845	27199
813.986	26773
814.127	26735
814.268	26750
814.41	26606
814.551	26511
814.692	26682
814.833	26587
814.974	26473
815.115	26526
815.256	26625
815.397	26461
815.539	26571
815.68	26317
815.821	26324
815.962	26415
816.103	26267
816.244	26138
816.385	26168
816.526	26168
816.666	26050
816.807	25970
816.948	25890
817.089	25959
817.23	25906
817.371	25807
817.512	25791
817.653	25776
817.793	25750
817.934	25883
818.075	25803
818.216	25849
818.356	25761
818.497	25795
818.638	25624
818.778	25746
818.919	25578
819.06	25586
819.2	25784
819.341	25879
819.481	25902
819.622	25986
819.762	26218
819.903	26206
820.043	26111
820.184	26020
820.324	25894
820.465	25936
820.605	25932
820.746	25898
820.886	25772
821.026	25917
821.167	25928
821.307	25925
821.447	25928
821.588	25807
821.728	25681
821.868	25540
822.008	25362
822.149	25384
822.289	25270
822.429	25015
822.569	25012
822.709	25084
822.849	24859
822.99	24901
823.13	24825
823.27	24806
823.41	24795
823.55	24551
823.69	24821
823.83	24677
823.97	24589
824.11	24346
824.25	24445
824.389	24509
824.529	24639
824.669	24384
824.809	24441
824.949	24631
825.089	24612
825.228	24532
825.368	24300
825.508	24273
825.648	24289
825.787	24319
825.927	24353
826.067	24369
826.206	24304
826.346	24464
826.485	24433
826.625	24319
826.765	24505
826.904	24323
827.044	24220
827.183	24121
827.323	24102
827.462	24129
827.601	24030
827.741	24057
827.88	24144
828.02	23901
828.159	23958
828.298	24121
828.437	24121
828.577	23946
828.716	24213
828.855	23977
828.994	23737
829.134	23874
829.273	23863
829.412	23638
829.551	23665
829.69	23783
829.829	23760
829.968	23855
830.107	23783
830.246	23832
830.385	23798
830.524	23687
830.663	23524
830.802	23493
830.941	23288
831.08	23372
831.219	23436
831.357	23402
831.496	23676
831.635	23303
831.774	23429
831.913	23269
832.051	23223
832.19	23273
832.329	23227
832.467	23159
832.606	23075
832.744	23075
832.883	23162
833.022	22999
833.16	23086
833.299	23048
833.437	23151
833.576	23151
833.714	23094
833.852	23235
833.991	23121
834.129	23220
834.267	23170
834.406	23102
834.544	23208
834.682	23136
834.821	22980
834.959	23185
835.097	23124
835.235	23033
835.373	23121
835.511	23113
835.65	22919
835.788	23010
835.926	22873
836.064	22752
836.202	22793
836.34	22965
836.478	23094
836.615	22957
836.753	22980
836.891	22908
837.029	23124
837.167	22953
837.305	22919
837.443	22919
837.58	22843
837.718	22919
837.856	22763
837.993	22839
838.131	22881
838.269	22679
838.406	22759
838.544	22523
838.681	22523
838.819	22462
838.956	22276
839.094	22360
839.231	22253
839.369	22535
839.506	22702
839.643	22607
839.781	22417
839.918	22204
840.055	22333
840.193	22234
840.33	22234
840.467	22238
840.604	22341
840.742	22470
840.879	22238
841.016	22287
841.153	22090
841.29	22329
841.427	22154
841.564	22306
841.701	22204
841.838	22215
841.975	22177
842.112	22192
842.249	22109
842.385	22025
842.522	22154
842.659	22162
842.796	22101
842.933	22029
843.069	21968
843.206	21934
843.343	22055
843.479	21922
843.616	21994
843.752	21732
843.889	21732
844.025	21899
844.162	21759
844.298	21911
844.435	21747
844.571	21694
844.708	21827
844.844	21888
844.98	21964
845.117	21907
845.253	21671
845.389	21618
845.525	21644
845.661	21660
845.798	21507
845.934	21583
846.07	21534
846.206	21599
846.342	21709
846.478	21504
846.614	21420
846.75	21268
846.886	21211
847.022	21405
847.158	21321
847.294	21302
847.429	21222
847.565	21138
847.701	21370
847.837	21036
847.972	20902
848.108	21096
848.244	21077
848.379	21013
848.515	20800
848.65	20819
848.786	20807
848.921	20910
849.057	20933
849.192	21001
849.328	20944
849.463	20853
849.598	20883
849.734	20769
849.869	20712
850.004	20625
850.14	20632
850.275	20541
850.41	20564
850.545	20499
850.68	20571
850.815	20735
850.95	20712
851.085	20838
851.22	20777
851.355	20609
851.49	20602
851.625	20659
851.76	20667
851.895	20575
852.03	20636
852.165	20712
852.299	20480
852.434	20727
852.569	20716
852.703	20632
852.838	20724
852.973	20712
853.107	20674
853.242	20575
853.376	20514
853.511	20298
853.645	20408
853.78	20556
853.914	20336
854.048	20412
854.183	20480
854.317	20484
854.451	20636
854.585	20549
854.72	20389
854.854	20492
854.988	20434
855.122	20457
855.256	20278
855.39	20518
855.524	20522
855.658	20541
855.792	20469
855.926	20537
856.06	20537
856.194	20488
856.327	20415
856.461	20381
856.595	20488
856.729	20533
856.862	20476
856.996	20457
857.13	20533
857.263	20518
857.397	20606
857.53	20446
857.664	20541
857.797	20358
857.931	20598
858.064	20564
858.197	20598
858.331	20484
858.464	20339
858.597	20328
858.731	20412
858.864	20461
858.997	20492
859.13	20507
859.263	20480
859.396	20575
859.529	20362
859.662	20396
859.795	20370
859.928	20495
860.061	20743
860.194	20590
860.327	20442
860.46	20336
860.592	20564
860.725	20564
860.858	20617
860.99	20431
861.123	20461
861.256	20328
861.388	20415
861.521	20994
861.653	20290
861.786	20259
861.918	20248
862.05	20442
862.183	20336
862.315	20381
862.447	20415
862.58	20347
862.712	20183
862.844	20069
862.976	20362
863.108	20218
863.24	20533
863.372	20157
863.504	20153
863.636	20248
863.768	20191
863.9	20096
864.032	20172
864.164	20134
864.296	20161
864.428	20343
864.559	20134
864.691	20157
864.823	20145
864.954	20183
865.086	20168
865.217	20096
865.349	20012
865.48	19997
865.612	19959
865.743	20286
865.875	20069
866.006	20077
866.137	20008
866.269	20142
866.4	20058
866.531	20024
866.662	20058
866.793	19963
866.924	19997
867.055	20065
867.186	20084
867.317	20043
867.448	20039
867.579	20027
867.71	19833
867.841	19997
867.972	20142
868.103	20161
868.233	20077
868.364	19974
868.495	20221
868.625	20183
868.756	20298
868.886	20183
869.017	20263
869.147	20385
869.278	20473
869.408	20385
869.539	20233
869.669	20301
869.799	20324
869.929	20476
870.06	20423
870.19	20549
870.32	20404
870.45	20659
870.58	20651
870.71	20899
870.84	20861
870.97	20720
871.1	20743
871.23	20845
871.36	20842
871.489	20804
871.619	20838
871.749	20796
871.879	20910
872.008	21089
872.138	20891
872.267	20872
872.397	20716
872.526	20678
872.656	20701
872.785	20804
872.915	20819
873.044	20902
873.173	20861
873.303	20777
873.432	20998
873.561	20994
873.69	21020
873.819	20906
873.948	20887
874.077	20944
874.206	20872
874.335	20967
874.464	21024
874.593	21112
874.722	21028
874.851	21161
874.979	21131
875.108	21188
875.237	21119
875.365	21032
875.494	21142
875.623	21142
875.751	21199
875.88	21146
876.008	21252
876.136	21302
876.265	21545
876.393	21778
876.521	21633
876.65	21648
876.778	21641
876.906	21389
877.034	21515
877.162	21534
877.29	21374
877.418	21530
877.546	21519
877.674	21424
877.802	21553
877.93	21576
878.058	21485
878.185	21378
878.313	21538
878.441	21370
878.568	21287
878.696	21424
878.824	21587
878.951	21644
879.079	21698
879.206	21671
879.333	21610
879.461	21477
879.588	21660
879.715	21660
879.842	21739
879.97	21603
880.097	21310
880.224	21252
880.351	21332
880.478	21359
880.605	21310
880.732	21287
880.859	21523
880.986	21310
881.112	21405
881.239	21226
881.366	21024
881.493	21039
881.619	20872
881.746	20967
881.872	20887
881.999	20826
882.125	20960
882.252	20861
882.378	20876
882.505	21138
882.631	20720
882.757	20598
882.883	20655
883.01	20480
883.136	20549
883.262	20537
883.388	20389
883.514	20708
883.64	20674
883.766	20530
883.892	20370
884.018	20396
884.143	20617
884.269	20556
884.395	20301
884.52	20256
884.646	20473
884.772	20153
884.897	20115
885.023	20237
885.148	20404
885.274	20454
885.399	20362
885.524	20298
885.65	20233
885.775	20267
885.9	20138
886.025	20267
886.15	20446
886.275	20244
886.4	20126
886.525	20100
886.65	20199
886.775	20153
886.9	20389
887.025	20438
887.149	20233
887.274	20046
887.399	20054
887.523	19921
887.648	19906
887.773	19978
887.897	20237
888.021	19978
888.146	20092
888.27	20130
888.395	20103
888.519	20088
888.643	20092
888.767	20081
888.891	19875
889.015	19814
889.139	19875
889.263	19917
889.387	19978
889.511	20103
889.635	19944
889.759	19890
889.883	19723
890.006	19814
890.13	20035
890.254	19852
890.377	19852
890.501	19696
890.624	19582
890.748	19666
890.871	19533
890.995	19403
891.118	19373
891.241	19392
891.364	19468
891.488	19590
891.611	19403
891.734	19407
891.857	19548
891.98	19403
892.103	19533
892.226	19358
892.349	19358
892.471	19171
892.594	19362
892.717	19506
892.839	19457
892.962	19312
893.085	19392
893.207	19426
893.33	19175
893.452	19369
893.575	19358
893.697	19232
893.819	19635
893.941	19537
894.064	19396
894.186	19384
894.308	19255
894.43	19373
894.552	19453
894.674	19445
894.796	19221
894.918	19369
895.04	19327
895.161	19510
895.283	19293
895.405	19377
895.526	19430
895.648	19403
895.769	19301
895.891	19327
896.012	19419
896.134	19324
896.255	19335
896.376	19308
896.498	19282
896.619	19445
896.74	19327
896.861	19445
896.982	19799
897.103	19906
897.224	19620
897.345	19582
897.466	19518
897.587	19537
897.708	19639
897.828	19685
897.949	19567
898.07	19491
898.19	19483
898.311	19586
898.431	19556
898.552	19464
898.672	19731
898.792	19670
898.913	19590
899.033	19533
899.153	19559
899.273	19228
899.393	19293
899.513	19362
899.633	19365
899.753	19358
899.873	19346
899.993	19411
900.113	19285
900.232	19270
900.352	19244
900.472	19228
900.591	19133
900.711	19221
900.83	19168
900.95	19148
901.069	19282
901.189	19103
901.308	18802
901.427	18719
901.546	18741
901.665	18810
901.784	18760
901.904	18589
902.023	18464
902.141	18350
902.26	18350
902.379	18311
902.498	18251
902.617	18220
902.735	18346
902.854	18144
902.973	18201
903.091	17916
903.21	18015
903.328	17954
903.446	17824
903.565	17767
903.683	17733
903.801	17611
903.919	17718
904.038	17554
904.156	17600
904.274	17600
904.392	17486
904.51	17532
904.627	17509
904.745	17486
904.863	17554
904.981	17288
905.098	17086
905.216	17296
905.334	17204
905.451	17231
905.569	17136
905.686	17239
905.803	17220
905.921	16911
906.038	17071
906.155	16908
906.272	16927
906.389	16930
906.506	16645
906.623	16736
906.74	16774
906.857	16664
906.974	16611
907.091	16828
907.208	16854
907.324	16778
907.441	16694
907.557	16417
907.674	16455
907.79	16382
907.907	16516
908.023	16558
908.139	16497
908.256	16466
908.372	16398
908.488	16310
908.604	16268
908.72	16299
908.836	16154
908.952	16219
909.068	16230
909.184	16295
909.3	16131
909.415	16253
909.531	16211
909.647	15861
909.762	15876
909.878	15884
909.993	15934
910.108	15762
910.224	15823
910.339	15835
910.454	15732
910.57	15717
910.685	15595
910.8	15975
910.915	15770
911.03	15717
911.145	15610
911.259	15545
911.374	15466
911.489	15477
911.604	15344
911.718	15306
911.833	15310
911.947	15233
912.062	15135
912.176	15279
912.291	15211
912.405	15348
912.519	15469
912.633	15507
912.748	15298
912.862	15321
912.976	15062
913.09	14891
913.204	14990
913.318	15203
913.431	15146
913.545	15173
913.659	15195
913.772	15028
913.886	14960
914	14899
914.113	14906
914.226	14979
914.34	14971
914.453	14781
914.566	14872
914.68	14800
914.793	14800
914.906	14545
915.019	14533
915.132	14446
915.245	14526
915.358	14556
915.47	14438
915.583	14499
915.696	14590
915.809	14606
915.921	14621
916.034	14469
916.146	14427
916.259	14404
916.371	14545
916.483	14560
916.595	14347
916.708	14385
916.82	14484
916.932	14457
917.044	14507
917.156	14271
917.268	14153
917.38	14206
917.491	14225
917.603	14225
917.715	14180
917.826	14362
917.938	14199
918.049	14046
918.161	14195
918.272	14195
918.384	14290
918.495	14050
918.606	13906
918.717	13856
918.828	13936
918.939	13982
919.05	13906
919.161	14008
919.272	13655
919.383	13803
919.494	14046
919.604	14107
919.715	13932
919.826	13890
919.936	13883
920.047	14027
920.157	13951
920.267	14157
920.378	13982
920.488	13833
920.598	14092
920.708	14187
920.818	14043
920.928	14111
921.038	14252
921.148	14168
921.258	13909
921.368	13757
921.477	13727
921.587	13677
921.697	13616
921.806	13662
921.916	13556
922.025	13426
922.134	13335
922.244	13426
922.353	13358
922.462	13164
922.571	13225
922.68	12970
922.789	12996
922.898	12993
923.007	12932
923.116	12981
923.224	12909
923.333	12935
923.442	12821
923.55	12810
923.659	12856
923.767	12825
923.876	12627
923.984	12924
924.092	12654
924.201	12776
924.309	12753
924.417	12798
924.525	12665
924.633	12734
924.741	13575
924.849	12475
924.956	12608
925.064	12528
925.172	12369
925.279	12418
925.387	12456
925.494	12342
925.602	12582
925.709	12399
925.816	12315
925.924	12376
926.031	12506
926.138	12380
926.245	12456
926.352	12258
926.459	12361
926.566	12429
926.673	12365
926.779	12201
926.886	12186
926.993	12057
927.099	12045
927.206	11999
927.312	11980
927.419	12114
927.525	11939
927.631	12076
927.737	11931
927.843	11847
927.95	11794
928.056	11790
928.162	11878
928.267	11863
928.373	12506
928.479	11893
928.585	11676
928.69	11893
928.796	11874
928.901	11718
929.007	11543
929.112	11767
929.218	11710
929.323	11627
929.428	11524
929.533	11653
929.638	11482
929.743	11581
929.848	11615
929.953	11505
930.058	11486
930.163	11265
930.267	11299
930.372	11440
930.477	11220
930.581	11524
930.685	11254
930.79	11128
930.894	11166
930.998	11117
931.103	11353
931.207	10904
931.311	10805
931.415	10843
931.519	10596
931.623	10584
