Data from test_V78500241_2950.txt Node
Date: Fri Mar 25 15:30:24 CST 2022
User: usil
Spectrometer: V785-0024
Trigger mode: 0
Integration Time (sec): 4.000000E-1
Scans to average: 1
Nonlinearity correction enabled: false
Boxcar width: 0
Storing dark spectrum: false
XAxis mode: Wavelengths
Number of Pixels in Spectrum: 1024
>>>>>Begin Spectral Data<<<<<
801.071	27218
801.214	26963
801.356	26815
801.499	26819
801.641	26716
801.783	26678
801.926	26609
802.068	26804
802.211	26640
802.353	26564
802.496	26301
802.638	26328
802.78	26191
802.923	26157
803.065	26202
803.208	26298
803.35	26214
803.492	26465
803.635	26396
803.777	26305
803.919	26408
804.061	26724
804.204	26465
804.346	26446
804.488	26415
804.63	26377
804.773	26298
804.915	26415
805.057	26434
805.199	26408
805.341	26469
805.483	26587
805.626	26549
805.768	26427
805.91	26609
806.052	26560
806.194	26549
806.336	26644
806.478	26545
806.62	26495
806.762	26640
806.904	26762
807.046	27058
807.188	26937
807.33	26944
807.472	27020
807.614	26937
807.756	26781
807.898	26674
808.04	26815
808.182	26659
808.324	26746
808.465	26655
808.607	26872
808.749	26937
808.891	27169
809.033	27310
809.174	27096
809.316	27108
809.458	27108
809.6	27032
809.741	27055
809.883	27382
810.025	27355
810.166	27492
810.308	27325
810.45	27340
810.591	27268
810.733	27142
810.875	27195
811.016	27165
811.158	26994
811.299	27321
811.441	27439
811.582	27256
811.724	27119
811.865	27070
812.007	27081
812.148	27142
812.29	27157
812.431	27214
812.573	27325
812.714	27469
812.855	27633
812.997	27572
813.138	27895
813.279	27717
813.421	27606
813.562	27580
813.703	27310
813.845	27226
813.986	26861
814.127	26994
814.268	26754
814.41	26731
814.551	26849
814.692	26834
814.833	26754
814.974	26693
815.115	26765
815.256	26773
815.397	26488
815.539	26632
815.68	26739
815.821	26651
815.962	26484
816.103	26404
816.244	26526
816.385	26248
816.526	26317
816.666	26229
816.807	26096
816.948	26077
817.089	26164
817.23	26081
817.371	26001
817.512	25997
817.653	25959
817.793	25974
817.934	25978
818.075	26001
818.216	26031
818.356	26054
818.497	25906
818.638	25635
818.778	25795
818.919	25772
819.06	25807
819.2	25841
819.341	26001
819.481	25921
819.622	26157
819.762	26172
819.903	26199
820.043	26046
820.184	26145
820.324	26187
820.465	26111
820.605	25989
820.746	26161
820.886	25917
821.026	26073
821.167	25959
821.307	26050
821.447	25925
821.588	25856
821.728	25826
821.868	25605
822.008	25392
822.149	25582
822.289	25457
822.429	25320
822.569	25152
822.709	25228
822.849	25069
822.99	24970
823.13	24882
823.27	24882
823.41	24749
823.55	24604
823.69	24791
823.83	24692
823.97	24696
824.11	24517
824.25	24513
824.389	24483
824.529	24505
824.669	24635
824.809	24802
824.949	24631
825.089	24665
825.228	24635
825.368	24486
825.508	24483
825.648	24418
825.787	24502
825.927	24467
826.067	24494
826.206	24498
826.346	24448
826.485	24483
826.625	24410
826.765	24380
826.904	24441
827.044	24171
827.183	24296
827.323	24251
827.462	24308
827.601	24167
827.741	24095
827.88	24277
828.02	24003
828.159	24129
828.298	24144
828.437	24072
828.577	24144
828.716	24216
828.855	24136
828.994	23798
829.134	23878
829.273	23927
829.412	23836
829.551	23794
829.69	23901
829.829	23710
829.968	23885
830.107	23889
830.246	23882
830.385	23737
830.524	23794
830.663	23695
830.802	23611
830.941	23562
831.08	23452
831.219	23444
831.357	23410
831.496	23672
831.635	23471
831.774	23379
831.913	23398
832.051	23227
832.19	23124
832.329	23296
832.467	23185
832.606	23041
832.744	22976
832.883	23117
833.022	23109
833.16	23083
833.299	23174
833.437	23132
833.576	23254
833.714	23037
833.852	23162
833.991	23246
834.129	23318
834.267	23254
834.406	23216
834.544	23273
834.682	23200
834.821	23109
834.959	23356
835.097	23140
835.235	23220
835.373	23071
835.511	23056
835.65	23052
835.788	23181
835.926	22961
836.064	22858
836.202	22862
836.34	22953
836.478	23075
836.615	22968
836.753	22999
836.891	23056
837.029	23083
837.167	22991
837.305	22991
837.443	22923
837.58	22793
837.718	22987
837.856	22965
837.993	22839
838.131	22934
838.269	22641
838.406	22843
838.544	22687
838.681	22478
838.819	22447
838.956	22318
839.094	22337
839.231	22542
839.369	22436
839.506	22809
839.643	22569
839.781	22356
839.918	22329
840.055	22291
840.193	22249
840.33	22272
840.467	22162
840.604	22440
840.742	22508
840.879	22192
841.016	22150
841.153	22010
841.29	22504
841.427	22303
841.564	22249
841.701	22211
841.838	22226
841.975	22253
842.112	22238
842.249	22128
842.385	22097
842.522	22325
842.659	22044
842.796	22029
842.933	21941
843.069	22010
843.206	21956
843.343	22006
843.479	21975
843.616	21907
843.752	21774
843.889	21793
844.025	21884
844.162	21766
844.298	21911
844.435	21778
844.571	21682
844.708	21831
844.844	21831
844.98	21945
845.117	21857
845.253	21705
845.389	21728
845.525	21698
845.661	21595
845.798	21523
845.934	21603
846.07	21591
846.206	21576
846.342	21637
846.478	21443
846.614	21378
846.75	21408
846.886	21199
847.022	21325
847.158	21332
847.294	21321
847.429	21336
847.565	21294
847.701	21382
847.837	20960
847.972	21062
848.108	21146
848.244	21036
848.379	20910
848.515	20975
848.65	20823
848.786	20891
848.921	20910
849.057	20868
849.192	21047
849.328	20845
849.463	20845
849.598	20815
849.734	20823
849.869	20762
850.004	20644
850.14	20621
850.275	20670
850.41	20533
850.545	20446
850.68	20571
850.815	20689
850.95	20720
851.085	20937
851.22	20792
851.355	20621
851.49	20457
851.625	20613
851.76	20689
851.895	20564
852.03	20469
852.165	20644
852.299	20598
852.434	20743
852.569	20648
852.703	20613
852.838	20727
852.973	20648
853.107	20705
853.242	20560
853.376	20476
853.511	20412
853.645	20431
853.78	20530
853.914	20389
854.048	20503
854.183	20438
854.317	20488
854.451	20800
854.585	20511
854.72	20488
854.854	20518
854.988	20385
855.122	20431
855.256	20374
855.39	20381
855.524	20488
855.658	20469
855.792	20434
855.926	20488
856.06	20484
856.194	20499
856.327	20442
856.461	20408
856.595	20423
856.729	20358
856.862	20465
856.996	20564
857.13	20522
857.263	20621
857.397	20606
857.53	20499
857.664	20545
857.797	20549
857.931	20454
858.064	20484
858.197	20609
858.331	20446
858.464	20309
858.597	20244
858.731	20590
858.864	20396
858.997	20568
859.13	20446
859.263	20446
859.396	20552
859.529	20393
859.662	20412
859.795	20389
859.928	20427
860.061	20594
860.194	20621
860.327	20587
860.46	20518
860.592	20678
860.725	20617
860.858	20568
860.99	20511
861.123	20309
861.256	20518
861.388	20484
861.521	21051
861.653	20290
861.786	20278
861.918	20355
862.05	20336
862.183	20431
862.315	20412
862.447	20374
862.58	20263
862.712	20195
862.844	20119
862.976	20389
863.108	20267
863.24	20590
863.372	20244
863.504	20161
863.636	20157
863.768	20199
863.9	20122
864.032	20122
864.164	20240
864.296	20084
864.428	20282
864.559	20290
864.691	20275
864.823	20107
864.954	20206
865.086	20202
865.217	20176
865.349	19993
865.48	20065
865.612	20046
865.743	20149
865.875	20027
866.006	19986
866.137	20069
866.269	20084
866.4	20069
866.531	20088
866.662	20012
866.793	19989
866.924	20065
867.055	20046
867.186	19898
867.317	20069
867.448	19928
867.579	20035
867.71	19921
867.841	19818
867.972	20054
868.103	19936
868.233	19875
868.364	19978
868.495	20138
868.625	20168
868.756	20320
868.886	20176
869.017	20393
869.147	20415
869.278	20347
869.408	20225
869.539	20240
869.669	20263
869.799	20317
869.929	20366
870.06	20404
870.19	20556
870.32	20549
870.45	20629
870.58	20724
870.71	20800
870.84	20629
870.97	20708
871.1	20571
871.23	20849
871.36	20785
871.489	20925
871.619	20883
871.749	20830
871.879	20823
872.008	20994
872.138	20842
872.267	21039
872.397	20777
872.526	20663
872.656	20583
872.785	20697
872.915	20906
873.044	20944
873.173	20804
873.303	21055
873.432	20952
873.561	20929
873.69	20979
873.819	20849
873.948	20941
874.077	20925
874.206	20758
874.335	20906
874.464	20838
874.593	21009
874.722	20990
874.851	21154
874.979	21131
875.108	21180
875.237	21032
875.365	21047
875.494	21028
875.623	21283
875.751	21127
875.88	21055
876.008	21287
876.136	21233
876.265	21553
876.393	21671
876.521	21485
876.65	21701
876.778	21500
876.906	21485
877.034	21420
877.162	21450
877.29	21458
877.418	21557
877.546	21439
877.674	21504
877.802	21447
877.93	21545
878.058	21477
878.185	21302
878.313	21496
878.441	21443
878.568	21325
878.696	21359
878.824	21511
878.951	21515
879.079	21644
879.206	21808
879.333	21671
879.461	21511
879.588	21568
879.715	21747
879.842	21717
879.97	21485
880.097	21275
880.224	21367
880.351	21416
880.478	21321
880.605	21294
880.732	21306
880.859	21473
880.986	21268
881.112	21424
881.239	21218
881.366	21028
881.493	20982
881.619	20986
881.746	20952
881.872	20781
881.999	20872
882.125	20849
882.252	20880
882.378	20838
882.505	21020
882.631	20746
882.757	20629
882.883	20655
883.01	20564
883.136	20533
883.262	20552
883.388	20419
883.514	20564
883.64	20609
883.766	20545
883.892	20408
884.018	20377
884.143	20545
884.269	20724
884.395	20358
884.52	20187
884.646	20199
884.772	20347
884.897	20199
885.023	20301
885.148	20366
885.274	20237
885.399	20336
885.524	20271
885.65	20332
885.775	20176
885.9	20248
886.025	20332
886.15	20324
886.275	20210
886.4	20142
886.525	20138
886.65	20164
886.775	20164
886.9	20446
887.025	20389
887.149	20187
887.274	20039
887.399	19989
887.523	19959
887.648	19898
887.773	19944
887.897	20115
888.021	20046
888.146	19978
888.27	20138
888.395	20107
888.519	19928
888.643	20062
888.767	20062
888.891	19864
889.015	19921
889.139	19795
889.263	19765
889.387	19936
889.511	19951
889.635	20043
889.759	19803
889.883	19883
890.006	19845
890.13	19894
890.254	19818
890.377	19753
890.501	19537
890.624	19712
890.748	19590
890.871	19540
890.995	19457
891.118	19316
891.241	19384
891.364	19438
891.488	19552
891.611	19445
891.734	19468
891.857	19403
891.98	19468
892.103	19483
892.226	19453
892.349	19354
892.471	19179
892.594	19324
892.717	19327
892.839	19362
892.962	19324
893.085	19285
893.207	19316
893.33	19236
893.452	19206
893.575	19407
893.697	19312
893.819	19449
893.941	19571
894.064	19422
894.186	19312
894.308	19282
894.43	19354
894.552	19559
894.674	19422
894.796	19270
894.918	19308
895.04	19274
895.161	19282
895.283	19312
895.405	19369
895.526	19419
895.648	19369
895.769	19377
895.891	19430
896.012	19403
896.134	19449
896.255	19335
896.376	19270
896.498	19343
896.619	19415
896.74	19346
896.861	19354
896.982	19575
897.103	19753
897.224	19635
897.345	19651
897.466	19396
897.587	19548
897.708	19696
897.828	19635
897.949	19491
898.07	19381
898.19	19506
898.311	19601
898.431	19491
898.552	19525
898.672	19609
898.792	19609
898.913	19575
899.033	19476
899.153	19438
899.273	19251
899.393	19377
899.513	19472
899.633	19388
899.753	19502
899.873	19270
899.993	19369
900.113	19377
900.232	19426
900.352	19308
900.472	19122
900.591	19053
900.711	19164
900.83	19084
900.95	19244
901.069	19232
901.189	19015
901.308	18829
901.427	18772
901.546	18620
901.665	18806
901.784	18779
901.904	18646
902.023	18684
902.141	18300
902.26	18190
902.379	18369
902.498	18357
902.617	18235
902.735	18289
902.854	18213
902.973	18129
903.091	18030
903.21	17897
903.328	18091
903.446	17870
903.565	17752
903.683	17752
903.801	17771
903.919	17726
904.038	17608
904.156	17634
904.274	17653
904.392	17486
904.51	17455
904.627	17395
904.745	17440
904.863	17592
904.981	17330
905.098	17303
905.216	17239
905.334	17189
905.451	17261
905.569	17159
905.686	17132
905.803	17181
905.921	16984
906.038	17090
906.155	17079
906.272	16850
906.389	16915
906.506	16755
906.623	16786
906.74	16691
906.857	16607
906.974	16721
907.091	16835
907.208	16930
907.324	16771
907.441	16592
907.557	16447
907.674	16424
907.79	16310
907.907	16436
908.023	16451
908.139	16462
908.256	16440
908.372	16371
908.488	16375
908.604	16226
908.72	16139
908.836	16261
908.952	16158
909.068	16135
909.184	16211
909.3	16265
909.415	16242
909.531	16154
909.647	15934
909.762	15835
909.878	15835
909.993	15869
910.108	15899
910.224	15755
910.339	15922
910.454	15816
910.57	15724
910.685	15671
910.8	16002
910.915	15774
911.03	15747
911.145	15523
911.259	15431
911.374	15458
911.489	15466
911.604	15374
911.718	15169
911.833	15302
911.947	15233
912.062	15146
912.176	15317
912.291	15275
912.405	15302
912.519	15447
912.633	15450
912.748	15298
912.862	15203
912.976	15043
913.09	15005
913.204	14994
913.318	15051
913.431	15218
913.545	15089
913.659	15089
913.772	15043
913.886	14990
914	14921
914.113	14868
914.226	14975
914.34	14982
914.453	14727
914.566	14925
914.68	14826
914.793	14815
914.906	14530
915.019	14514
915.132	14343
915.245	14454
915.358	14541
915.47	14511
915.583	14514
915.696	14514
915.809	14556
915.921	14613
916.034	14492
916.146	14408
916.259	14339
916.371	14450
916.483	14404
916.595	14278
916.708	14351
916.82	14328
916.932	14393
917.044	14336
917.156	14267
917.268	14168
917.38	14176
917.491	14103
917.603	14202
917.715	14282
917.826	14317
917.938	14138
918.049	14058
918.161	14081
918.272	14252
918.384	14202
918.495	14237
918.606	14043
918.717	13852
918.828	14020
918.939	14088
919.05	13913
919.161	13936
919.272	13822
919.383	13803
919.494	14001
919.604	14164
919.715	13940
919.826	13883
919.936	13906
920.047	14031
920.157	13951
920.267	14180
920.378	13978
920.488	13963
920.598	14149
920.708	14336
920.818	14138
920.928	14016
921.038	14282
921.148	14259
921.258	13932
921.368	13830
921.477	13750
921.587	13693
921.697	13636
921.806	13700
921.916	13559
922.025	13480
922.134	13316
922.244	13316
922.353	13369
922.462	13285
922.571	13152
922.68	13050
922.789	13065
922.898	12985
923.007	13008
923.116	13012
923.224	13015
923.333	12981
923.442	12863
923.55	12890
923.659	12798
923.767	12905
923.876	12745
923.984	12935
924.092	12696
924.201	12795
924.309	12840
924.417	12768
924.525	12642
924.633	12642
924.741	13441
924.849	12471
924.956	12642
925.064	12578
925.172	12479
925.279	12437
925.387	12490
925.494	12483
925.602	12547
925.709	12513
925.816	12407
925.924	12486
926.031	12528
926.138	12388
926.245	12433
926.352	12346
926.459	12467
926.566	12464
926.673	12243
926.779	12304
926.886	12228
926.993	12076
927.099	12114
927.206	12003
927.312	12053
927.419	12121
927.525	12068
927.631	12095
927.737	11882
927.843	11847
927.95	11794
928.056	11901
928.162	11855
928.267	11961
928.373	12486
928.479	11927
928.585	11805
928.69	11779
928.796	11756
928.901	11771
929.007	11623
929.112	11748
929.218	11722
929.323	11642
929.428	11562
929.533	11767
929.638	11573
929.743	11543
929.848	11638
929.953	11589
930.058	11406
930.163	11265
930.267	11315
930.372	11520
930.477	11246
930.581	11452
930.685	11330
930.79	11227
930.894	11246
930.998	11185
931.103	11345
931.207	10991
931.311	10949
931.415	10790
931.519	10554
931.623	10504
