Data from test_V78500241_1792.txt Node
Date: Fri Mar 25 15:22:20 CST 2022
User: usil
Spectrometer: V785-0024
Trigger mode: 0
Integration Time (sec): 4.000000E-1
Scans to average: 1
Nonlinearity correction enabled: false
Boxcar width: 0
Storing dark spectrum: false
XAxis mode: Wavelengths
Number of Pixels in Spectrum: 1024
>>>>>Begin Spectral Data<<<<<
801.071	27755
801.214	27778
801.356	27507
801.499	27359
801.641	27222
801.783	27340
801.926	27359
802.068	27294
802.211	27226
802.353	27096
802.496	27077
802.638	26967
802.78	26887
802.923	26956
803.065	26952
803.208	26876
803.35	26872
803.492	27108
803.635	27066
803.777	26994
803.919	27108
804.061	27397
804.204	27211
804.346	27089
804.488	26967
804.63	27169
804.773	27066
804.915	27180
805.057	27214
805.199	27119
805.341	27195
805.483	27374
805.626	27405
805.768	27150
805.91	27119
806.052	27313
806.194	27119
806.336	27454
806.478	27363
806.62	27363
806.762	27287
806.904	27378
807.046	27709
807.188	27698
807.33	27564
807.472	27690
807.614	27564
807.756	27564
807.898	27595
808.04	27526
808.182	27378
808.324	27564
808.465	27663
808.607	27633
808.749	28044
808.891	27994
809.033	28082
809.174	27987
809.316	27724
809.458	27831
809.6	27732
809.741	28010
809.883	27979
810.025	28150
810.166	28086
810.308	28147
810.45	28169
810.591	28044
810.733	27850
810.875	27728
811.016	27827
811.158	27743
811.299	27930
811.441	27953
811.582	27998
811.724	27953
811.865	27911
812.007	27857
812.148	27793
812.29	27736
812.431	28093
812.573	28181
812.714	28253
812.855	28413
812.997	28443
813.138	28645
813.279	28588
813.421	28432
813.562	28242
813.703	28211
813.845	28211
813.986	27804
814.127	27686
814.268	27587
814.41	27469
814.551	27519
814.692	27599
814.833	27496
814.974	27549
815.115	27485
815.256	27416
815.397	27363
815.539	27401
815.68	27298
815.821	27214
815.962	27359
816.103	27439
816.244	27230
816.385	27154
816.526	27013
816.666	26925
816.807	26765
816.948	26921
817.089	26921
817.23	26899
817.371	26823
817.512	26815
817.653	26823
817.793	26693
817.934	26914
818.075	26792
818.216	26853
818.356	26834
818.497	26579
818.638	26499
818.778	26636
818.919	26537
819.06	26575
819.2	26746
819.341	26800
819.481	26906
819.622	26883
819.762	27104
819.903	27055
820.043	27154
820.184	26971
820.324	26845
820.465	27032
820.605	27062
820.746	26910
820.886	26792
821.026	27005
821.167	26849
821.307	26952
821.447	26864
821.588	26682
821.728	26663
821.868	26434
822.008	26396
822.149	26240
822.289	26336
822.429	26164
822.569	25879
822.709	26001
822.849	25856
822.99	25833
823.13	25913
823.27	25734
823.41	25788
823.55	25495
823.69	25746
823.83	25681
823.97	25552
824.11	25479
824.25	25529
824.389	25529
824.529	25616
824.669	25502
824.809	25556
824.949	25628
825.089	25559
825.228	25381
825.368	25320
825.508	25449
825.648	25441
825.787	25434
825.927	25400
826.067	25362
826.206	25369
826.346	25354
826.485	25441
826.625	25369
826.765	25358
826.904	25388
827.044	25187
827.183	25156
827.323	25015
827.462	25031
827.601	25103
827.741	25148
827.88	25061
828.02	25031
828.159	24977
828.298	25046
828.437	25221
828.577	25000
828.716	25141
828.855	24962
828.994	24859
829.134	24776
829.273	24802
829.412	24829
829.551	24772
829.69	24856
829.829	24791
829.968	24890
830.107	24943
830.246	24825
830.385	24833
830.524	24639
830.663	24635
830.802	24661
830.941	24395
831.08	24361
831.219	24509
831.357	24464
831.496	24642
831.635	24330
831.774	24350
831.913	24247
832.051	24186
832.19	24414
832.329	24308
832.467	24121
832.606	24190
832.744	24068
832.883	24155
833.022	23988
833.16	24049
833.299	24026
833.437	24110
833.576	24232
833.714	24213
833.852	24304
833.991	24197
834.129	24296
834.267	24319
834.406	24140
834.544	24167
834.682	24182
834.821	24133
834.959	24262
835.097	24144
835.235	24289
835.373	24133
835.511	24091
835.65	24110
835.788	23950
835.926	23984
836.064	23809
836.202	23817
836.34	24026
836.478	24091
836.615	23980
836.753	23988
836.891	24053
837.029	24049
837.167	23954
837.305	23912
837.443	23901
837.58	23714
837.718	23847
837.856	23779
837.993	23710
838.131	23779
838.269	23783
838.406	23752
838.544	23539
838.681	23589
838.819	23459
838.956	23288
839.094	23395
839.231	23429
839.369	23467
839.506	23668
839.643	23493
839.781	23330
839.918	23254
840.055	23261
840.193	23273
840.33	23273
840.467	23254
840.604	23364
840.742	23455
840.879	23121
841.016	23109
841.153	23128
841.29	23239
841.427	23147
841.564	23349
841.701	23200
841.838	23143
841.975	23185
842.112	23155
842.249	23025
842.385	22980
842.522	23181
842.659	23147
842.796	22923
842.933	23079
843.069	22927
843.206	22961
843.343	23121
843.479	22995
843.616	23003
843.752	22786
843.889	22755
844.025	22877
844.162	22740
844.298	22938
844.435	22675
844.571	22790
844.708	22885
844.844	22831
844.98	22942
845.117	22866
845.253	22778
845.389	22675
845.525	22691
845.661	22607
845.798	22375
845.934	22519
846.07	22519
846.206	22519
846.342	22550
846.478	22390
846.614	22261
846.75	22204
846.886	22253
847.022	22177
847.158	22223
847.294	22147
847.429	22303
847.565	22131
847.701	22561
847.837	21937
847.972	21915
848.108	22059
848.244	21987
848.379	21804
848.515	21808
848.65	21918
848.786	21800
848.921	21937
849.057	21869
849.192	21873
849.328	21888
849.463	21857
849.598	21743
849.734	21690
849.869	21694
850.004	21625
850.14	21583
850.275	21530
850.41	21557
850.545	21652
850.68	21580
850.815	21675
850.95	21466
851.085	21781
851.22	21713
851.355	21606
851.49	21568
851.625	21519
851.76	21637
851.895	21545
852.03	21439
852.165	21477
852.299	21534
852.434	21751
852.569	21591
852.703	21599
852.838	21564
852.973	21785
853.107	21625
853.242	21534
853.376	21443
853.511	21222
853.645	21287
853.78	21488
853.914	21428
854.048	21351
854.183	21359
854.317	21420
854.451	21576
854.585	21466
854.72	21519
854.854	21477
854.988	21351
855.122	21519
855.256	21298
855.39	21477
855.524	21542
855.658	21302
855.792	21469
855.926	21485
856.06	21526
856.194	21477
856.327	21306
856.461	21313
856.595	21340
856.729	21363
856.862	21496
856.996	21450
857.13	21526
857.263	21625
857.397	21473
857.53	21488
857.664	21473
857.797	21412
857.931	21496
858.064	21389
858.197	21504
858.331	21428
858.464	21329
858.597	21351
858.731	21184
858.864	21370
858.997	21283
859.13	21439
859.263	21405
859.396	21545
859.529	21393
859.662	21370
859.795	21370
859.928	21450
860.061	21500
860.194	21580
860.327	21389
860.46	21332
860.592	21370
860.725	21648
860.858	21511
860.99	21389
861.123	21325
861.256	21256
861.388	21359
861.521	22097
861.653	21268
861.786	21279
861.918	21306
862.05	21370
862.183	21336
862.315	21283
862.447	21302
862.58	21313
862.712	21131
862.844	21157
862.976	21173
863.108	21138
863.24	21344
863.372	21108
863.504	21093
863.636	21157
863.768	21108
863.9	21173
864.032	21165
864.164	21085
864.296	21180
864.428	21184
864.559	21138
864.691	21184
864.823	21074
864.954	21150
865.086	21093
865.217	21028
865.349	20948
865.48	20971
865.612	20990
865.743	21207
865.875	21058
866.006	20982
866.137	20952
866.269	20986
866.4	20944
866.531	20979
866.662	20750
866.793	20971
866.924	21001
867.055	20823
867.186	21013
867.317	21020
867.448	20864
867.579	20960
867.71	20921
867.841	20842
867.972	20952
868.103	20979
868.233	20910
868.364	20975
868.495	20933
868.625	21161
868.756	21275
868.886	21203
869.017	21108
869.147	21294
869.278	21370
869.408	21070
869.539	21222
869.669	21188
869.799	21199
869.929	21355
870.06	21275
870.19	21374
870.32	21302
870.45	21477
870.58	21428
870.71	21652
870.84	21736
870.97	21500
871.1	21473
871.23	21614
871.36	21781
871.489	21724
871.619	21808
871.749	21690
871.879	21785
872.008	21850
872.138	21854
872.267	21648
872.397	21637
872.526	21603
872.656	21534
872.785	21572
872.915	21823
873.044	21892
873.173	21854
873.303	21808
873.432	21956
873.561	21869
873.69	21736
873.819	21755
873.948	21793
874.077	21816
874.206	21698
874.335	21690
874.464	21960
874.593	22051
874.722	22017
874.851	22013
874.979	22070
875.108	22097
875.237	21987
875.365	21915
875.494	21979
875.623	22109
875.751	21956
875.88	22101
876.008	22173
876.136	22101
876.265	22432
876.393	22500
876.521	22478
876.65	22386
876.778	22352
876.906	22284
877.034	22341
877.162	22363
877.29	22196
877.418	22360
877.546	22333
877.674	22272
877.802	22443
877.93	22341
878.058	22375
878.185	22299
878.313	22337
878.441	22242
878.568	22246
878.696	22394
878.824	22409
878.951	22531
879.079	22497
879.206	22512
879.333	22508
879.461	22432
879.588	22500
879.715	22573
879.842	22729
879.97	22489
880.097	22268
880.224	22185
880.351	22303
880.478	22337
880.605	22082
880.732	22097
880.859	22436
880.986	22093
881.112	22287
881.239	22051
881.366	22021
881.493	21987
881.619	21682
881.746	21797
881.872	21873
881.999	21766
882.125	21667
882.252	21701
882.378	21698
882.505	21899
882.631	21656
882.757	21580
882.883	21492
883.01	21507
883.136	21283
883.262	21393
883.388	21264
883.514	21526
883.64	21431
883.766	21378
883.892	21150
884.018	21279
884.143	21416
884.269	21344
884.395	21180
884.52	21245
884.646	21077
884.772	21005
884.897	20921
885.023	21013
885.148	21214
885.274	21245
885.399	21279
885.524	21108
885.65	21135
885.775	21009
885.9	21070
886.025	21211
886.15	21188
886.275	21032
886.4	20963
886.525	21127
886.65	21009
886.775	21077
886.9	21165
887.025	21287
887.149	21001
887.274	20876
887.399	20883
887.523	20891
887.648	20800
887.773	20842
887.897	20895
888.021	20998
888.146	20693
888.27	20944
888.395	21036
888.519	20990
888.643	20872
888.767	20895
888.891	20857
889.015	20807
889.139	20724
889.263	20625
889.387	20674
889.511	20876
889.635	20765
889.759	20609
889.883	20674
890.006	20686
890.13	20785
890.254	20590
890.377	20552
890.501	20404
890.624	20408
890.748	20427
890.871	20256
890.995	20244
891.118	20145
891.241	20199
891.364	20305
891.488	20377
891.611	20256
891.734	20259
891.857	20282
891.98	20237
892.103	20324
892.226	20195
892.349	20240
892.471	20088
892.594	20183
892.717	20267
892.839	20054
892.962	20149
893.085	20214
893.207	20107
893.33	20043
893.452	20050
893.575	20172
893.697	20119
893.819	20290
893.941	20343
894.064	20400
894.186	20237
894.308	20020
894.43	20317
894.552	20267
894.674	20206
894.796	20031
894.918	19974
895.04	20020
895.161	20092
895.283	20081
895.405	20084
895.526	20039
895.648	20046
895.769	20088
895.891	20096
896.012	20221
896.134	20240
896.255	20096
896.376	20054
896.498	20058
896.619	20225
896.74	20050
896.861	20240
896.982	20488
897.103	20701
897.224	20358
897.345	20275
897.466	20263
897.587	20313
897.708	20457
897.828	20423
897.949	20355
898.07	20153
898.19	20229
898.311	20473
898.431	20237
898.552	20252
898.672	20336
898.792	20404
898.913	20286
899.033	20122
899.153	20088
899.273	20073
899.393	20142
899.513	20122
899.633	20012
899.753	20024
899.873	20027
899.993	20145
900.113	19986
900.232	20008
900.352	20027
900.472	19890
900.591	19795
900.711	19788
900.83	19841
900.95	19944
901.069	19898
901.189	19826
901.308	19487
901.427	19514
901.546	19518
901.665	19480
901.784	19438
901.904	19312
902.023	19304
902.141	18935
902.26	18973
902.379	19072
902.498	18913
902.617	18806
902.735	19046
902.854	18935
902.973	18848
903.091	18616
903.21	18681
903.328	18620
903.446	18456
903.565	18445
903.683	18525
903.801	18338
903.919	18350
904.038	18376
904.156	18304
904.274	18213
904.392	18117
904.51	18194
904.627	18216
904.745	18232
904.863	18171
904.981	18022
905.098	17904
905.216	17843
905.334	17764
905.451	17912
905.569	17828
905.686	17885
905.803	17798
905.921	17649
906.038	17680
906.155	17722
906.272	17474
906.389	17493
906.506	17520
906.623	17509
906.74	17368
906.857	17311
906.974	17379
907.091	17516
907.208	17459
907.324	17467
907.441	17383
907.557	17166
907.674	17140
907.79	17052
907.907	17083
908.023	17094
908.139	17178
908.256	17151
908.372	17079
908.488	16938
908.604	16793
908.72	16744
908.836	16896
908.952	16824
909.068	16862
909.184	16927
909.3	16782
909.415	16824
909.531	16915
909.647	16618
909.762	16550
909.878	16523
909.993	16599
910.108	16538
910.224	16356
910.339	16493
910.454	16413
910.57	16375
910.685	16333
910.8	16527
910.915	16588
911.03	16360
911.145	16147
911.259	16147
911.374	16169
911.489	16101
911.604	16017
911.718	15869
911.833	15899
911.947	15778
912.062	15739
912.176	15888
912.291	15835
912.405	15888
912.519	15972
912.633	16036
912.748	15831
912.862	15854
912.976	15701
913.09	15576
913.204	15603
913.318	15713
913.431	15835
913.545	15781
913.659	15770
913.772	15743
913.886	15500
914	15443
914.113	15549
914.226	15641
914.34	15545
914.453	15370
914.566	15534
914.68	15454
914.793	15393
914.906	15317
915.019	15047
915.132	15032
915.245	14921
915.358	15127
915.47	15093
915.583	15047
915.696	15157
915.809	15260
915.921	15298
916.034	15051
916.146	14979
916.259	14952
916.371	15127
916.483	15017
916.595	15047
916.708	14986
916.82	14906
916.932	14937
917.044	14834
917.156	14872
917.268	14777
917.38	14758
917.491	14800
917.603	14773
917.715	14872
917.826	14838
917.938	14750
918.049	14621
918.161	14781
918.272	14788
918.384	14826
918.495	14701
918.606	14613
918.717	14533
918.828	14507
918.939	14541
919.05	14400
919.161	14442
919.272	14298
919.383	14358
919.494	14545
919.604	14682
919.715	14469
919.826	14431
919.936	14427
920.047	14507
920.157	14415
920.267	14743
920.378	14503
920.488	14473
920.598	14568
920.708	14891
920.818	14579
920.928	14621
921.038	14785
921.148	14735
921.258	14377
921.368	14370
921.477	14282
921.587	14088
921.697	14130
921.806	14183
921.916	14115
922.025	13955
922.134	13868
922.244	13864
922.353	13849
922.462	13689
922.571	13696
922.68	13597
922.789	13605
922.898	13453
923.007	13403
923.116	13510
923.224	13434
923.333	13343
923.442	13339
923.55	13430
923.659	13358
923.767	13426
923.876	13244
923.984	13251
924.092	13217
924.201	13263
924.309	13350
924.417	13266
924.525	13160
924.633	13141
924.741	14046
924.849	13065
924.956	13091
925.064	12954
925.172	12878
925.279	12913
925.387	12844
925.494	12932
925.602	13114
925.709	12924
925.816	12837
925.924	12916
926.031	12947
926.138	12894
926.245	12897
926.352	12707
926.459	12977
926.566	12966
926.673	12852
926.779	12696
926.886	12604
926.993	12471
927.099	12509
927.206	12525
927.312	12445
927.419	12658
927.525	12467
927.631	12498
927.737	12414
927.843	12300
927.95	12144
928.056	12289
928.162	12277
928.267	12315
928.373	12951
928.479	12395
928.585	12232
928.69	12327
928.796	12300
928.901	12190
929.007	12007
929.112	12178
929.218	12091
929.323	12106
929.428	12034
929.533	12197
929.638	12011
929.743	11996
929.848	11992
929.953	11973
930.058	11847
930.163	11642
930.267	11722
930.372	11893
930.477	11615
930.581	11840
930.685	11695
930.79	11710
930.894	11649
930.998	11596
931.103	11771
931.207	11307
931.311	11250
931.415	11159
931.519	11121
931.623	10923
