Data from test_V78500241_2035.txt Node
Date: Fri Mar 25 15:24:01 CST 2022
User: usil
Spectrometer: V785-0024
Trigger mode: 0
Integration Time (sec): 4.000000E-1
Scans to average: 1
Nonlinearity correction enabled: false
Boxcar width: 0
Storing dark spectrum: false
XAxis mode: Wavelengths
Number of Pixels in Spectrum: 1024
>>>>>Begin Spectral Data<<<<<
801.071	27595
801.214	27739
801.356	27580
801.499	27504
801.641	27332
801.783	27443
801.926	27291
802.068	27313
802.211	27313
802.353	27241
802.496	27074
802.638	26906
802.78	26944
802.923	26891
803.065	26796
803.208	26830
803.35	26921
803.492	27135
803.635	27039
803.777	27127
803.919	27150
804.061	27492
804.204	27233
804.346	27070
804.488	27070
804.63	27055
804.773	27161
804.915	27154
805.057	27245
805.199	27199
805.341	27214
805.483	27218
805.626	27294
805.768	27123
805.91	27249
806.052	27329
806.194	27081
806.336	27477
806.478	27355
806.62	27294
806.762	27427
806.904	27606
807.046	27774
807.188	27618
807.33	27675
807.472	27816
807.614	27701
807.756	27610
807.898	27511
808.04	27481
808.182	27545
808.324	27561
808.465	27462
808.607	27663
808.749	27907
808.891	28101
809.033	28116
809.174	27972
809.316	27762
809.458	27968
809.6	27789
809.741	27903
809.883	28063
810.025	28143
810.166	28223
810.308	28200
810.45	28135
810.591	27998
810.733	27869
810.875	27835
811.016	27648
811.158	27724
811.299	27937
811.441	28040
811.582	27914
811.724	27808
811.865	27884
812.007	27717
812.148	27797
812.29	27964
812.431	28002
812.573	28246
812.714	28276
812.855	28348
812.997	28500
813.138	28527
813.279	28405
813.421	28405
813.562	28261
813.703	28295
813.845	28139
813.986	27979
814.127	27755
814.268	27671
814.41	27759
814.551	27755
814.692	27671
814.833	27519
814.974	27557
815.115	27606
815.256	27447
815.397	27519
815.539	27416
815.68	27321
815.821	27165
815.962	27313
816.103	27401
816.244	27119
816.385	27161
816.526	27150
816.666	27081
816.807	26720
816.948	26914
817.089	27047
817.23	26861
817.371	26800
817.512	26769
817.653	26990
817.793	26724
817.934	26750
818.075	26929
818.216	26845
818.356	26857
818.497	26708
818.638	26560
818.778	26640
818.919	26629
819.06	26594
819.2	26800
819.341	26956
819.481	26788
819.622	27089
819.762	27051
819.903	27070
820.043	26940
820.184	26990
820.324	26948
820.465	27051
820.605	27009
820.746	27032
820.886	26731
821.026	27039
821.167	26804
821.307	27017
821.447	26925
821.588	26864
821.728	26636
821.868	26450
822.008	26400
822.149	26404
822.289	26347
822.429	26122
822.569	26043
822.709	25982
822.849	25887
822.99	25913
823.13	25830
823.27	25814
823.41	25609
823.55	25457
823.69	25723
823.83	25643
823.97	25674
824.11	25525
824.25	25407
824.389	25312
824.529	25552
824.669	25537
824.809	25655
824.949	25590
825.089	25662
825.228	25502
825.368	25407
825.508	25324
825.648	25331
825.787	25289
825.927	25506
826.067	25339
826.206	25251
826.346	25373
826.485	25422
826.625	25297
826.765	25537
826.904	25422
827.044	25122
827.183	25198
827.323	24985
827.462	25198
827.601	25069
827.741	25034
827.88	25118
828.02	25012
828.159	25057
828.298	25240
828.437	25240
828.577	25031
828.716	25137
828.855	25057
828.994	24814
829.134	24829
829.273	24779
829.412	24700
829.551	24734
829.69	24707
829.829	24913
829.968	24992
830.107	24772
830.246	24665
830.385	24734
830.524	24719
830.663	24616
830.802	24536
830.941	24330
831.08	24254
831.219	24433
831.357	24578
831.496	24635
831.635	24315
831.774	24365
831.913	24277
832.051	24277
832.19	24148
832.329	24133
832.467	24079
832.606	23961
832.744	24155
832.883	24053
833.022	24049
833.16	24007
833.299	24057
833.437	24022
833.576	24251
833.714	24140
833.852	24167
833.991	24087
834.129	24277
834.267	24262
834.406	24106
834.544	24110
834.682	24087
834.821	24136
834.959	24289
835.097	23946
835.235	24163
835.373	24068
835.511	24114
835.65	23969
835.788	23980
835.926	23821
836.064	23672
836.202	23783
836.34	23942
836.478	23954
836.615	23885
836.753	23927
836.891	23946
837.029	23828
837.167	23882
837.305	23851
837.443	23889
837.58	23665
837.718	23870
837.856	23798
837.993	23695
838.131	23756
838.269	23661
838.406	23764
838.544	23531
838.681	23524
838.819	23448
838.956	23239
839.094	23353
839.231	23398
839.369	23417
839.506	23573
839.643	23410
839.781	23254
839.918	23273
840.055	23345
840.193	23193
840.33	23102
840.467	23151
840.604	23258
840.742	23429
840.879	23014
841.016	23132
841.153	22938
841.29	23322
841.427	23083
841.564	23258
841.701	23166
841.838	22987
841.975	23029
842.112	23083
842.249	22946
842.385	22831
842.522	23170
842.659	23151
842.796	22877
842.933	22904
843.069	22866
843.206	22805
843.343	22892
843.479	22904
843.616	22839
843.752	22805
843.889	22713
844.025	22885
844.162	22763
844.298	22816
844.435	22721
844.571	22668
844.708	22850
844.844	22843
844.98	22968
845.117	22816
845.253	22626
845.389	22573
845.525	22538
845.661	22561
845.798	22596
845.934	22596
846.07	22428
846.206	22303
846.342	22641
846.478	22424
846.614	22246
846.75	22185
846.886	22173
847.022	22276
847.158	22147
847.294	22139
847.429	22207
847.565	22249
847.701	22459
847.837	21941
847.972	21884
848.108	21934
848.244	21987
848.379	21854
848.515	21770
848.65	21812
848.786	21686
848.921	21793
849.057	21850
849.192	21816
849.328	21838
849.463	21728
849.598	21762
849.734	21545
849.869	21633
850.004	21618
850.14	21553
850.275	21564
850.41	21492
850.545	21591
850.68	21538
850.815	21656
850.95	21530
851.085	21728
851.22	21694
851.355	21625
851.49	21549
851.625	21447
851.76	21477
851.895	21542
852.03	21424
852.165	21622
852.299	21660
852.434	21610
852.569	21576
852.703	21530
852.838	21564
852.973	21705
853.107	21599
853.242	21435
853.376	21344
853.511	21272
853.645	21458
853.78	21435
853.914	21450
854.048	21344
854.183	21359
854.317	21275
854.451	21454
854.585	21329
854.72	21313
854.854	21473
854.988	21161
855.122	21477
855.256	21207
855.39	21329
855.524	21374
855.658	21424
855.792	21389
855.926	21340
856.06	21393
856.194	21481
856.327	21283
856.461	21306
856.595	21302
856.729	21287
856.862	21397
856.996	21291
857.13	21435
857.263	21454
857.397	21466
857.53	21317
857.664	21355
857.797	21332
857.931	21500
858.064	21329
858.197	21393
858.331	21359
858.464	21260
858.597	21135
858.731	21321
858.864	21325
858.997	21302
859.13	21439
859.263	21412
859.396	21397
859.529	21420
859.662	21199
859.795	21192
859.928	21355
860.061	21507
860.194	21523
860.327	21313
860.46	21359
860.592	21511
860.725	21622
860.858	21454
860.99	21389
861.123	21363
861.256	21351
861.388	21272
861.521	21968
861.653	21226
861.786	21199
861.918	21226
862.05	21173
862.183	21138
862.315	21401
862.447	21336
862.58	21226
862.712	21108
862.844	21146
862.976	21157
863.108	21154
863.24	21344
863.372	20982
863.504	21173
863.636	20994
863.768	21195
863.9	21100
864.032	20967
864.164	21032
864.296	21180
864.428	21108
864.559	21051
864.691	21070
864.823	21096
864.954	21013
865.086	21001
865.217	21024
865.349	20872
865.48	20929
865.612	21013
865.743	21135
865.875	20956
866.006	20887
866.137	20963
866.269	20963
866.4	20971
866.531	20914
866.662	20811
866.793	20861
866.924	20876
867.055	20960
867.186	20796
867.317	20838
867.448	20807
867.579	20876
867.71	20853
867.841	20781
867.972	20861
868.103	21036
868.233	20769
868.364	20941
868.495	20929
868.625	21157
868.756	21351
868.886	20982
869.017	21089
869.147	21207
869.278	21325
869.408	21104
869.539	21024
869.669	21195
869.799	21112
869.929	21264
870.06	21275
870.19	21401
870.32	21393
870.45	21492
870.58	21557
870.71	21580
870.84	21667
870.97	21420
871.1	21545
871.23	21747
871.36	21743
871.489	21660
871.619	21739
871.749	21591
871.879	21759
872.008	21903
872.138	21587
872.267	21789
872.397	21663
872.526	21564
872.656	21583
872.785	21572
872.915	21743
873.044	21755
873.173	21804
873.303	21770
873.432	21785
873.561	21762
873.69	21625
873.819	21720
873.948	21903
874.077	21789
874.206	21759
874.335	21614
874.464	21842
874.593	21979
874.722	21975
874.851	22010
874.979	21956
875.108	22090
875.237	21842
875.365	21926
875.494	21880
875.623	22070
875.751	21994
875.88	21972
876.008	22051
876.136	22169
876.265	22394
876.393	22615
876.521	22394
876.65	22409
876.778	22394
876.906	22436
877.034	22356
877.162	22356
877.29	22230
877.418	22329
877.546	22150
877.674	22249
877.802	22261
877.93	22333
878.058	22284
878.185	22257
878.313	22249
878.441	22287
878.568	22101
878.696	22284
878.824	22470
878.951	22314
879.079	22424
879.206	22569
879.333	22428
879.461	22402
879.588	22500
879.715	22550
879.842	22577
879.97	22455
880.097	22051
880.224	22166
880.351	22044
880.478	22029
880.605	22082
880.732	22067
880.859	22367
880.986	22173
881.112	22048
881.239	21888
881.366	21888
881.493	21850
881.619	21739
881.746	21797
881.872	21614
881.999	21606
882.125	21618
882.252	21755
882.378	21694
882.505	21835
882.631	21496
882.757	21466
882.883	21462
883.01	21431
883.136	21279
883.262	21264
883.388	21260
883.514	21488
883.64	21370
883.766	21344
883.892	21077
884.018	21173
884.143	21310
884.269	21351
884.395	21173
884.52	21009
884.646	21055
884.772	20887
884.897	20975
885.023	20948
885.148	21104
885.274	21222
885.399	21245
885.524	21020
885.65	21081
885.775	21142
885.9	21039
886.025	21055
886.15	21039
886.275	20994
886.4	20956
886.525	21017
886.65	20948
886.775	21051
886.9	21169
887.025	21245
887.149	20982
887.274	20849
887.399	20834
887.523	20956
887.648	20815
887.773	20731
887.897	20857
888.021	20872
888.146	20708
888.27	20834
888.395	20830
888.519	20792
888.643	20899
888.767	20902
888.891	20716
889.015	20651
889.139	20594
889.263	20644
889.387	20758
889.511	20948
889.635	20788
889.759	20609
889.883	20545
890.006	20613
890.13	20849
890.254	20454
890.377	20549
890.501	20313
890.624	20358
890.748	20351
890.871	20313
890.995	20244
891.118	20107
891.241	20191
891.364	20263
891.488	20271
891.611	20180
891.734	20157
891.857	20229
891.98	20142
892.103	20172
892.226	20119
892.349	20119
892.471	20005
892.594	20157
892.717	20043
892.839	20073
892.962	20062
893.085	20111
893.207	20103
893.33	19997
893.452	20035
893.575	20176
893.697	20027
893.819	20252
893.941	20248
894.064	20195
894.186	19909
894.308	20008
894.43	20164
894.552	20157
894.674	20130
894.796	19959
894.918	20119
895.04	20027
895.161	20233
895.283	20153
895.405	19932
895.526	20096
895.648	20050
895.769	20149
895.891	20161
896.012	20153
896.134	20202
896.255	20119
896.376	19982
896.498	20096
896.619	20130
896.74	20043
896.861	20183
896.982	20240
897.103	20579
897.224	20366
897.345	20180
897.466	20271
897.587	20393
897.708	20415
897.828	20393
897.949	20294
898.07	20050
898.19	20248
898.311	20362
898.431	20301
898.552	20267
898.672	20408
898.792	20358
898.913	20415
899.033	20180
899.153	20149
899.273	19906
899.393	20126
899.513	20043
899.633	20138
899.753	20096
899.873	19986
899.993	20039
900.113	19928
900.232	20138
900.352	19955
900.472	19894
900.591	19856
900.711	19928
900.83	19731
900.95	19890
901.069	19906
901.189	19719
901.308	19590
901.427	19377
901.546	19460
901.665	19453
901.784	19400
901.904	19362
902.023	19251
902.141	18951
902.26	18920
902.379	18932
902.498	18985
902.617	18882
902.735	18916
902.854	18894
902.973	18817
903.091	18650
903.21	18578
903.328	18521
903.446	18410
903.565	18460
903.683	18365
903.801	18262
903.919	18296
904.038	18334
904.156	18121
904.274	18289
904.392	18148
904.51	18201
904.627	18136
904.745	18087
904.863	18224
904.981	17901
905.098	17760
905.216	17809
905.334	17920
905.451	17703
905.569	17790
905.686	17950
905.803	17748
905.921	17680
906.038	17604
906.155	17642
906.272	17573
906.389	17619
906.506	17436
906.623	17356
906.74	17436
906.857	17296
906.974	17258
907.091	17425
907.208	17493
907.324	17345
907.441	17220
907.557	17124
907.674	17090
907.79	17121
907.907	17060
908.023	17151
908.139	17132
908.256	17083
908.372	16911
908.488	17006
908.604	16900
908.72	16820
908.836	16812
908.952	16889
909.068	16885
909.184	16873
909.3	16919
909.415	16812
909.531	16721
909.647	16546
909.762	16508
909.878	16485
909.993	16542
910.108	16375
910.224	16470
910.339	16546
910.454	16352
910.57	16265
910.685	16284
910.8	16535
910.915	16470
911.03	16306
911.145	16185
911.259	16101
911.374	16086
911.489	16036
911.604	15949
911.718	15838
911.833	15819
911.947	15793
912.062	15717
912.176	15865
912.291	15907
912.405	15774
912.519	15987
912.633	16044
912.748	15937
912.862	15812
912.976	15656
913.09	15610
913.204	15610
913.318	15755
913.431	15698
913.545	15751
913.659	15789
913.772	15576
913.886	15485
914	15428
914.113	15549
914.226	15564
914.34	15477
914.453	15317
914.566	15545
914.68	15348
914.793	15393
914.906	15131
915.019	15119
915.132	15032
915.245	15077
915.358	15112
915.47	15036
915.583	15043
915.696	15077
915.809	15291
915.921	15226
916.034	15013
916.146	14941
916.259	14952
916.371	14956
916.483	15135
916.595	14933
916.708	15077
916.82	14941
916.932	14845
917.044	14758
917.156	14788
917.268	14716
917.38	14796
917.491	14773
917.603	14735
917.715	14746
917.826	14861
917.938	14648
918.049	14549
918.161	14682
918.272	14868
918.384	14785
918.495	14762
918.606	14636
918.717	14389
918.828	14473
918.939	14507
919.05	14400
919.161	14476
919.272	14313
919.383	14347
919.494	14549
919.604	14731
919.715	14465
919.826	14438
919.936	14469
920.047	14507
920.157	14503
920.267	14575
920.378	14549
920.488	14461
920.598	14678
920.708	14712
920.818	14648
920.928	14530
921.038	14746
921.148	14568
921.258	14343
921.368	14362
921.477	14195
921.587	14191
921.697	14058
921.806	14233
921.916	14123
922.025	13860
922.134	13795
922.244	13734
922.353	13883
922.462	13738
922.571	13693
922.68	13445
922.789	13464
922.898	13533
923.007	13476
923.116	13502
923.224	13381
923.333	13415
923.442	13403
923.55	13449
923.659	13369
923.767	13415
923.876	13331
923.984	13247
924.092	13141
924.201	13213
924.309	13206
924.417	13213
924.525	13149
924.633	13179
924.741	13932
924.849	12932
924.956	13053
925.064	12981
925.172	12901
925.279	12871
925.387	12905
925.494	13031
925.602	13027
925.709	12954
925.816	12814
925.924	12833
926.031	12958
926.138	12837
926.245	12837
926.352	12741
926.459	12863
926.566	12905
926.673	12776
926.779	12658
926.886	12654
926.993	12471
927.099	12475
927.206	12441
927.312	12414
927.419	12513
927.525	12483
927.631	12490
927.737	12388
927.843	12327
927.95	12338
928.056	12262
928.162	12304
928.267	12414
928.373	12924
928.479	12380
928.585	12190
928.69	12319
928.796	12369
928.901	12087
929.007	11992
929.112	12114
929.218	12098
929.323	12068
929.428	11973
929.533	12178
929.638	11870
929.743	11973
929.848	11973
929.953	11996
930.058	11828
930.163	11653
930.267	11760
930.372	11901
930.477	11657
930.581	11885
930.685	11836
930.79	11649
930.894	11630
930.998	11558
931.103	11714
931.207	11315
931.311	11280
931.415	11170
931.519	11041
931.623	10961
