Data from test_V78500241_2496.txt Node
Date: Fri Mar 25 15:27:14 CST 2022
User: usil
Spectrometer: V785-0024
Trigger mode: 0
Integration Time (sec): 4.000000E-1
Scans to average: 1
Nonlinearity correction enabled: false
Boxcar width: 0
Storing dark spectrum: false
XAxis mode: Wavelengths
Number of Pixels in Spectrum: 1024
>>>>>Begin Spectral Data<<<<<
801.071	27180
801.214	27268
801.356	26842
801.499	26971
801.641	26781
801.783	26765
801.926	26663
802.068	26754
802.211	26689
802.353	26564
802.496	26545
802.638	26362
802.78	26332
802.923	26374
803.065	26210
803.208	26259
803.35	26374
803.492	26545
803.635	26446
803.777	26492
803.919	26602
804.061	26872
804.204	26541
804.346	26480
804.488	26400
804.63	26461
804.773	26545
804.915	26621
805.057	26598
805.199	26549
805.341	26568
805.483	26579
805.626	26663
805.768	26549
805.91	26701
806.052	26659
806.194	26575
806.336	26708
806.478	26640
806.62	26556
806.762	26727
806.904	26849
807.046	27089
807.188	27104
807.33	27154
807.472	27001
807.614	26982
807.756	26887
807.898	26861
808.04	26792
808.182	26895
808.324	26830
808.465	27108
808.607	27013
808.749	27119
808.891	27275
809.033	27344
809.174	27207
809.316	27252
809.458	27096
809.6	27199
809.741	27199
809.883	27287
810.025	27458
810.166	27618
810.308	27454
810.45	27500
810.591	27344
810.733	27294
810.875	27123
811.016	26982
811.158	27077
811.299	27294
811.441	27424
811.582	27363
811.724	27226
811.865	27135
812.007	27173
812.148	27222
812.29	27173
812.431	27412
812.573	27462
812.714	27481
812.855	27637
812.997	27625
813.138	28021
813.279	27850
813.421	27743
813.562	27564
813.703	27564
813.845	27348
813.986	26990
814.127	27165
814.268	26876
814.41	26975
814.551	26933
814.692	26895
814.833	26769
814.974	26792
815.115	26868
815.256	26743
815.397	26731
815.539	26708
815.68	26549
815.821	26495
815.962	26674
816.103	26606
816.244	26404
816.385	26419
816.526	26423
816.666	26233
816.807	26145
816.948	26199
817.089	26111
817.23	26142
817.371	26050
817.512	26088
817.653	26054
817.793	26024
817.934	26183
818.075	26210
818.216	26161
818.356	26088
818.497	25917
818.638	25894
818.778	25951
818.919	25940
819.06	25887
819.2	26008
819.341	25993
819.481	26107
819.622	26153
819.762	26450
819.903	26317
820.043	26298
820.184	26149
820.324	26119
820.465	26221
820.605	26336
820.746	26161
820.886	26035
821.026	26119
821.167	25993
821.307	26240
821.447	26237
821.588	25978
821.728	25871
821.868	25750
822.008	25715
822.149	25548
822.289	25510
822.429	25202
822.569	25232
822.709	25259
822.849	25122
822.99	25050
823.13	25069
823.27	24989
823.41	24920
823.55	24821
823.69	25027
823.83	25019
823.97	24772
824.11	24783
824.25	24734
824.389	24661
824.529	24707
824.669	24669
824.809	24886
824.949	24696
825.089	24642
825.228	24722
825.368	24661
825.508	24585
825.648	24692
825.787	24635
825.927	24730
826.067	24570
826.206	24589
826.346	24593
826.485	24650
826.625	24593
826.765	24783
826.904	24597
827.044	24460
827.183	24273
827.323	24262
827.462	24479
827.601	24346
827.741	24380
827.88	24479
828.02	24270
828.159	24285
828.298	24346
828.437	24414
828.577	24228
828.716	24441
828.855	24243
828.994	24041
829.134	24110
829.273	24114
829.412	24034
829.551	23973
829.69	24102
829.829	24064
829.968	24091
830.107	24083
830.246	23980
830.385	23973
830.524	23863
830.663	23866
830.802	23729
830.941	23684
831.08	23509
831.219	23642
831.357	23707
831.496	23855
831.635	23653
831.774	23558
831.913	23539
832.051	23440
832.19	23490
832.329	23387
832.467	23383
832.606	23231
832.744	23341
832.883	23349
833.022	23265
833.16	23334
833.299	23474
833.437	23398
833.576	23376
833.714	23440
833.852	23395
833.991	23436
834.129	23505
834.267	23509
834.406	23330
834.544	23463
834.682	23554
834.821	23341
834.959	23611
835.097	23277
835.235	23452
835.373	23364
835.511	23345
835.65	23311
835.788	23250
835.926	23208
836.064	23094
836.202	23140
836.34	23231
836.478	23330
836.615	23124
836.753	23212
836.891	23421
837.029	23223
837.167	23162
837.305	23231
837.443	23094
837.58	23181
837.718	23178
837.856	23048
837.993	23041
838.131	23117
838.269	22885
838.406	22984
838.544	22968
838.681	22755
838.819	22687
838.956	22535
839.094	22573
839.231	22641
839.369	22805
839.506	23006
839.643	22873
839.781	22615
839.918	22569
840.055	22672
840.193	22542
840.33	22504
840.467	22656
840.604	22729
840.742	22812
840.879	22561
841.016	22500
841.153	22318
841.29	22656
841.427	22474
841.564	22478
841.701	22470
841.838	22436
841.975	22405
842.112	22485
842.249	22386
842.385	22360
842.522	22607
842.659	22451
842.796	22284
842.933	22162
843.069	22265
843.206	22291
843.343	22223
843.479	22318
843.616	22226
843.752	22120
843.889	22002
844.025	22185
844.162	21945
844.298	22147
844.435	22109
844.571	22036
844.708	22044
844.844	22169
844.98	22090
845.117	22078
845.253	22059
845.389	21857
845.525	21968
845.661	21972
845.798	21812
845.934	21755
846.07	21667
846.206	21789
846.342	21907
846.478	21770
846.614	21675
846.75	21500
846.886	21496
847.022	21625
847.158	21485
847.294	21466
847.429	21515
847.565	21473
847.701	21675
847.837	21291
847.972	21150
848.108	21344
848.244	21348
848.379	21161
848.515	21127
848.65	21051
848.786	21005
848.921	21043
849.057	21188
849.192	21233
849.328	21268
849.463	21142
849.598	21070
849.734	21047
849.869	20921
850.004	20857
850.14	20914
850.275	20929
850.41	20815
850.545	20826
850.68	20777
850.815	20876
850.95	20986
851.085	21074
851.22	20979
851.355	20876
851.49	20876
851.625	20876
851.76	20891
851.895	20971
852.03	20902
852.165	20868
852.299	20906
852.434	20902
852.569	20880
852.703	20960
852.838	20876
852.973	20979
853.107	20899
853.242	20785
853.376	20758
853.511	20583
853.645	20781
853.78	20838
853.914	20887
854.048	20701
854.183	20693
854.317	20769
854.451	20971
854.585	20842
854.72	20590
854.854	20720
854.988	20826
855.122	20727
855.256	20503
855.39	20682
855.524	20773
855.658	20735
855.792	20655
855.926	20750
856.06	20708
856.194	20743
856.327	20648
856.461	20606
856.595	20667
856.729	20781
856.862	20773
856.996	20705
857.13	20667
857.263	20918
857.397	20838
857.53	20693
857.664	20659
857.797	20735
857.931	20823
858.064	20769
858.197	20849
858.331	20743
858.464	20689
858.597	20530
858.731	20739
858.864	20743
858.997	20552
859.13	20530
859.263	20769
859.396	20796
859.529	20773
859.662	20674
859.795	20659
859.928	20785
860.061	20895
860.194	20838
860.327	20811
860.46	20746
860.592	20762
860.725	20834
860.858	20765
860.99	20788
861.123	20648
861.256	20689
861.388	20735
861.521	21233
861.653	20609
861.786	20454
861.918	20465
862.05	20640
862.183	20598
862.315	20716
862.447	20621
862.58	20686
862.712	20415
862.844	20454
862.976	20480
863.108	20389
863.24	20902
863.372	20427
863.504	20514
863.636	20400
863.768	20499
863.9	20423
864.032	20347
864.164	20442
864.296	20374
864.428	20541
864.559	20427
864.691	20495
864.823	20370
864.954	20438
865.086	20427
865.217	20259
865.349	20233
865.48	20351
865.612	20294
865.743	20503
865.875	20336
866.006	20332
866.137	20317
866.269	20358
866.4	20294
866.531	20294
866.662	20278
866.793	20210
866.924	20176
867.055	20328
867.186	20240
867.317	20168
867.448	20157
867.579	20259
867.71	20172
867.841	20259
867.972	20244
868.103	20199
868.233	20282
868.364	20233
868.495	20415
868.625	20476
868.756	20571
868.886	20336
869.017	20476
869.147	20632
869.278	20651
869.408	20556
869.539	20473
869.669	20640
869.799	20587
869.929	20667
870.06	20594
870.19	20830
870.32	20765
870.45	20785
870.58	20948
870.71	20979
870.84	21001
870.97	20906
871.1	20948
871.23	21131
871.36	21077
871.489	20952
871.619	20986
871.749	21047
871.879	21180
872.008	21245
872.138	21058
872.267	21036
872.397	21036
872.526	21009
872.656	20910
872.785	21032
872.915	21028
873.044	21279
873.173	21203
873.303	21169
873.432	21268
873.561	21275
873.69	21112
873.819	21138
873.948	21226
874.077	21077
874.206	21074
874.335	21135
874.464	21272
874.593	21291
874.722	21351
874.851	21424
874.979	21329
875.108	21515
875.237	21370
875.365	21336
875.494	21313
875.623	21466
875.751	21306
875.88	21336
876.008	21458
876.136	21648
876.265	21831
876.393	21979
876.521	21835
876.65	21979
876.778	21698
876.906	21755
877.034	21614
877.162	21709
877.29	21698
877.418	21755
877.546	21686
877.674	21774
877.802	21713
877.93	21675
878.058	21690
878.185	21667
878.313	21766
878.441	21781
878.568	21511
878.696	21755
878.824	21789
878.951	21785
879.079	21960
879.206	21960
879.333	21804
879.461	21785
879.588	21968
879.715	21949
879.842	22074
879.97	21705
880.097	21656
880.224	21587
880.351	21405
880.478	21507
880.605	21572
880.732	21469
880.859	21759
880.986	21469
881.112	21583
881.239	21332
881.366	21302
881.493	21199
881.619	21146
881.746	21272
881.872	21180
881.999	21138
882.125	21131
882.252	21001
882.378	21146
882.505	21252
882.631	20994
882.757	20800
882.883	20944
883.01	20811
883.136	20758
883.262	20636
883.388	20746
883.514	20765
883.64	20815
883.766	20819
883.892	20663
884.018	20609
884.143	20857
884.269	20906
884.395	20583
884.52	20522
884.646	20419
884.772	20434
884.897	20366
885.023	20545
885.148	20560
885.274	20659
885.399	20606
885.524	20556
885.65	20484
885.775	20507
885.9	20415
886.025	20613
886.15	20545
886.275	20419
886.4	20412
886.525	20484
886.65	20351
886.775	20290
886.9	20522
887.025	20667
887.149	20434
887.274	20358
887.399	20267
887.523	20355
887.648	20282
887.773	20084
887.897	20320
888.021	20438
888.146	20225
888.27	20488
888.395	20446
888.519	20191
888.643	20431
888.767	20415
888.891	20065
889.015	19959
889.139	20103
889.263	20073
889.387	20069
889.511	20218
889.635	20374
889.759	20122
889.883	20065
890.006	20183
890.13	20237
890.254	20081
890.377	20062
890.501	19906
890.624	19856
890.748	19837
890.871	19715
890.995	19635
891.118	19552
891.241	19586
891.364	19696
891.488	19677
891.611	19670
891.734	19597
891.857	19670
891.98	19719
892.103	19696
892.226	19632
892.349	19578
892.471	19415
892.594	19457
892.717	19582
892.839	19552
892.962	19472
893.085	19632
893.207	19540
893.33	19457
893.452	19464
893.575	19445
893.697	19556
893.819	19708
893.941	19658
894.064	19658
894.186	19556
894.308	19377
894.43	19597
894.552	19689
894.674	19609
894.796	19540
894.918	19518
895.04	19407
895.161	19666
895.283	19571
895.405	19438
895.526	19578
895.648	19632
895.769	19586
895.891	19708
896.012	19594
896.134	19567
896.255	19655
896.376	19491
896.498	19616
896.619	19597
896.74	19632
896.861	19624
896.982	19887
897.103	20027
897.224	19818
897.345	19738
897.466	19849
897.587	19830
897.708	19963
897.828	19864
897.949	19666
898.07	19586
898.19	19670
898.311	19845
898.431	19742
898.552	19837
898.672	19860
898.792	19769
898.913	19757
899.033	19689
899.153	19624
899.273	19495
899.393	19449
899.513	19552
899.633	19540
899.753	19677
899.873	19381
899.993	19597
900.113	19445
900.232	19422
900.352	19499
900.472	19339
900.591	19324
900.711	19445
900.83	19400
900.95	19464
901.069	19453
901.189	19141
901.308	19084
901.427	18840
901.546	18928
901.665	18947
901.784	18905
901.904	18703
902.023	18734
902.141	18498
902.26	18464
902.379	18513
902.498	18418
902.617	18376
902.735	18456
902.854	18384
902.973	18342
903.091	18289
903.21	18152
903.328	18102
903.446	18079
903.565	17916
903.683	17904
903.801	17718
903.919	17885
904.038	17965
904.156	17745
904.274	17756
904.392	17714
904.51	17623
904.627	17695
904.745	17745
904.863	17710
904.981	17474
905.098	17410
905.216	17356
905.334	17566
905.451	17334
905.569	17246
905.686	17334
905.803	17440
905.921	17151
906.038	17337
906.155	17246
906.272	17022
906.389	17109
906.506	16946
906.623	16957
906.74	16869
906.857	16790
906.974	16835
907.091	16919
907.208	17025
907.324	16946
907.441	16839
907.557	16641
907.674	16554
907.79	16615
907.907	16584
908.023	16660
908.139	16603
908.256	16592
908.372	16561
908.488	16424
908.604	16516
908.72	16390
908.836	16325
908.952	16386
909.068	16344
909.184	16478
909.3	16306
909.415	16424
909.531	16276
909.647	16124
909.762	16215
909.878	16105
909.993	16048
910.108	16006
910.224	15953
910.339	15941
910.454	15926
910.57	15964
910.685	15774
910.8	16109
910.915	16036
911.03	15778
911.145	15690
911.259	15736
911.374	15671
911.489	15561
911.604	15504
911.718	15523
911.833	15561
911.947	15412
912.062	15332
912.176	15530
912.291	15549
912.405	15488
912.519	15751
912.633	15576
912.748	15466
912.862	15329
912.976	15165
913.09	15131
913.204	15207
913.318	15256
913.431	15344
913.545	15241
913.659	15431
913.772	15131
913.886	15112
914	15005
914.113	15146
914.226	15203
914.34	15055
914.453	14880
914.566	15207
914.68	14941
914.793	15001
914.906	14754
915.019	14670
915.132	14629
915.245	14606
915.358	14682
915.47	14629
915.583	14701
915.696	14606
915.809	14826
915.921	14781
916.034	14571
916.146	14530
916.259	14530
916.371	14663
916.483	14686
916.595	14564
916.708	14427
916.82	14568
916.932	14457
917.044	14511
917.156	14434
917.268	14347
917.38	14438
917.491	14351
917.603	14309
917.715	14332
917.826	14461
917.938	14267
918.049	14275
918.161	14267
918.272	14419
918.384	14522
918.495	14336
918.606	14065
918.717	14111
918.828	14123
918.939	14149
919.05	14058
919.161	14069
919.272	13906
919.383	13932
919.494	14100
919.604	14271
919.715	14107
919.826	14043
919.936	14096
920.047	14187
920.157	14134
920.267	14267
920.378	14115
920.488	14103
920.598	14119
920.708	14412
920.818	14218
920.928	14172
921.038	14457
921.148	14332
921.258	14043
921.368	13932
921.477	13776
921.587	13799
921.697	13708
921.806	13807
921.916	13727
922.025	13571
922.134	13540
922.244	13403
922.353	13556
922.462	13343
922.571	13293
922.68	13289
922.789	13145
922.898	13129
923.007	13145
923.116	13190
923.224	13080
923.333	13126
923.442	12977
923.55	12932
923.659	13042
923.767	13008
923.876	12932
923.984	13080
924.092	12875
924.201	12894
924.309	12867
924.417	12913
924.525	12719
924.633	12779
924.741	13772
924.849	12669
924.956	12684
925.064	12692
925.172	12467
925.279	12578
925.387	12658
925.494	12517
925.602	12684
925.709	12650
925.816	12528
925.924	12536
926.031	12612
926.138	12521
926.245	12582
926.352	12445
926.459	12490
926.566	12646
926.673	12498
926.779	12353
926.886	12273
926.993	12224
927.099	12121
927.206	12095
927.312	12136
927.419	12201
927.525	12155
927.631	12167
927.737	12095
927.843	12011
927.95	11901
928.056	11980
928.162	12038
928.267	12022
928.373	12620
928.479	12049
928.585	11813
928.69	11977
928.796	11931
928.901	11752
929.007	11699
929.112	11836
929.218	11779
929.323	11771
929.428	11726
929.533	11840
929.638	11623
929.743	11668
929.848	11767
929.953	11695
930.058	11558
930.163	11459
930.267	11326
930.372	11570
930.477	11345
930.581	11634
930.685	11467
930.79	11197
930.894	11277
930.998	11288
931.103	11436
931.207	10919
931.311	11006
931.415	10850
931.519	10725
931.623	10660
