Data from test_V78500241_1550.txt Node
Date: Fri Mar 25 15:20:39 CST 2022
User: usil
Spectrometer: V785-0024
Trigger mode: 0
Integration Time (sec): 4.000000E-1
Scans to average: 1
Nonlinearity correction enabled: false
Boxcar width: 0
Storing dark spectrum: false
XAxis mode: Wavelengths
Number of Pixels in Spectrum: 1024
>>>>>Begin Spectral Data<<<<<
801.071	27903
801.214	27804
801.356	27728
801.499	27587
801.641	27389
801.783	27496
801.926	27580
802.068	27549
802.211	27488
802.353	27294
802.496	27157
802.638	27089
802.78	26971
802.923	27028
803.065	27032
803.208	26982
803.35	27020
803.492	27199
803.635	27256
803.777	27245
803.919	27363
804.061	27564
804.204	27363
804.346	27241
804.488	27135
804.63	27207
804.773	27386
804.915	27401
805.057	27268
805.199	27291
805.341	27439
805.483	27568
805.626	27545
805.768	27321
805.91	27420
806.052	27519
806.194	27466
806.336	27576
806.478	27557
806.62	27507
806.762	27644
806.904	27641
807.046	27907
807.188	27945
807.33	27903
807.472	27861
807.614	27751
807.756	27804
807.898	27857
808.04	27705
808.182	27800
808.324	27789
808.465	27804
808.607	27987
808.749	28040
808.891	28188
809.033	28440
809.174	28249
809.316	28078
809.458	28215
809.6	28166
809.741	28158
809.883	28207
810.025	28276
810.166	28497
810.308	28668
810.45	28432
810.591	28253
810.733	28173
810.875	28150
811.016	27968
811.158	27884
811.299	28128
811.441	28272
811.582	28223
811.724	28093
811.865	28074
812.007	28128
812.148	28078
812.29	28109
812.431	28276
812.573	28371
812.714	28459
812.855	28637
812.997	28691
813.138	28744
813.279	28888
813.421	28691
813.562	28729
813.703	28478
813.845	28379
813.986	28128
814.127	27975
814.268	27793
814.41	27861
814.551	27804
814.692	27701
814.833	27705
814.974	27614
815.115	27888
815.256	27770
815.397	27751
815.539	27682
815.68	27488
815.821	27526
815.962	27561
816.103	27660
816.244	27534
816.385	27435
816.526	27427
816.666	27226
816.807	27062
816.948	27150
817.089	27161
817.23	27066
817.371	27009
817.512	27100
817.653	27150
817.793	26864
817.934	27142
818.075	27135
818.216	27195
818.356	26994
818.497	26872
818.638	26815
818.778	26830
818.919	26819
819.06	26933
819.2	27096
819.341	27127
819.481	27093
819.622	27401
819.762	27473
819.903	27351
820.043	27173
820.184	27245
820.324	27192
820.465	27344
820.605	27131
820.746	27233
820.886	27096
821.026	27123
821.167	27188
821.307	27192
821.447	27142
821.588	27001
821.728	26868
821.868	26689
822.008	26469
822.149	26583
822.289	26450
822.429	26404
822.569	26187
822.709	26347
822.849	26024
822.99	26187
823.13	25970
823.27	26027
823.41	25894
823.55	25887
823.69	25966
823.83	25997
823.97	25826
824.11	25727
824.25	25651
824.389	25761
824.529	25871
824.669	25586
824.809	25826
824.949	25791
825.089	25746
825.228	25704
825.368	25590
825.508	25575
825.648	25556
825.787	25487
825.927	25696
826.067	25620
826.206	25586
826.346	25597
826.485	25639
826.625	25533
826.765	25510
826.904	25582
827.044	25441
827.183	25426
827.323	25221
827.462	25377
827.601	25422
827.741	25312
827.88	25171
828.02	25221
828.159	25289
828.298	25320
828.437	25320
828.577	25312
828.716	25343
828.855	25225
828.994	24916
829.134	25038
829.273	24951
829.412	25000
829.551	24916
829.69	24882
829.829	24947
829.968	24951
830.107	25038
830.246	24973
830.385	24867
830.524	24985
830.663	24844
830.802	24604
830.941	24582
831.08	24585
831.219	24650
831.357	24760
831.496	24802
831.635	24570
831.774	24757
831.913	24494
832.051	24551
832.19	24380
832.329	24353
832.467	24353
832.606	24350
832.744	24232
832.883	24327
833.022	24232
833.16	24289
833.299	24308
833.437	24216
833.576	24258
833.714	24304
833.852	24460
833.991	24422
834.129	24327
834.267	24338
834.406	24311
834.544	24243
834.682	24361
834.821	24289
834.959	24566
835.097	24239
835.235	24403
835.373	24285
835.511	24213
835.65	24220
835.788	24194
835.926	24057
836.064	23916
836.202	24045
836.34	24194
836.478	24308
836.615	24239
836.753	24083
836.891	24205
837.029	24106
837.167	24197
837.305	24045
837.443	24076
837.58	23893
837.718	23977
837.856	23996
837.993	23927
838.131	24053
838.269	23817
838.406	23916
838.544	23809
838.681	23615
838.819	23653
838.956	23486
839.094	23410
839.231	23398
839.369	23600
839.506	23828
839.643	23596
839.781	23410
839.918	23547
840.055	23497
840.193	23395
840.33	23459
840.467	23345
840.604	23280
840.742	23630
840.879	23174
841.016	23330
841.153	23250
841.29	23516
841.427	23303
841.564	23315
841.701	23376
841.838	23311
841.975	23246
842.112	23162
842.249	23159
842.385	23113
842.522	23231
842.659	23071
842.796	23113
842.933	23079
843.069	22995
843.206	23121
843.343	23269
843.479	23109
843.616	23098
843.752	22987
843.889	22831
844.025	23067
844.162	22908
844.298	22934
844.435	22850
844.571	22835
844.708	22961
844.844	23121
844.98	23113
845.117	22980
845.253	22869
845.389	22588
845.525	22694
845.661	22668
845.798	22645
845.934	22622
846.07	22596
846.206	22645
846.342	22774
846.478	22523
846.614	22421
846.75	22402
846.886	22337
847.022	22333
847.158	22379
847.294	22360
847.429	22356
847.565	22344
847.701	22512
847.837	22086
847.972	22067
848.108	22063
848.244	22109
848.379	22101
848.515	21934
848.65	21949
848.786	22036
848.921	21880
849.057	22067
849.192	22093
849.328	22013
849.463	21918
849.598	21884
849.734	21903
849.869	21835
850.004	21648
850.14	21701
850.275	21625
850.41	21644
850.545	21686
850.68	21766
850.815	21789
850.95	21686
851.085	21808
851.22	21869
851.355	21751
851.49	21701
851.625	21610
851.76	21633
851.895	21690
852.03	21713
852.165	21694
852.299	21694
852.434	21789
852.569	21781
852.703	21736
852.838	21797
852.973	21797
853.107	21808
853.242	21751
853.376	21530
853.511	21363
853.645	21530
853.78	21667
853.914	21599
854.048	21443
854.183	21671
854.317	21583
854.451	21648
854.585	21583
854.72	21492
854.854	21599
854.988	21481
855.122	21496
855.256	21386
855.39	21515
855.524	21603
855.658	21660
855.792	21405
855.926	21473
856.06	21648
856.194	21530
856.327	21519
856.461	21424
856.595	21561
856.729	21583
856.862	21591
856.996	21557
857.13	21637
857.263	21568
857.397	21637
857.53	21473
857.664	21652
857.797	21481
857.931	21694
858.064	21564
858.197	21542
858.331	21389
858.464	21397
858.597	21462
858.731	21466
858.864	21485
858.997	21481
859.13	21542
859.263	21580
859.396	21580
859.529	21519
859.662	21485
859.795	21500
859.928	21526
860.061	21679
860.194	21686
860.327	21663
860.46	21572
860.592	21572
860.725	21648
860.858	21538
860.99	21416
861.123	21348
861.256	21523
861.388	21644
861.521	22299
861.653	21386
861.786	21272
861.918	21370
862.05	21367
862.183	21450
862.315	21393
862.447	21557
862.58	21439
862.712	21283
862.844	21192
862.976	21416
863.108	21264
863.24	21720
863.372	21237
863.504	21233
863.636	21226
863.768	21233
863.9	21222
864.032	21096
864.164	21150
864.296	21165
864.428	21310
864.559	21260
864.691	21317
864.823	21287
864.954	21173
865.086	21184
865.217	21150
865.349	21089
865.48	21055
865.612	21176
865.743	21287
865.875	21096
866.006	21218
866.137	21074
866.269	21154
866.4	21093
866.531	21001
866.662	21081
866.793	21131
866.924	21085
867.055	21017
867.186	21001
867.317	21192
867.448	20960
867.579	21013
867.71	21005
867.841	20948
867.972	20986
868.103	21017
868.233	21093
868.364	21093
868.495	21199
868.625	21222
868.756	21408
868.886	21188
869.017	21260
869.147	21291
869.278	21424
869.408	21222
869.539	21374
869.669	21272
869.799	21367
869.929	21530
870.06	21462
870.19	21511
870.32	21652
870.45	21641
870.58	21614
870.71	21831
870.84	21778
870.97	21713
871.1	21576
871.23	21907
871.36	21812
871.489	21861
871.619	21739
871.749	21880
871.879	21884
872.008	21991
872.138	21861
872.267	21842
872.397	21694
872.526	21747
872.656	21781
872.785	21675
872.915	22010
873.044	21895
873.173	21903
873.303	21876
873.432	21937
873.561	21972
873.69	21949
873.819	21972
873.948	21808
874.077	21876
874.206	21899
874.335	21888
874.464	21975
874.593	22177
874.722	22010
874.851	22162
874.979	22242
875.108	22101
875.237	22063
875.365	21998
875.494	22044
875.623	22131
875.751	22177
875.88	22059
876.008	22238
876.136	22375
876.265	22577
876.393	22675
876.521	22519
876.65	22675
876.778	22580
876.906	22443
877.034	22508
877.162	22516
877.29	22405
877.418	22440
877.546	22428
877.674	22390
877.802	22485
877.93	22451
878.058	22432
878.185	22443
878.313	22402
878.441	22527
878.568	22394
878.696	22386
878.824	22402
878.951	22565
879.079	22649
879.206	22778
879.333	22729
879.461	22516
879.588	22698
879.715	22538
879.842	22774
879.97	22504
880.097	22352
880.224	22249
880.351	22478
880.478	22341
880.605	22249
880.732	22375
880.859	22580
880.986	22462
881.112	22299
881.239	22086
881.366	22021
881.493	21956
881.619	21979
881.746	21838
881.872	21899
881.999	21857
882.125	21690
882.252	21835
882.378	21842
882.505	22006
882.631	21755
882.757	21629
882.883	21663
883.01	21671
883.136	21557
883.262	21458
883.388	21401
883.514	21606
883.64	21576
883.766	21515
883.892	21374
884.018	21408
884.143	21488
884.269	21504
884.395	21249
884.52	21222
884.646	21203
884.772	21074
884.897	21089
885.023	21188
885.148	21283
885.274	21344
885.399	21374
885.524	21294
885.65	21032
885.775	21180
885.9	21154
886.025	21306
886.15	21249
886.275	21211
886.4	21070
886.525	21131
886.65	21142
886.775	21165
886.9	21336
887.025	21431
887.149	21218
887.274	21039
887.399	20902
887.523	20887
887.648	20925
887.773	20929
887.897	21020
888.021	21062
888.146	20948
888.27	21112
888.395	20998
888.519	21066
888.643	20986
888.767	20960
888.891	20872
889.015	20796
889.139	20864
889.263	20750
889.387	20925
889.511	20910
889.635	20899
889.759	20762
889.883	20773
890.006	20811
890.13	20845
890.254	20552
890.377	20697
890.501	20507
890.624	20602
890.748	20533
890.871	20362
890.995	20317
891.118	20336
891.241	20488
891.364	20271
891.488	20419
891.611	20244
891.734	20374
891.857	20286
891.98	20252
892.103	20381
892.226	20351
892.349	20282
892.471	20043
892.594	20282
892.717	20252
892.839	20252
892.962	20286
893.085	20240
893.207	20210
893.33	20149
893.452	20138
893.575	20263
893.697	20115
893.819	20400
893.941	20415
894.064	20237
894.186	20138
894.308	20115
894.43	20370
894.552	20419
894.674	20347
894.796	20111
894.918	20202
895.04	20168
895.161	20389
895.283	20206
895.405	20058
895.526	20134
895.648	20195
895.769	20157
895.891	20225
896.012	20309
896.134	20233
896.255	20271
896.376	20271
896.498	20259
896.619	20164
896.74	20134
896.861	20267
896.982	20606
897.103	20731
897.224	20469
897.345	20336
897.466	20480
897.587	20511
897.708	20648
897.828	20484
897.949	20434
898.07	20252
898.19	20347
898.311	20606
898.431	20336
898.552	20355
898.672	20533
898.792	20450
898.913	20473
899.033	20317
899.153	20218
899.273	20119
899.393	20324
899.513	20286
899.633	20100
899.753	20229
899.873	20176
899.993	20149
900.113	20122
900.232	20145
900.352	20119
900.472	20065
900.591	19932
900.711	19928
900.83	19936
900.95	20054
901.069	20012
901.189	19856
901.308	19761
901.427	19514
901.546	19544
901.665	19624
901.784	19556
901.904	19460
902.023	19266
902.141	19194
902.26	19061
902.379	19080
902.498	19076
902.617	19034
902.735	19095
902.854	19031
902.973	18993
903.091	18840
903.21	18692
903.328	18722
903.446	18642
903.565	18627
903.683	18604
903.801	18445
903.919	18437
904.038	18346
904.156	18281
904.274	18471
904.392	18338
904.51	18239
904.627	18350
904.745	18384
904.863	18365
904.981	18140
905.098	17931
905.216	17958
905.334	18019
905.451	18079
905.569	17901
905.686	18045
905.803	18049
905.921	17764
906.038	17859
906.155	17786
906.272	17611
906.389	17638
906.506	17433
906.623	17551
906.74	17482
906.857	17326
906.974	17425
907.091	17444
907.208	17661
907.324	17501
907.441	17383
907.557	17372
907.674	17178
907.79	17090
907.907	17208
908.023	17239
908.139	17341
908.256	17223
908.372	17132
908.488	17041
908.604	16991
908.72	16831
908.836	16953
908.952	16976
909.068	16999
909.184	17067
909.3	16904
909.415	16980
909.531	17003
909.647	16713
909.762	16740
909.878	16607
909.993	16596
910.108	16634
910.224	16584
910.339	16550
910.454	16538
910.57	16546
910.685	16375
910.8	16687
910.915	16569
911.03	16409
911.145	16303
911.259	16284
911.374	16234
911.489	16306
911.604	16169
911.718	15949
911.833	15953
911.947	15842
912.062	15831
912.176	15994
912.291	15998
912.405	16040
912.519	16196
912.633	16234
912.748	16105
912.862	16025
912.976	15888
913.09	15663
913.204	15785
913.318	15880
913.431	15903
913.545	15861
913.659	15934
913.772	15743
913.886	15656
914	15591
914.113	15785
914.226	15648
914.34	15751
914.453	15557
914.566	15591
914.68	15477
914.793	15435
914.906	15294
915.019	15264
915.132	15214
915.245	15268
915.358	15298
915.47	15230
915.583	15275
915.696	15252
915.809	15340
915.921	15359
916.034	15192
916.146	15055
916.259	15104
916.371	15199
916.483	15249
916.595	15131
916.708	15085
916.82	15093
916.932	15108
917.044	14986
917.156	14937
917.268	14906
917.38	14975
917.491	14925
917.603	14788
917.715	14902
917.826	14994
917.938	14785
918.049	14640
918.161	14807
918.272	14986
918.384	14979
918.495	14819
918.606	14636
918.717	14659
918.828	14667
918.939	14735
919.05	14571
919.161	14594
919.272	14492
919.383	14476
919.494	14617
919.604	14826
919.715	14674
919.826	14541
919.936	14587
920.047	14594
920.157	14571
920.267	14807
920.378	14583
920.488	14621
920.598	14769
920.708	14826
920.818	14735
920.928	14697
921.038	14864
921.148	14815
921.258	14594
921.368	14484
921.477	14278
921.587	14377
921.697	14202
921.806	14393
921.916	14221
922.025	13978
922.134	14062
922.244	13883
922.353	14020
922.462	13852
922.571	13799
922.68	13632
922.789	13586
922.898	13670
923.007	13525
923.116	13655
923.224	13658
923.333	13537
923.442	13445
923.55	13457
923.659	13464
923.767	13521
923.876	13377
923.984	13514
924.092	13324
924.201	13476
924.309	13369
924.417	13339
924.525	13343
924.633	13175
924.741	14012
924.849	12966
924.956	13198
925.064	13042
925.172	12935
925.279	12943
925.387	12989
925.494	13057
925.602	13183
925.709	13031
925.816	12920
925.924	12973
926.031	12985
926.138	12958
926.245	13015
926.352	12829
926.459	13050
926.566	13012
926.673	12924
926.779	12795
926.886	12768
926.993	12757
927.099	12589
927.206	12616
927.312	12635
927.419	12555
927.525	12627
927.631	12509
927.737	12513
927.843	12467
927.95	12342
928.056	12422
928.162	12452
928.267	12506
928.373	12951
928.479	12509
928.585	12277
928.69	12433
928.796	12452
928.901	12216
929.007	12072
929.112	12304
929.218	12277
929.323	12083
929.428	12098
929.533	12262
929.638	12057
929.743	12041
929.848	12171
929.953	12060
930.058	11954
930.163	11847
930.267	11843
930.372	12049
930.477	11748
930.581	12087
930.685	11843
930.79	11714
930.894	11649
930.998	11657
931.103	11805
931.207	11501
931.311	11395
931.415	11376
931.519	11185
931.623	11143
