Data from test_V78500241_541.txt Node
Date: Fri Mar 25 15:13:37 CST 2022
User: usil
Spectrometer: V785-0024
Trigger mode: 0
Integration Time (sec): 4.000000E-1
Scans to average: 1
Nonlinearity correction enabled: false
Boxcar width: 0
Storing dark spectrum: false
XAxis mode: Wavelengths
Number of Pixels in Spectrum: 1024
>>>>>Begin Spectral Data<<<<<
801.071	27405
801.214	27089
801.356	27020
801.499	26910
801.641	26918
801.783	26830
801.926	26948
802.068	26902
802.211	26815
802.353	26674
802.496	26453
802.638	26526
802.78	26518
802.923	26442
803.065	26461
803.208	26465
803.35	26552
803.492	26530
803.635	26530
803.777	26514
803.919	26545
804.061	27036
804.204	26625
804.346	26495
804.488	26579
804.63	26587
804.773	26431
804.915	26518
805.057	26716
805.199	26788
805.341	26807
805.483	26617
805.626	26788
805.768	26511
805.91	26727
806.052	26746
806.194	26545
806.336	26925
806.478	26815
806.62	26727
806.762	26731
806.904	26963
807.046	27340
807.188	27154
807.33	27154
807.472	27237
807.614	27017
807.756	27127
807.898	26861
808.04	26880
808.182	26940
808.324	26937
808.465	27043
808.607	27051
808.749	27408
808.891	27507
809.033	27511
809.174	27412
809.316	27336
809.458	27348
809.6	27344
809.741	27447
809.883	27534
810.025	27720
810.166	27701
810.308	27736
810.45	27660
810.591	27511
810.733	27473
810.875	27454
811.016	27310
811.158	27272
811.299	27450
811.441	27553
811.582	27557
811.724	27329
811.865	27321
812.007	27184
812.148	27310
812.29	27374
812.431	27443
812.573	27667
812.714	27743
812.855	27941
812.997	28059
813.138	28067
813.279	27991
813.421	27880
813.562	27941
813.703	27770
813.845	27679
813.986	27252
814.127	27100
814.268	27096
814.41	27096
814.551	26921
814.692	27066
814.833	26792
814.974	26857
815.115	27013
815.256	26868
815.397	26906
815.539	26853
815.68	26880
815.821	26705
815.962	26697
816.103	26788
816.244	26682
816.385	26655
816.526	26503
816.666	26404
816.807	26324
816.948	26263
817.089	26438
817.23	26256
817.371	26343
817.512	26343
817.653	26309
817.793	26263
817.934	26119
818.075	26305
818.216	26332
818.356	26256
818.497	26263
818.638	26130
818.778	25951
818.919	25978
819.06	26218
819.2	26214
819.341	26225
819.481	26191
819.622	26473
819.762	26442
819.903	26465
820.043	26583
820.184	26366
820.324	26393
820.465	26560
820.605	26343
820.746	26339
820.886	26324
821.026	26377
821.167	26427
821.307	26476
821.447	26396
821.588	26225
821.728	26050
821.868	25852
822.008	25788
822.149	25811
822.289	25788
822.429	25586
822.569	25354
822.709	25468
822.849	25419
822.99	25221
823.13	25324
823.27	25194
823.41	25027
823.55	24909
823.69	25034
823.83	25031
823.97	24966
824.11	24897
824.25	24932
824.389	24928
824.529	24890
824.669	24985
824.809	25103
824.949	24943
825.089	24970
825.228	24977
825.368	24661
825.508	24703
825.648	24654
825.787	24711
825.927	24798
826.067	24776
826.206	24646
826.346	24745
826.485	24715
826.625	24745
826.765	24837
826.904	24768
827.044	24505
827.183	24616
827.323	24521
827.462	24540
827.601	24403
827.741	24388
827.88	24574
828.02	24418
828.159	24445
828.298	24467
828.437	24597
828.577	24369
828.716	24623
828.855	24243
828.994	24163
829.134	24117
829.273	24224
829.412	24038
829.551	24079
829.69	24186
829.829	24235
829.968	24235
830.107	24220
830.246	24186
830.385	24087
830.524	24098
830.663	23992
830.802	23977
830.941	23752
831.08	23790
831.219	23802
831.357	23840
831.496	24003
831.635	23893
831.774	23619
831.913	23745
832.051	23448
832.19	23524
832.329	23722
832.467	23512
832.606	23455
832.744	23497
832.883	23436
833.022	23425
833.16	23463
833.299	23608
833.437	23505
833.576	23520
833.714	23505
833.852	23528
833.991	23619
834.129	23558
834.267	23581
834.406	23539
834.544	23630
834.682	23570
834.821	23638
834.959	23672
835.097	23429
835.235	23577
835.373	23353
835.511	23459
835.65	23433
835.788	23318
835.926	23261
836.064	23212
836.202	23204
836.34	23368
836.478	23505
836.615	23315
836.753	23322
836.891	23433
837.029	23391
837.167	23356
837.305	23235
837.443	23307
837.58	23227
837.718	23258
837.856	23318
837.993	23166
838.131	23155
838.269	23124
838.406	23003
838.544	22999
838.681	22980
838.819	22835
838.956	22645
839.094	22675
839.231	22809
839.369	22824
839.506	23071
839.643	22968
839.781	22645
839.918	22596
840.055	22637
840.193	22645
840.33	22618
840.467	22630
840.604	22542
840.742	22911
840.879	22538
841.016	22538
841.153	22573
841.29	22771
841.427	22683
841.564	22649
841.701	22588
841.838	22542
841.975	22569
842.112	22573
842.249	22402
842.385	22379
842.522	22615
842.659	22249
842.796	22318
842.933	22379
843.069	22356
843.206	22379
843.343	22504
843.479	22379
843.616	22371
843.752	22265
843.889	22147
844.025	22352
844.162	22230
844.298	22310
844.435	22147
844.571	22029
844.708	22169
844.844	22306
844.98	22409
845.117	22219
845.253	22105
845.389	21972
845.525	22109
845.661	22029
845.798	22021
845.934	22040
846.07	21781
846.206	22002
846.342	22124
846.478	21831
846.614	21660
846.75	21595
846.886	21724
847.022	21717
847.158	21755
847.294	21610
847.429	21663
847.565	21557
847.701	21842
847.837	21386
847.972	21351
848.108	21500
848.244	21538
848.379	21310
848.515	21180
848.65	21184
848.786	21291
848.921	21348
849.057	21283
849.192	21359
849.328	21211
849.463	21180
849.598	21226
849.734	21089
849.869	21020
850.004	20921
850.14	20979
850.275	21013
850.41	20948
850.545	20883
850.68	20960
850.815	21001
850.95	21013
851.085	21252
851.22	20982
851.355	21024
851.49	21024
851.625	20883
851.76	20937
851.895	20952
852.03	20876
852.165	20944
852.299	21104
852.434	21017
852.569	20902
852.703	21028
852.838	20982
852.973	21192
853.107	21150
853.242	20834
853.376	20857
853.511	20746
853.645	20811
853.78	20971
853.914	20849
854.048	20792
854.183	20834
854.317	20705
854.451	20933
854.585	20811
854.72	20819
854.854	20948
854.988	20834
855.122	20838
855.256	20667
855.39	20727
855.524	20788
855.658	20823
855.792	20998
855.926	20883
856.06	20967
856.194	20963
856.327	20849
856.461	20785
856.595	20739
856.729	20823
856.862	20910
856.996	20880
857.13	20880
857.263	20849
857.397	20899
857.53	20777
857.664	20937
857.797	20880
857.931	20979
858.064	20758
858.197	20899
858.331	20750
858.464	20758
858.597	20746
858.731	20773
858.864	20842
858.997	20777
859.13	20746
859.263	20716
859.396	20994
859.529	20853
859.662	20781
859.795	20739
859.928	20883
860.061	20971
860.194	21024
860.327	20792
860.46	20686
860.592	21047
860.725	20925
860.858	20925
860.99	20899
861.123	20712
861.256	20727
861.388	20788
861.521	21405
861.653	20720
861.786	20552
861.918	20640
862.05	20629
862.183	20743
862.315	20693
862.447	20724
862.58	20701
862.712	20488
862.844	20583
862.976	20530
863.108	20594
863.24	20906
863.372	20476
863.504	20457
863.636	20514
863.768	20541
863.9	20613
864.032	20507
864.164	20533
864.296	20636
864.428	20598
864.559	20541
864.691	20549
864.823	20499
864.954	20511
865.086	20484
865.217	20415
865.349	20267
865.48	20404
865.612	20438
865.743	20621
865.875	20507
866.006	20358
866.137	20450
866.269	20476
866.4	20511
866.531	20400
866.662	20484
866.793	20202
866.924	20259
867.055	20446
867.186	20374
867.317	20393
867.448	20286
867.579	20355
867.71	20298
867.841	20210
867.972	20415
868.103	20431
868.233	20454
868.364	20503
868.495	20522
868.625	20606
868.756	20735
868.886	20549
869.017	20621
869.147	20655
869.278	20697
869.408	20663
869.539	20583
869.669	20689
869.799	20575
869.929	20708
870.06	20651
870.19	20982
870.32	20921
870.45	20990
870.58	21077
870.71	21154
870.84	21074
870.97	21096
871.1	20861
871.23	21119
871.36	21173
871.489	21020
871.619	21104
871.749	21169
871.879	21199
872.008	21252
872.138	21222
872.267	21245
872.397	21020
872.526	21013
872.656	21043
872.785	21036
872.915	21287
873.044	21207
873.173	21252
873.303	21256
873.432	21241
873.561	21340
873.69	21264
873.819	21264
873.948	21291
874.077	21146
874.206	21119
874.335	21237
874.464	21336
874.593	21538
874.722	21389
874.851	21397
874.979	21523
875.108	21439
875.237	21420
875.365	21329
875.494	21496
875.623	21507
875.751	21496
875.88	21477
876.008	21580
876.136	21606
876.265	22013
876.393	21964
876.521	21838
876.65	21876
876.778	21865
876.906	21781
877.034	21789
877.162	21793
877.29	21770
877.418	21884
877.546	21854
877.674	21675
877.802	21850
877.93	21850
878.058	21850
878.185	21701
878.313	21785
878.441	21743
878.568	21743
878.696	21709
878.824	21884
878.951	21835
879.079	22086
879.206	22200
879.333	21861
879.461	21812
879.588	21884
879.715	22002
879.842	22147
879.97	21888
880.097	21553
880.224	21618
880.351	21561
880.478	21694
880.605	21526
880.732	21770
880.859	21827
880.986	21682
881.112	21656
881.239	21382
881.366	21511
881.493	21264
881.619	21169
881.746	21351
881.872	21245
881.999	21218
882.125	21226
882.252	21260
882.378	21070
882.505	21401
882.631	21043
882.757	20906
882.883	20933
883.01	20944
883.136	20914
883.262	20621
883.388	20872
883.514	20762
883.64	20941
883.766	20891
883.892	20686
884.018	20701
884.143	20880
884.269	20899
884.395	20629
884.52	20613
884.646	20636
884.772	20693
884.897	20351
885.023	20579
885.148	20632
885.274	20705
885.399	20663
885.524	20590
885.65	20598
885.775	20636
885.9	20552
886.025	20678
886.15	20716
886.275	20533
886.4	20469
886.525	20545
886.65	20431
886.775	20415
886.9	20625
887.025	20750
887.149	20556
887.274	20370
887.399	20355
887.523	20309
887.648	20298
887.773	20294
887.897	20301
888.021	20275
888.146	20336
888.27	20476
888.395	20301
888.519	20320
888.643	20442
888.767	20358
888.891	20225
889.015	20153
889.139	20157
889.263	20058
889.387	20324
889.511	20400
889.635	20286
889.759	20149
889.883	20084
890.006	20237
890.13	20161
890.254	19997
890.377	20031
890.501	19955
890.624	19791
890.748	20008
890.871	19753
890.995	19780
891.118	19643
891.241	19814
891.364	19674
891.488	19822
891.611	19677
891.734	19727
891.857	19822
891.98	19719
892.103	19776
892.226	19674
892.349	19567
892.471	19548
892.594	19620
892.717	19582
892.839	19693
892.962	19681
893.085	19666
893.207	19761
893.33	19483
893.452	19480
893.575	19788
893.697	19533
893.819	19833
893.941	19715
894.064	19879
894.186	19624
894.308	19548
894.43	19708
894.552	19753
894.674	19803
894.796	19575
894.918	19685
895.04	19575
895.161	19734
895.283	19746
895.405	19582
895.526	19662
895.648	19670
895.769	19651
895.891	19670
896.012	19685
896.134	19715
896.255	19635
896.376	19693
896.498	19594
896.619	19662
896.74	19677
896.861	19723
896.982	20005
897.103	20092
897.224	19852
897.345	19852
897.466	19879
897.587	19830
897.708	19982
897.828	19871
897.949	19868
898.07	19696
898.19	19734
898.311	19974
898.431	19811
898.552	19833
898.672	19936
898.792	20035
898.913	19708
899.033	19776
899.153	19727
899.273	19502
899.393	19590
899.513	19620
899.633	19693
899.753	19582
899.873	19590
899.993	19571
900.113	19506
900.232	19571
900.352	19548
900.472	19350
900.591	19343
900.711	19407
900.83	19396
900.95	19468
901.069	19419
901.189	19194
901.308	19141
901.427	19103
901.546	19031
901.665	18932
901.784	18966
901.904	18924
902.023	18776
902.141	18540
902.26	18528
902.379	18616
902.498	18467
902.617	18490
902.735	18555
902.854	18452
902.973	18433
903.091	18296
903.21	18224
903.328	18182
903.446	18121
903.565	17973
903.683	18038
903.801	17973
903.919	17824
904.038	17969
904.156	17847
904.274	17828
904.392	17748
904.51	17733
904.627	17718
904.745	17851
904.863	17745
904.981	17547
905.098	17486
905.216	17467
905.334	17433
905.451	17493
905.569	17471
905.686	17509
905.803	17539
905.921	17231
906.038	17261
906.155	17208
906.272	17128
906.389	17121
906.506	17067
906.623	17033
906.74	17033
906.857	16900
906.974	16866
907.091	17151
907.208	17045
907.324	17025
907.441	16908
907.557	16729
907.674	16660
907.79	16668
907.907	16713
908.023	16835
908.139	16759
908.256	16645
908.372	16649
908.488	16542
908.604	16497
908.72	16440
908.836	16386
908.952	16516
909.068	16413
909.184	16459
909.3	16478
909.415	16424
909.531	16367
909.647	16109
909.762	16131
909.878	16120
909.993	16154
910.108	16169
910.224	16086
910.339	16105
910.454	16040
910.57	15991
910.685	15953
910.8	16185
910.915	16059
911.03	15987
911.145	15808
911.259	15724
911.374	15698
911.489	15610
911.604	15557
911.718	15496
911.833	15553
911.947	15439
912.062	15272
912.176	15462
912.291	15473
912.405	15580
912.519	15576
912.633	15694
912.748	15530
912.862	15530
912.976	15321
913.09	15184
913.204	15264
913.318	15348
913.431	15412
913.545	15393
913.659	15351
913.772	15226
913.886	15214
914	15127
914.113	15195
914.226	15214
914.34	15211
914.453	15066
914.566	15150
914.68	15077
914.793	14876
914.906	14830
915.019	14781
915.132	14708
915.245	14701
915.358	14834
915.47	14792
915.583	14644
915.696	14815
915.809	14849
915.921	14883
916.034	14720
916.146	14678
916.259	14583
916.371	14659
916.483	14625
916.595	14617
916.708	14636
916.82	14571
916.932	14484
917.044	14571
917.156	14514
917.268	14393
917.38	14362
917.491	14313
917.603	14381
917.715	14556
917.826	14556
917.938	14309
918.049	14248
918.161	14374
918.272	14511
918.384	14465
918.495	14393
918.606	14195
918.717	14164
918.828	14183
918.939	14237
919.05	14126
919.161	14157
919.272	13947
919.383	14069
919.494	14267
919.604	14309
919.715	14195
919.826	14054
919.936	14092
920.047	14153
920.157	14172
920.267	14370
920.378	14145
920.488	14073
920.598	14252
920.708	14473
920.818	14233
920.928	14263
921.038	14484
921.148	14442
921.258	14187
921.368	14039
921.477	13909
921.587	13772
921.697	13761
921.806	14008
921.916	13791
922.025	13563
922.134	13472
922.244	13544
922.353	13597
922.462	13411
922.571	13293
922.68	13171
922.789	13179
922.898	13240
923.007	13175
923.116	13183
923.224	13129
923.333	13095
923.442	13095
923.55	13076
923.659	13027
923.767	13107
923.876	12973
923.984	13069
924.092	12890
924.201	13034
924.309	12951
924.417	12901
924.525	12776
924.633	12905
924.741	13525
924.849	12654
924.956	12806
925.064	12681
925.172	12616
925.279	12616
925.387	12616
925.494	12646
925.602	12692
925.709	12688
925.816	12578
925.924	12612
926.031	12654
926.138	12525
926.245	12509
926.352	12475
926.459	12589
926.566	12544
926.673	12498
926.779	12369
926.886	12330
926.993	12247
927.099	12205
927.206	12144
927.312	12178
927.419	12178
927.525	12190
927.631	12155
927.737	12171
927.843	12079
927.95	11904
928.056	11984
928.162	12026
928.267	12083
928.373	12502
928.479	12190
928.585	11817
928.69	11878
928.796	12019
928.901	11832
929.007	11691
929.112	11904
929.218	11912
929.323	11764
929.428	11760
929.533	11908
929.638	11722
929.743	11684
929.848	11737
929.953	11646
930.058	11600
930.163	11429
930.267	11482
930.372	11619
930.477	11360
930.581	11657
930.685	11417
930.79	11315
930.894	11330
930.998	11277
931.103	11505
931.207	11010
931.311	11003
931.415	10869
931.519	10752
931.623	10759
