Data from test_V78500241_2961.txt Node
Date: Fri Mar 25 15:30:28 CST 2022
User: usil
Spectrometer: V785-0024
Trigger mode: 0
Integration Time (sec): 4.000000E-1
Scans to average: 1
Nonlinearity correction enabled: false
Boxcar width: 0
Storing dark spectrum: false
XAxis mode: Wavelengths
Number of Pixels in Spectrum: 1024
>>>>>Begin Spectral Data<<<<<
801.071	27051
801.214	26967
801.356	26739
801.499	26712
801.641	26552
801.783	26526
801.926	26613
802.068	26689
802.211	26476
802.353	26499
802.496	26339
802.638	26286
802.78	26377
802.923	26221
803.065	26062
803.208	26164
803.35	26244
803.492	26309
803.635	26408
803.777	26301
803.919	26396
804.061	26648
804.204	26389
804.346	26457
804.488	26244
804.63	26480
804.773	26336
804.915	26355
805.057	26358
805.199	26290
805.341	26446
805.483	26492
805.626	26423
805.768	26370
805.91	26499
806.052	26533
806.194	26385
806.336	26636
806.478	26473
806.62	26427
806.762	26457
806.904	26621
807.046	27001
807.188	26811
807.33	26952
807.472	26963
807.614	26914
807.756	26887
807.898	26765
808.04	26507
808.182	26708
808.324	26682
808.465	26663
808.607	26864
808.749	27043
808.891	27256
809.033	27199
809.174	27062
809.316	27032
809.458	27077
809.6	26956
809.741	27066
809.883	27108
810.025	27199
810.166	27355
810.308	27359
810.45	27249
810.591	27344
810.733	27127
810.875	27028
811.016	26918
811.158	26940
811.299	27062
811.441	27157
811.582	27302
811.724	27123
811.865	27096
812.007	26963
812.148	26868
812.29	27123
812.431	27188
812.573	27329
812.714	27279
812.855	27450
812.997	27633
813.138	27732
813.279	27675
813.421	27538
813.562	27458
813.703	27226
813.845	27313
813.986	26845
814.127	26826
814.268	26693
814.41	26655
814.551	26693
814.692	26785
814.833	26602
814.974	26758
815.115	26659
815.256	26632
815.397	26495
815.539	26488
815.68	26469
815.821	26400
815.962	26495
816.103	26355
816.244	26336
816.385	26225
816.526	26191
816.666	25989
816.807	26008
816.948	26039
817.089	26050
817.23	25921
817.371	26005
817.512	25925
817.653	25788
817.793	25860
817.934	25894
818.075	25883
818.216	25963
818.356	25852
818.497	25894
818.638	25712
818.778	25776
818.919	25689
819.06	25746
819.2	25731
819.341	25936
819.481	25887
819.622	26088
819.762	26313
819.903	26187
820.043	26081
820.184	26115
820.324	25978
820.465	26138
820.605	26096
820.746	26134
820.886	25814
821.026	25925
821.167	25959
821.307	26134
821.447	26012
821.588	25913
821.728	25731
821.868	25594
822.008	25430
822.149	25358
822.289	25445
822.429	25168
822.569	25110
822.709	25027
822.849	24935
822.99	24867
823.13	24985
823.27	24833
823.41	24760
823.55	24547
823.69	24730
823.83	24635
823.97	24650
824.11	24502
824.25	24604
824.389	24623
824.529	24536
824.669	24574
824.809	24635
824.949	24696
825.089	24669
825.228	24563
825.368	24277
825.508	24266
825.648	24502
825.787	24327
825.927	24350
826.067	24361
826.206	24422
826.346	24289
826.485	24407
826.625	24292
826.765	24486
826.904	24395
827.044	24133
827.183	24201
827.323	24091
827.462	24289
827.601	24060
827.741	23950
827.88	24129
828.02	23984
828.159	24106
828.298	24049
828.437	24060
828.577	24038
828.716	24133
828.855	23958
828.994	23779
829.134	23798
829.273	23923
829.412	23764
829.551	23741
829.69	23756
829.829	23752
829.968	23824
830.107	23885
830.246	23718
830.385	23756
830.524	23653
830.663	23627
830.802	23486
830.941	23429
831.08	23345
831.219	23493
831.357	23512
831.496	23585
831.635	23330
831.774	23242
831.913	23204
832.051	23029
832.19	23246
832.329	23155
832.467	23132
832.606	22953
832.744	22980
832.883	23174
833.022	22968
833.16	23067
833.299	23083
833.437	23124
833.576	23147
833.714	23025
833.852	23105
833.991	23178
834.129	23250
834.267	23303
834.406	23109
834.544	23022
834.682	23090
834.821	23010
834.959	23284
835.097	22984
835.235	23124
835.373	23090
835.511	23098
835.65	22995
835.788	23041
835.926	22873
836.064	22763
836.202	22843
836.34	22953
836.478	23117
836.615	22828
836.753	22862
836.891	23117
837.029	22828
837.167	22812
837.305	22835
837.443	22790
837.58	22698
837.718	22900
837.856	22797
837.993	22733
838.131	22812
838.269	22660
838.406	22759
838.544	22660
838.681	22447
838.819	22417
838.956	22310
839.094	22318
839.231	22249
839.369	22341
839.506	22565
839.643	22489
839.781	22234
839.918	22249
840.055	22261
840.193	22120
840.33	22204
840.467	22257
840.604	22181
840.742	22440
840.879	22067
841.016	22242
841.153	22093
841.29	22219
841.427	22143
841.564	22204
841.701	22196
841.838	22234
841.975	22112
842.112	22109
842.249	21930
842.385	22040
842.522	22147
842.659	22192
842.796	21903
842.933	22032
843.069	21812
843.206	21827
843.343	21903
843.479	21846
843.616	21926
843.752	21751
843.889	21800
844.025	21823
844.162	21698
844.298	21751
844.435	21747
844.571	21717
844.708	21838
844.844	21873
844.98	21880
845.117	21838
845.253	21701
845.389	21663
845.525	21679
845.661	21553
845.798	21549
845.934	21485
846.07	21450
846.206	21622
846.342	21534
846.478	21500
846.614	21241
846.75	21249
846.886	21116
847.022	21359
847.158	21211
847.294	21165
847.429	21306
847.565	21165
847.701	21367
847.837	20937
847.972	20952
848.108	20921
848.244	20998
848.379	20872
848.515	20769
848.65	20823
848.786	20754
848.921	20796
849.057	20967
849.192	20842
849.328	20823
849.463	20807
849.598	20720
849.734	20724
849.869	20716
850.004	20549
850.14	20670
850.275	20514
850.41	20503
850.545	20473
850.68	20511
850.815	20621
850.95	20590
851.085	20743
851.22	20720
851.355	20716
851.49	20514
851.625	20667
851.76	20625
851.895	20552
852.03	20469
852.165	20518
852.299	20659
852.434	20727
852.569	20575
852.703	20587
852.838	20602
852.973	20609
853.107	20731
853.242	20408
853.376	20336
853.511	20385
853.645	20396
853.78	20587
853.914	20389
854.048	20328
854.183	20358
854.317	20450
854.451	20522
854.585	20454
854.72	20476
854.854	20499
854.988	20221
855.122	20552
855.256	20381
855.39	20434
855.524	20473
855.658	20442
855.792	20408
855.926	20377
856.06	20328
856.194	20511
856.327	20362
856.461	20385
856.595	20385
856.729	20427
856.862	20503
856.996	20492
857.13	20415
857.263	20480
857.397	20511
857.53	20476
857.664	20438
857.797	20355
857.931	20457
858.064	20343
858.197	20442
858.331	20446
858.464	20309
858.597	20199
858.731	20320
858.864	20377
858.997	20313
859.13	20434
859.263	20404
859.396	20454
859.529	20309
859.662	20389
859.795	20347
859.928	20495
860.061	20564
860.194	20590
860.327	20469
860.46	20351
860.592	20492
860.725	20514
860.858	20469
860.99	20362
861.123	20347
861.256	20465
861.388	20419
861.521	20963
861.653	20210
861.786	20142
861.918	20259
862.05	20298
862.183	20442
862.315	20347
862.447	20434
862.58	20259
862.712	20035
862.844	20077
862.976	20172
863.108	20149
863.24	20560
863.372	20161
863.504	20126
863.636	20111
863.768	20164
863.9	20046
864.032	20005
864.164	20138
864.296	20081
864.428	20328
864.559	20142
864.691	20282
864.823	20119
864.954	20191
865.086	19978
865.217	20005
865.349	20031
865.48	19947
865.612	19997
865.743	20126
865.875	20103
866.006	19921
866.137	19974
866.269	20005
866.4	19951
866.531	19875
866.662	19947
866.793	19845
866.924	19947
867.055	19890
867.186	19944
867.317	19868
867.448	19845
867.579	19860
867.71	19951
867.841	19963
867.972	20035
868.103	19955
868.233	19989
868.364	19974
868.495	20069
868.625	20164
868.756	20237
868.886	20138
869.017	20210
869.147	20374
869.278	20256
869.408	20320
869.539	20248
869.669	20259
869.799	20256
869.929	20415
870.06	20240
870.19	20461
870.32	20476
870.45	20560
870.58	20533
870.71	20769
870.84	20632
870.97	20537
871.1	20613
871.23	20689
871.36	20686
871.489	20811
871.619	20758
871.749	20765
871.879	20815
872.008	20967
872.138	20853
872.267	20834
872.397	20701
872.526	20617
872.656	20560
872.785	20716
872.915	20880
873.044	20868
873.173	20796
873.303	20880
873.432	20876
873.561	20956
873.69	20804
873.819	20849
873.948	20849
874.077	20918
874.206	20834
874.335	20849
874.464	20910
874.593	20990
874.722	20902
874.851	21047
874.979	21123
875.108	21119
875.237	21051
875.365	20914
875.494	21055
875.623	21032
875.751	20982
875.88	21192
876.008	21180
876.136	21275
876.265	21363
876.393	21583
876.521	21507
876.65	21587
876.778	21439
876.906	21447
877.034	21298
877.162	21382
877.29	21325
877.418	21355
877.546	21389
877.674	21431
877.802	21496
877.93	21397
878.058	21340
878.185	21207
878.313	21412
878.441	21466
878.568	21195
878.696	21332
878.824	21450
878.951	21526
879.079	21572
879.206	21701
879.333	21538
879.461	21420
879.588	21538
879.715	21762
879.842	21690
879.97	21443
880.097	21226
880.224	21386
880.351	21279
880.478	21184
880.605	21195
880.732	21283
880.859	21504
880.986	21294
881.112	21294
881.239	21131
881.366	20887
881.493	20899
881.619	20891
881.746	20883
881.872	20804
881.999	20804
882.125	20731
882.252	20845
882.378	20838
882.505	20960
882.631	20640
882.757	20492
882.883	20644
883.01	20476
883.136	20488
883.262	20495
883.388	20434
883.514	20522
883.64	20564
883.766	20400
883.892	20256
884.018	20347
884.143	20484
884.269	20545
884.395	20210
884.52	20069
884.646	20271
884.772	20164
884.897	20050
885.023	20183
885.148	20332
885.274	20355
885.399	20225
885.524	20237
885.65	20176
885.775	20259
885.9	20199
886.025	20332
886.15	20244
886.275	20149
886.4	20100
886.525	20233
886.65	20157
886.775	20069
886.9	20240
887.025	20343
887.149	20134
887.274	19974
887.399	19997
887.523	19852
887.648	19795
887.773	19875
887.897	20069
888.021	20024
888.146	19860
888.27	20096
888.395	20088
888.519	20039
888.643	20130
888.767	20016
888.891	19906
889.015	19811
889.139	19944
889.263	19753
889.387	19887
889.511	20020
889.635	19860
889.759	19776
889.883	19822
890.006	19807
890.13	19860
890.254	19704
890.377	19719
890.501	19514
890.624	19449
890.748	19590
890.871	19460
890.995	19266
891.118	19324
891.241	19407
891.364	19324
891.488	19384
891.611	19419
891.734	19396
891.857	19324
891.98	19343
892.103	19422
892.226	19449
892.349	19289
892.471	19175
892.594	19270
892.717	19358
892.839	19160
892.962	19373
893.085	19403
893.207	19255
893.33	19034
893.452	19247
893.575	19339
893.697	19255
893.819	19324
893.941	19468
894.064	19434
894.186	19301
894.308	19175
894.43	19301
894.552	19422
894.674	19430
894.796	19240
894.918	19301
895.04	19244
895.161	19320
895.283	19263
895.405	19255
895.526	19316
895.648	19240
895.769	19327
895.891	19289
896.012	19415
896.134	19308
896.255	19301
896.376	19190
896.498	19358
896.619	19293
896.74	19297
896.861	19244
896.982	19662
897.103	19784
897.224	19578
897.345	19594
897.466	19578
897.587	19518
897.708	19624
897.828	19571
897.949	19491
898.07	19426
898.19	19518
898.311	19594
898.431	19502
898.552	19495
898.672	19647
898.792	19674
898.913	19548
899.033	19476
899.153	19358
899.273	19202
899.393	19335
899.513	19266
899.633	19274
899.753	19320
899.873	19327
899.993	19316
900.113	19282
900.232	19392
900.352	19194
900.472	19156
900.591	19114
900.711	19183
900.83	19015
900.95	19179
901.069	19183
901.189	18970
901.308	18867
901.427	18696
901.546	18837
901.665	18604
901.784	18738
901.904	18475
902.023	18441
902.141	18327
902.26	18224
902.379	18391
902.498	18205
902.617	18232
902.735	18258
902.854	18201
902.973	18110
903.091	17908
903.21	17920
903.328	17992
903.446	17794
903.565	17699
903.683	17691
903.801	17562
903.919	17680
904.038	17661
904.156	17566
904.274	17535
904.392	17490
904.51	17429
904.627	17516
904.745	17490
904.863	17543
904.981	17189
905.098	17132
905.216	17071
905.334	17109
905.451	17147
905.569	17193
905.686	17189
905.803	17102
905.921	16930
906.038	17090
906.155	16953
906.272	16831
906.389	16824
906.506	16546
906.623	16622
906.74	16744
906.857	16588
906.974	16577
907.091	16713
907.208	16854
907.324	16698
907.441	16569
907.557	16508
907.674	16363
907.79	16344
907.907	16382
908.023	16466
908.139	16322
908.256	16352
908.372	16329
908.488	16303
908.604	16219
908.72	16177
908.836	16097
908.952	16097
909.068	16166
909.184	16371
909.3	16051
909.415	16166
909.531	16154
909.647	15823
909.762	15850
909.878	15823
909.993	15880
910.108	15831
910.224	15755
910.339	15857
910.454	15808
910.57	15686
910.685	15538
910.8	15766
910.915	15850
911.03	15637
911.145	15542
911.259	15348
911.374	15454
911.489	15382
911.604	15313
911.718	15154
911.833	15237
911.947	15192
912.062	15081
912.176	15291
912.291	15226
912.405	15218
912.519	15412
912.633	15462
912.748	15237
912.862	15268
912.976	15131
913.09	14883
913.204	14906
913.318	15043
913.431	15135
913.545	15135
913.659	15100
913.772	14963
913.886	14857
914	14830
914.113	14880
914.226	14998
914.34	14872
914.453	14804
914.566	14876
914.68	14716
914.793	14727
914.906	14552
915.019	14438
915.132	14339
915.245	14473
915.358	14545
915.47	14484
915.583	14507
915.696	14503
915.809	14610
915.921	14629
916.034	14484
916.146	14370
916.259	14366
916.371	14454
916.483	14374
916.595	14343
916.708	14301
916.82	14336
916.932	14298
917.044	14176
917.156	14259
917.268	14103
917.38	14206
917.491	14191
917.603	14214
917.715	14237
917.826	14237
917.938	14081
918.049	13947
918.161	14073
918.272	14278
918.384	14202
918.495	14005
918.606	13974
918.717	13894
918.828	14024
918.939	13970
919.05	13818
919.161	14024
919.272	13674
919.383	13738
919.494	13986
919.604	14096
919.715	14050
919.826	13780
919.936	13875
920.047	13944
920.157	13875
920.267	14115
920.378	13795
920.488	13841
920.598	14058
920.708	14172
920.818	14092
920.928	13993
921.038	14134
921.148	14195
921.258	13890
921.368	13628
921.477	13715
921.587	13605
921.697	13514
921.806	13651
921.916	13491
922.025	13426
922.134	13266
922.244	13324
922.353	13324
922.462	13183
922.571	13164
922.68	12970
922.789	12947
922.898	12966
923.007	12852
923.116	12981
923.224	12939
923.333	12962
923.442	12726
923.55	12795
923.659	12791
923.767	12806
923.876	12707
923.984	12779
924.092	12684
924.201	12700
924.309	12760
924.417	12688
924.525	12589
924.633	12604
924.741	13373
924.849	12391
924.956	12509
925.064	12498
925.172	12289
925.279	12311
925.387	12445
925.494	12407
925.602	12532
925.709	12414
925.816	12376
925.924	12369
926.031	12464
926.138	12224
926.245	12483
926.352	12235
926.459	12342
926.566	12403
926.673	12292
926.779	12171
926.886	12178
926.993	11984
927.099	12007
927.206	11923
927.312	11920
927.419	12019
927.525	12019
927.631	11954
927.737	11912
927.843	11805
927.95	11718
928.056	11843
928.162	11863
928.267	11885
928.373	12551
928.479	11889
928.585	11703
928.69	11783
928.796	11843
928.901	11688
929.007	11520
929.112	11665
929.218	11623
929.323	11577
929.428	11474
929.533	11676
929.638	11471
929.743	11448
929.848	11471
929.953	11543
930.058	11429
930.163	11254
930.267	11280
930.372	11318
930.477	11220
930.581	11436
930.685	11254
930.79	11159
930.894	11128
930.998	11102
931.103	11250
931.207	10957
931.311	10831
931.415	10691
931.519	10565
931.623	10519
