Data from test_V78500241_2779.txt Node
Date: Fri Mar 25 15:29:12 CST 2022
User: usil
Spectrometer: V785-0024
Trigger mode: 0
Integration Time (sec): 4.000000E-1
Scans to average: 1
Nonlinearity correction enabled: false
Boxcar width: 0
Storing dark spectrum: false
XAxis mode: Wavelengths
Number of Pixels in Spectrum: 1024
>>>>>Begin Spectral Data<<<<<
801.071	27287
801.214	27055
801.356	26910
801.499	26785
801.641	26720
801.783	26705
801.926	26785
802.068	26644
802.211	26648
802.353	26606
802.496	26301
802.638	26358
802.78	26218
802.923	26210
803.065	26309
803.208	26126
803.35	26358
803.492	26305
803.635	26495
803.777	26358
803.919	26495
804.061	26743
804.204	26530
804.346	26385
804.488	26267
804.63	26305
804.773	26381
804.915	26336
805.057	26522
805.199	26389
805.341	26457
805.483	26514
805.626	26693
805.768	26438
805.91	26355
806.052	26598
806.194	26480
806.336	26746
806.478	26636
806.62	26533
806.762	26689
806.904	26940
807.046	26979
807.188	27116
807.33	27039
807.472	27051
807.614	27036
807.756	26899
807.898	26708
808.04	26880
808.182	26849
808.324	26754
808.465	26933
808.607	27039
808.749	27184
808.891	27207
809.033	27317
809.174	27017
809.316	27192
809.458	27066
809.6	27135
809.741	27237
809.883	27291
810.025	27416
810.166	27576
810.308	27454
810.45	27359
810.591	27382
810.733	27298
810.875	27184
811.016	27100
811.158	27112
811.299	27192
811.441	27336
811.582	27317
811.724	27298
811.865	27127
812.007	27207
812.148	27218
812.29	26990
812.431	27367
812.573	27367
812.714	27614
812.855	27583
812.997	27895
813.138	27884
813.279	27686
813.421	27625
813.562	27610
813.703	27485
813.845	27313
813.986	27013
814.127	26956
814.268	26895
814.41	26910
814.551	26830
814.692	26861
814.833	26632
814.974	26792
815.115	26834
815.256	26792
815.397	26644
815.539	26667
815.68	26670
815.821	26492
815.962	26617
816.103	26503
816.244	26396
816.385	26275
816.526	26313
816.666	26103
816.807	26065
816.948	26145
817.089	26168
817.23	26065
817.371	26046
817.512	25997
817.653	26065
817.793	25986
817.934	26020
818.075	26100
818.216	26218
818.356	25982
818.497	25989
818.638	25715
818.778	25799
818.919	25734
819.06	25913
819.2	25860
819.341	26012
819.481	26012
819.622	26122
819.762	26309
819.903	26294
820.043	26176
820.184	26256
820.324	26130
820.465	26206
820.605	26134
820.746	26039
820.886	26046
821.026	26043
821.167	25955
821.307	26172
821.447	26035
821.588	25845
821.728	25944
821.868	25727
822.008	25502
822.149	25518
822.289	25540
822.429	25255
822.569	25168
822.709	25221
822.849	25015
822.99	24977
823.13	25110
823.27	24962
823.41	24852
823.55	24719
823.69	24856
823.83	24768
823.97	24700
824.11	24635
824.25	24532
824.389	24631
824.529	24726
824.669	24696
824.809	24696
824.949	24829
825.089	24688
825.228	24654
825.368	24505
825.508	24509
825.648	24555
825.787	24525
825.927	24585
826.067	24505
826.206	24578
826.346	24536
826.485	24483
826.625	24547
826.765	24673
826.904	24570
827.044	24323
827.183	24327
827.323	24155
827.462	24395
827.601	24174
827.741	24186
827.88	24270
828.02	24144
828.159	24114
828.298	24102
828.437	24273
828.577	24133
828.716	24365
828.855	24068
828.994	23904
829.134	23878
829.273	23958
829.412	23859
829.551	23851
829.69	23832
829.829	23980
829.968	23958
830.107	23920
830.246	23916
830.385	23771
830.524	23908
830.663	23805
830.802	23649
830.941	23566
831.08	23402
831.219	23615
831.357	23657
831.496	23695
831.635	23524
831.774	23379
831.913	23273
832.051	23334
832.19	23258
832.329	23273
832.467	23258
832.606	22877
832.744	23014
832.883	23170
833.022	23155
833.16	23132
833.299	23189
833.437	23254
833.576	23143
833.714	23204
833.852	23292
833.991	23220
834.129	23341
834.267	23239
834.406	23330
834.544	23288
834.682	23261
834.821	23170
834.959	23406
835.097	23315
835.235	23273
835.373	23200
835.511	23235
835.65	23162
835.788	23140
835.926	23006
836.064	22847
836.202	23018
836.34	23265
836.478	23132
836.615	23166
836.753	23140
836.891	23147
837.029	23140
837.167	23006
837.305	22965
837.443	22900
837.58	22919
837.718	23018
837.856	22892
837.993	22911
838.131	22881
838.269	22820
838.406	22938
838.544	22752
838.681	22580
838.819	22596
838.956	22424
839.094	22421
839.231	22402
839.369	22554
839.506	22721
839.643	22771
839.781	22443
839.918	22287
840.055	22405
840.193	22344
840.33	22333
840.467	22394
840.604	22382
840.742	22607
840.879	22185
841.016	22303
841.153	22284
841.29	22436
841.427	22303
841.564	22318
841.701	22394
841.838	22284
841.975	22162
842.112	22337
842.249	22249
842.385	22147
842.522	22341
842.659	22299
842.796	22036
842.933	22067
843.069	21953
843.206	22059
843.343	22211
843.479	22070
843.616	22131
843.752	21903
843.889	21975
844.025	22040
844.162	21808
844.298	22059
844.435	21949
844.571	21785
844.708	21949
844.844	22078
844.98	21876
845.117	22032
845.253	21793
845.389	21751
845.525	21736
845.661	21827
845.798	21660
845.934	21633
846.07	21492
846.206	21564
846.342	21667
846.478	21466
846.614	21439
846.75	21340
846.886	21302
847.022	21431
847.158	21431
847.294	21428
847.429	21507
847.565	21249
847.701	21580
847.837	21165
847.972	21100
848.108	21260
848.244	21199
848.379	21013
848.515	20933
848.65	20887
848.786	20921
848.921	20880
849.057	21005
849.192	20982
849.328	20902
849.463	20971
849.598	20921
849.734	20830
849.869	20819
850.004	20777
850.14	20773
850.275	20701
850.41	20507
850.545	20648
850.68	20632
850.815	20807
850.95	20632
851.085	20838
851.22	20868
851.355	20686
851.49	20678
851.625	20575
851.76	20625
851.895	20701
852.03	20651
852.165	20682
852.299	20750
852.434	20788
852.569	20727
852.703	20708
852.838	20773
852.973	20902
853.107	20880
853.242	20644
853.376	20545
853.511	20457
853.645	20495
853.78	20621
853.914	20492
854.048	20621
854.183	20480
854.317	20640
854.451	20705
854.585	20587
854.72	20465
854.854	20632
854.988	20514
855.122	20636
855.256	20412
855.39	20564
855.524	20735
855.658	20606
855.792	20602
855.926	20461
856.06	20564
856.194	20590
856.327	20503
856.461	20556
856.595	20438
856.729	20412
856.862	20651
856.996	20568
857.13	20560
857.263	20644
857.397	20602
857.53	20575
857.664	20594
857.797	20488
857.931	20689
858.064	20541
858.197	20670
858.331	20469
858.464	20476
858.597	20465
858.731	20526
858.864	20640
858.997	20457
859.13	20568
859.263	20488
859.396	20659
859.529	20457
859.662	20454
859.795	20518
859.928	20640
860.061	20693
860.194	20686
860.327	20541
860.46	20670
860.592	20594
860.725	20651
860.858	20609
860.99	20606
861.123	20393
861.256	20377
861.388	20514
861.521	21104
861.653	20339
861.786	20290
861.918	20408
862.05	20362
862.183	20419
862.315	20454
862.447	20465
862.58	20465
862.712	20275
862.844	20290
862.976	20290
863.108	20389
863.24	20667
863.372	20244
863.504	20256
863.636	20271
863.768	20263
863.9	20313
864.032	20206
864.164	20275
864.296	20286
864.428	20328
864.559	20320
864.691	20240
864.823	20317
864.954	20225
865.086	20248
865.217	20248
865.349	20027
865.48	20084
865.612	20180
865.743	20301
865.875	20240
866.006	20115
866.137	20176
866.269	20248
866.4	20012
866.531	20081
866.662	20027
866.793	20157
866.924	20134
867.055	20168
867.186	20111
867.317	20130
867.448	19917
867.579	20126
867.71	20062
867.841	20058
867.972	20138
868.103	20126
868.233	20100
868.364	20149
868.495	20153
868.625	20339
868.756	20400
868.886	20191
869.017	20355
869.147	20450
869.278	20396
869.408	20389
869.539	20396
869.669	20347
869.799	20415
869.929	20400
870.06	20450
870.19	20678
870.32	20575
870.45	20739
870.58	20754
870.71	20883
870.84	20815
870.97	20682
871.1	20758
871.23	20929
871.36	20941
871.489	20823
871.619	20807
871.749	20933
871.879	20998
872.008	21051
872.138	20925
872.267	20948
872.397	20777
872.526	20800
872.656	20724
872.785	20754
872.915	21055
873.044	20986
873.173	20941
873.303	21028
873.432	21123
873.561	21093
873.69	21001
873.819	20929
873.948	20982
874.077	20979
874.206	21009
874.335	20883
874.464	21051
874.593	21176
874.722	21154
874.851	21146
874.979	21184
875.108	21199
875.237	21279
875.365	21070
875.494	21226
875.623	21226
875.751	21150
875.88	21275
876.008	21283
876.136	21416
876.265	21622
876.393	21736
876.521	21641
876.65	21694
876.778	21679
876.906	21606
877.034	21523
877.162	21526
877.29	21458
877.418	21481
877.546	21545
877.674	21542
877.802	21576
877.93	21523
878.058	21500
878.185	21469
878.313	21469
878.441	21515
878.568	21370
878.696	21519
878.824	21625
878.951	21622
879.079	21827
879.206	21857
879.333	21679
879.461	21618
879.588	21530
879.715	21808
879.842	21705
879.97	21656
880.097	21332
880.224	21294
880.351	21454
880.478	21416
880.605	21302
880.732	21473
880.859	21622
880.986	21401
881.112	21291
881.239	21317
881.366	21173
881.493	20986
881.619	20925
881.746	21047
881.872	20929
881.999	20895
882.125	21005
882.252	20960
882.378	21096
882.505	21081
882.631	20880
882.757	20754
882.883	20765
883.01	20727
883.136	20560
883.262	20450
883.388	20469
883.514	20754
883.64	20602
883.766	20503
883.892	20473
884.018	20461
884.143	20560
884.269	20712
884.395	20347
884.52	20351
884.646	20328
884.772	20233
884.897	20202
885.023	20393
885.148	20404
885.274	20457
885.399	20503
885.524	20347
885.65	20408
885.775	20309
885.9	20358
886.025	20446
886.15	20473
886.275	20320
886.4	20225
886.525	20305
886.65	20199
886.775	20248
886.9	20377
887.025	20457
887.149	20320
887.274	19997
887.399	20016
887.523	20138
887.648	20130
887.773	20008
887.897	20229
888.021	20119
888.146	19997
888.27	20126
888.395	20195
888.519	20126
888.643	20020
888.767	20062
888.891	20027
889.015	19890
889.139	20069
889.263	19856
889.387	19986
889.511	20103
889.635	20001
889.759	19887
889.883	19849
890.006	19814
890.13	19947
890.254	19746
890.377	19909
890.501	19788
890.624	19578
890.748	19605
890.871	19590
890.995	19525
891.118	19533
891.241	19480
891.364	19605
891.488	19635
891.611	19563
891.734	19502
891.857	19582
891.98	19460
892.103	19715
892.226	19487
892.349	19556
892.471	19400
892.594	19365
892.717	19464
892.839	19346
892.962	19422
893.085	19487
893.207	19499
893.33	19251
893.452	19346
893.575	19441
893.697	19426
893.819	19559
893.941	19544
894.064	19594
894.186	19384
894.308	19308
894.43	19590
894.552	19571
894.674	19434
894.796	19304
894.918	19346
895.04	19430
895.161	19358
895.283	19514
895.405	19403
895.526	19346
895.648	19449
895.769	19430
895.891	19445
896.012	19472
896.134	19415
896.255	19392
896.376	19426
896.498	19381
896.619	19544
896.74	19384
896.861	19491
896.982	19719
897.103	20016
897.224	19647
897.345	19750
897.466	19628
897.587	19632
897.708	19791
897.828	19651
897.949	19571
898.07	19377
898.19	19525
898.311	19776
898.431	19525
898.552	19670
898.672	19738
898.792	19879
898.913	19601
899.033	19613
899.153	19445
899.273	19339
899.393	19320
899.513	19533
899.633	19468
899.753	19422
899.873	19388
899.993	19514
900.113	19308
900.232	19381
900.352	19354
900.472	19263
900.591	19168
900.711	19183
900.83	19110
900.95	19324
901.069	19251
901.189	19168
901.308	18981
901.427	18753
901.546	18795
901.665	18863
901.784	18829
901.904	18825
902.023	18563
902.141	18399
902.26	18429
902.379	18391
902.498	18330
902.617	18201
902.735	18365
902.854	18414
902.973	18235
903.091	17897
903.21	17965
903.328	18034
903.446	17984
903.565	17859
903.683	17752
903.801	17691
903.919	17786
904.038	17699
904.156	17756
904.274	17668
904.392	17623
904.51	17532
904.627	17490
904.745	17684
904.863	17649
904.981	17444
905.098	17277
905.216	17212
905.334	17273
905.451	17204
905.569	17189
905.686	17292
905.803	17242
905.921	16999
906.038	17231
906.155	17094
906.272	16972
906.389	16953
906.506	16740
906.623	16790
906.74	16786
906.857	16649
906.974	16729
907.091	16778
907.208	16896
907.324	16831
907.441	16691
907.557	16569
907.674	16577
907.79	16489
907.907	16493
908.023	16523
908.139	16546
908.256	16481
908.372	16402
908.488	16402
908.604	16268
908.72	16200
908.836	16253
908.952	16215
909.068	16238
909.184	16405
909.3	16223
909.415	16211
909.531	16299
909.647	15998
909.762	15842
909.878	15880
909.993	15865
910.108	15876
910.224	15926
910.339	15895
910.454	15797
910.57	15759
910.685	15633
910.8	16067
910.915	15892
911.03	15728
911.145	15580
911.259	15549
911.374	15481
911.489	15382
911.604	15435
911.718	15294
911.833	15313
911.947	15245
912.062	15252
912.176	15488
912.291	15348
912.405	15313
912.519	15496
912.633	15504
912.748	15420
912.862	15348
912.976	15146
913.09	14963
913.204	15032
913.318	15070
913.431	15142
913.545	15226
913.659	15256
913.772	15066
913.886	14910
914	15013
914.113	14918
914.226	15062
914.34	15009
914.453	14781
914.566	14933
914.68	14788
914.793	14796
914.906	14617
915.019	14579
915.132	14488
915.245	14526
915.358	14686
915.47	14552
915.583	14514
915.696	14530
915.809	14689
915.921	14606
916.034	14480
916.146	14492
916.259	14465
916.371	14545
916.483	14583
916.595	14495
916.708	14385
916.82	14343
916.932	14347
917.044	14400
917.156	14278
917.268	14199
917.38	14218
917.491	14271
917.603	14153
917.715	14229
917.826	14336
917.938	14115
918.049	14088
918.161	14180
918.272	14263
918.384	14400
918.495	14191
918.606	14092
918.717	13986
918.828	14046
918.939	14130
919.05	13932
919.161	13955
919.272	13693
919.383	13906
919.494	13974
919.604	14237
919.715	13993
919.826	13871
919.936	13925
920.047	14073
920.157	13913
920.267	14088
920.378	13993
920.488	13921
920.598	14119
920.708	14267
920.818	14107
920.928	14107
921.038	14275
921.148	14248
921.258	14024
921.368	13868
921.477	13742
921.587	13731
921.697	13594
921.806	13658
921.916	13548
922.025	13464
922.134	13453
922.244	13324
922.353	13358
922.462	13266
922.571	13206
922.68	13069
922.789	13004
922.898	13046
923.007	12943
923.116	13034
923.224	13076
923.333	13057
923.442	12833
923.55	12844
923.659	13008
923.767	12943
923.876	12856
923.984	12901
924.092	12779
924.201	12840
924.309	12798
924.417	12814
924.525	12635
924.633	12726
924.741	13422
924.849	12498
924.956	12585
925.064	12445
925.172	12395
925.279	12483
925.387	12547
925.494	12517
925.602	12593
925.709	12585
925.816	12277
925.924	12441
926.031	12445
926.138	12464
926.245	12544
926.352	12369
926.459	12448
926.566	12521
926.673	12369
926.779	12251
926.886	12220
926.993	12098
927.099	12057
927.206	12068
927.312	12030
927.419	12098
927.525	12076
927.631	12057
927.737	11927
927.843	11908
927.95	11821
928.056	11942
928.162	11893
928.267	11855
928.373	12426
928.479	11946
928.585	11733
928.69	11885
928.796	11866
928.901	11771
929.007	11676
929.112	11684
929.218	11699
929.323	11680
929.428	11653
929.533	11764
929.638	11608
929.743	11554
929.848	11665
929.953	11532
930.058	11505
930.163	11223
930.267	11353
930.372	11520
930.477	11277
930.581	11615
930.685	11376
930.79	11341
930.894	11250
930.998	11239
931.103	11258
931.207	11025
931.311	10847
931.415	10824
931.519	10611
931.623	10561
