Data from test_V78500241_1986.txt Node
Date: Fri Mar 25 15:23:41 CST 2022
User: usil
Spectrometer: V785-0024
Trigger mode: 0
Integration Time (sec): 4.000000E-1
Scans to average: 1
Nonlinearity correction enabled: false
Boxcar width: 0
Storing dark spectrum: false
XAxis mode: Wavelengths
Number of Pixels in Spectrum: 1024
>>>>>Begin Spectral Data<<<<<
801.071	27888
801.214	27918
801.356	27576
801.499	27629
801.641	27359
801.783	27485
801.926	27424
802.068	27435
802.211	27336
802.353	27260
802.496	27070
802.638	27195
802.78	27096
802.923	27005
803.065	26956
803.208	26918
803.35	27184
803.492	27157
803.635	27260
803.777	27176
803.919	27161
804.061	27511
804.204	27233
804.346	27272
804.488	27180
804.63	27256
804.773	27203
804.915	27195
805.057	27313
805.199	27093
805.341	27256
805.483	27431
805.626	27367
805.768	27096
805.91	27298
806.052	27572
806.194	27154
806.336	27614
806.478	27542
806.62	27344
806.762	27431
806.904	27622
807.046	27869
807.188	27728
807.33	27892
807.472	27903
807.614	27701
807.756	27705
807.898	27724
808.04	27717
808.182	27679
808.324	27671
808.465	27762
808.607	27850
808.749	27854
808.891	28128
809.033	28147
809.174	28078
809.316	28010
809.458	27991
809.6	27945
809.741	28059
809.883	28276
810.025	28394
810.166	28299
810.308	28386
810.45	28356
810.591	28158
810.733	28063
810.875	28036
811.016	27766
811.158	27903
811.299	27964
811.441	28211
811.582	28135
811.724	28192
811.865	28078
812.007	27937
812.148	27994
812.29	28074
812.431	28249
812.573	28306
812.714	28390
812.855	28451
812.997	28694
813.138	28752
813.279	28569
813.421	28421
813.562	28379
813.703	28261
813.845	28207
813.986	27953
814.127	27857
814.268	27743
814.41	27652
814.551	27553
814.692	27739
814.833	27656
814.974	27743
815.115	27884
815.256	27587
815.397	27667
815.539	27492
815.68	27462
815.821	27412
815.962	27545
816.103	27427
816.244	27275
816.385	27237
816.526	27317
816.666	27157
816.807	27047
816.948	27165
817.089	26960
817.23	27013
817.371	26918
817.512	26933
817.653	26963
817.793	27066
817.934	26933
818.075	27077
818.216	26998
818.356	27001
818.497	26986
818.638	26648
818.778	26777
818.919	26758
819.06	26811
819.2	26834
819.341	26998
819.481	26994
819.622	27260
819.762	27275
819.903	27176
820.043	27233
820.184	27036
820.324	27150
820.465	27192
820.605	27051
820.746	27100
820.886	27036
821.026	27085
821.167	26937
821.307	27104
821.447	26944
821.588	27039
821.728	26834
821.868	26602
822.008	26450
822.149	26465
822.289	26476
822.429	26275
822.569	26210
822.709	26313
822.849	26008
822.99	26111
823.13	25841
823.27	25925
823.41	25879
823.55	25731
823.69	25788
823.83	25811
823.97	25883
824.11	25677
824.25	25605
824.389	25483
824.529	25666
824.669	25666
824.809	25700
824.949	25677
825.089	25761
825.228	25681
825.368	25400
825.508	25506
825.648	25525
825.787	25537
825.927	25533
826.067	25529
826.206	25468
826.346	25578
826.485	25552
826.625	25548
826.765	25658
826.904	25731
827.044	25327
827.183	25289
827.323	25175
827.462	25228
827.601	25156
827.741	25228
827.88	25206
828.02	25076
828.159	25114
828.298	25236
828.437	25148
828.577	25065
828.716	25335
828.855	25171
828.994	24935
829.134	24852
829.273	24935
829.412	24734
829.551	24806
829.69	24798
829.829	24928
829.968	24992
830.107	24791
830.246	24958
830.385	24859
830.524	24802
830.663	24768
830.802	24734
830.941	24517
831.08	24521
831.219	24639
831.357	24840
831.496	24787
831.635	24604
831.774	24521
831.913	24346
832.051	24308
832.19	24205
832.329	24247
832.467	24258
832.606	24095
832.744	24159
832.883	24235
833.022	24224
833.16	24315
833.299	24243
833.437	24235
833.576	24224
833.714	24262
833.852	24190
833.991	24289
834.129	24300
834.267	24262
834.406	24315
834.544	24266
834.682	24391
834.821	24190
834.959	24357
835.097	24167
835.235	24330
835.373	24285
835.511	24228
835.65	24148
835.788	24220
835.926	23961
836.064	23965
836.202	23923
836.34	24121
836.478	24190
836.615	24091
836.753	24007
836.891	24228
837.029	24129
837.167	23878
837.305	24026
837.443	24026
837.58	24038
837.718	24110
837.856	24007
837.993	23954
838.131	23942
838.269	23874
838.406	23859
838.544	23786
838.681	23653
838.819	23562
838.956	23395
839.094	23433
839.231	23459
839.369	23592
839.506	23840
839.643	23539
839.781	23284
839.918	23261
840.055	23463
840.193	23398
840.33	23379
840.467	23296
840.604	23277
840.742	23577
840.879	23334
841.016	23102
841.153	23075
841.29	23406
841.427	23277
841.564	23440
841.701	23322
841.838	23299
841.975	23079
842.112	23128
842.249	23117
842.385	23098
842.522	23261
842.659	23128
842.796	23067
842.933	23147
843.069	23044
843.206	22999
843.343	23151
843.479	23071
843.616	23075
843.752	22915
843.889	22892
844.025	23006
844.162	22744
844.298	22877
844.435	22797
844.571	22812
844.708	22862
844.844	22995
844.98	22930
845.117	23094
845.253	22843
845.389	22721
845.525	22687
845.661	22820
845.798	22630
845.934	22733
846.07	22580
846.206	22706
846.342	22752
846.478	22580
846.614	22360
846.75	22337
846.886	22379
847.022	22394
847.158	22375
847.294	22276
847.429	22246
847.565	22299
847.701	22516
847.837	22040
847.972	22120
848.108	22188
848.244	22055
848.379	21903
848.515	21994
848.65	21865
848.786	21903
848.921	21838
849.057	22017
849.192	22002
849.328	21911
849.463	21819
849.598	21960
849.734	21793
849.869	21717
850.004	21755
850.14	21667
850.275	21667
850.41	21637
850.545	21682
850.68	21641
850.815	21671
850.95	21671
851.085	21831
851.22	21808
851.355	21637
851.49	21625
851.625	21534
851.76	21671
851.895	21542
852.03	21504
852.165	21641
852.299	21682
852.434	21618
852.569	21713
852.703	21698
852.838	21663
852.973	21846
853.107	21797
853.242	21564
853.376	21450
853.511	21336
853.645	21378
853.78	21564
853.914	21523
854.048	21473
854.183	21557
854.317	21466
854.451	21595
854.585	21428
854.72	21435
854.854	21610
854.988	21332
855.122	21416
855.256	21408
855.39	21454
855.524	21576
855.658	21485
855.792	21530
855.926	21511
856.06	21504
856.194	21603
856.327	21469
856.461	21431
856.595	21450
856.729	21488
856.862	21561
856.996	21568
857.13	21637
857.263	21534
857.397	21534
857.53	21428
857.664	21576
857.797	21526
857.931	21606
858.064	21507
858.197	21595
858.331	21496
858.464	21359
858.597	21454
858.731	21393
858.864	21447
858.997	21374
859.13	21462
859.263	21397
859.396	21557
859.529	21420
859.662	21568
859.795	21336
859.928	21473
860.061	21751
860.194	21671
860.327	21492
860.46	21507
860.592	21507
860.725	21545
860.858	21713
860.99	21496
861.123	21428
861.256	21435
861.388	21435
861.521	22150
861.653	21370
861.786	21283
861.918	21226
862.05	21408
862.183	21279
862.315	21302
862.447	21447
862.58	21443
862.712	21199
862.844	21180
862.976	21237
863.108	21245
863.24	21663
863.372	21252
863.504	21203
863.636	21100
863.768	21237
863.9	21180
864.032	21157
864.164	21112
864.296	21245
864.428	21237
864.559	21306
864.691	21245
864.823	21249
864.954	21074
865.086	21218
865.217	21104
865.349	21001
865.48	21066
865.612	21096
865.743	21203
865.875	21123
866.006	21138
866.137	21135
866.269	21081
866.4	21096
866.531	20944
866.662	20902
866.793	20990
866.924	20921
867.055	21020
867.186	21085
867.317	20910
867.448	20925
867.579	21001
867.71	21013
867.841	20979
867.972	21005
868.103	21009
868.233	21104
868.364	21005
868.495	21184
868.625	21173
868.756	21306
868.886	21386
869.017	21283
869.147	21397
869.278	21469
869.408	21302
869.539	21336
869.669	21325
869.799	21351
869.929	21428
870.06	21382
870.19	21572
870.32	21568
870.45	21580
870.58	21705
870.71	21865
870.84	21625
870.97	21591
871.1	21652
871.23	21842
871.36	21789
871.489	21778
871.619	21861
871.749	21804
871.879	21850
872.008	21869
872.138	21873
872.267	21869
872.397	21766
872.526	21732
872.656	21667
872.785	21698
872.915	21865
873.044	21895
873.173	21922
873.303	21911
873.432	21968
873.561	21953
873.69	21842
873.819	21937
873.948	21918
874.077	21793
874.206	21861
874.335	21926
874.464	21895
874.593	22002
874.722	22158
874.851	22173
874.979	22135
875.108	22147
875.237	22154
875.365	21880
875.494	21945
875.623	22253
875.751	22029
875.88	22124
876.008	22219
876.136	22246
876.265	22557
876.393	22592
876.521	22440
876.65	22626
876.778	22398
876.906	22466
877.034	22409
877.162	22344
877.29	22402
877.418	22455
877.546	22459
877.674	22428
877.802	22451
877.93	22599
878.058	22424
878.185	22303
878.313	22428
878.441	22421
878.568	22341
878.696	22284
878.824	22489
878.951	22565
879.079	22740
879.206	22736
879.333	22710
879.461	22417
879.588	22554
879.715	22630
879.842	22656
879.97	22432
880.097	22200
880.224	22261
880.351	22333
880.478	22253
880.605	22246
880.732	22306
880.859	22508
880.986	22238
881.112	22242
881.239	22131
881.366	21994
881.493	21941
881.619	21808
881.746	21842
881.872	21953
881.999	21762
882.125	21789
882.252	21819
882.378	21789
882.505	21907
882.631	21663
882.757	21580
882.883	21580
883.01	21564
883.136	21568
883.262	21386
883.388	21382
883.514	21523
883.64	21557
883.766	21504
883.892	21359
884.018	21340
884.143	21500
884.269	21549
884.395	21211
884.52	21108
884.646	21211
884.772	21066
884.897	21081
885.023	21249
885.148	21249
885.274	21416
885.399	21439
885.524	21176
885.65	21275
885.775	21165
885.9	21161
886.025	21195
886.15	21233
886.275	21112
886.4	21127
886.525	21256
886.65	21096
886.775	21020
886.9	21283
887.025	21454
887.149	21089
887.274	20952
887.399	20956
887.523	21070
887.648	20899
887.773	20880
887.897	20994
888.021	21013
888.146	20883
888.27	20998
888.395	21173
888.519	21017
888.643	20982
888.767	21005
888.891	20921
889.015	20746
889.139	20724
889.263	20773
889.387	20925
889.511	21036
889.635	20800
889.759	20785
889.883	20819
890.006	20735
890.13	20853
890.254	20769
890.377	20735
890.501	20609
890.624	20480
890.748	20484
890.871	20454
890.995	20221
891.118	20237
891.241	20377
891.364	20320
891.488	20454
891.611	20385
891.734	20457
891.857	20511
891.98	20286
892.103	20385
892.226	20336
892.349	20298
892.471	20172
892.594	20176
892.717	20317
892.839	20237
892.962	20244
893.085	20214
893.207	20248
893.33	20263
893.452	20214
893.575	20282
893.697	20202
893.819	20415
893.941	20343
894.064	20381
894.186	20096
894.308	20115
894.43	20328
894.552	20351
894.674	20225
894.796	20122
894.918	20149
895.04	20145
895.161	20301
895.283	20282
895.405	20259
895.526	20183
895.648	20358
895.769	20237
895.891	20263
896.012	20396
896.134	20351
896.255	20320
896.376	20183
896.498	20271
896.619	20317
896.74	20218
896.861	20271
896.982	20617
897.103	20727
897.224	20503
897.345	20400
897.466	20374
897.587	20473
897.708	20594
897.828	20389
897.949	20427
898.07	20301
898.19	20343
898.311	20545
898.431	20396
898.552	20484
898.672	20450
898.792	20533
898.913	20427
899.033	20396
899.153	20313
899.273	20172
899.393	20195
899.513	20202
899.633	20149
899.753	20122
899.873	20119
899.993	20237
900.113	20039
900.232	20233
900.352	20027
900.472	20073
900.591	20012
900.711	19997
900.83	19894
900.95	20069
901.069	20031
901.189	19841
901.308	19700
901.427	19483
901.546	19521
901.665	19582
901.784	19655
901.904	19377
902.023	19312
902.141	19141
902.26	19023
902.379	19221
902.498	19084
902.617	18977
902.735	19027
902.854	18973
902.973	19091
903.091	18776
903.21	18760
903.328	18703
903.446	18707
903.565	18448
903.683	18574
903.801	18433
903.919	18517
904.038	18475
904.156	18327
904.274	18502
904.392	18281
904.51	18243
904.627	18342
904.745	18426
904.863	18357
904.981	18015
905.098	18022
905.216	17973
905.334	18148
905.451	17920
905.569	17866
905.686	18083
905.803	17984
905.921	17752
906.038	17870
906.155	17779
906.272	17707
906.389	17718
906.506	17562
906.623	17486
906.74	17512
906.857	17334
906.974	17505
907.091	17619
907.208	17611
907.324	17539
907.441	17414
907.557	17261
907.674	17239
907.79	17155
907.907	17166
908.023	17212
908.139	17223
908.256	17113
908.372	17083
908.488	17029
908.604	17010
908.72	16873
908.836	16961
908.952	16858
909.068	16976
909.184	17056
909.3	16915
909.415	16885
909.531	16877
909.647	16812
909.762	16725
909.878	16656
909.993	16717
910.108	16668
910.224	16675
910.339	16550
910.454	16462
910.57	16497
910.685	16276
910.8	16683
910.915	16599
911.03	16459
911.145	16322
911.259	16177
911.374	16337
911.489	16173
911.604	16093
911.718	16032
911.833	16036
911.947	15911
912.062	15800
912.176	15918
912.291	16036
912.405	15842
912.519	16192
912.633	16181
912.748	15998
912.862	16048
912.976	15880
913.09	15728
913.204	15797
913.318	15774
913.431	15823
913.545	15850
913.659	15880
913.772	15728
913.886	15686
914	15526
914.113	15679
914.226	15698
914.34	15610
914.453	15507
914.566	15648
914.68	15466
914.793	15439
914.906	15207
915.019	15283
915.132	15192
915.245	15222
915.358	15222
915.47	15222
915.583	15203
915.696	15237
915.809	15332
915.921	15310
916.034	15131
916.146	15184
916.259	15028
916.371	15233
916.483	15260
916.595	15001
916.708	15081
916.82	15020
916.932	15138
917.044	14967
917.156	14956
917.268	14918
917.38	14944
917.491	14899
917.603	14849
917.715	14941
917.826	14887
917.938	14735
918.049	14735
918.161	14754
918.272	14952
918.384	14796
918.495	14731
918.606	14716
918.717	14587
918.828	14610
918.939	14575
919.05	14533
919.161	14587
919.272	14362
919.383	14309
919.494	14602
919.604	14804
919.715	14579
919.826	14454
919.936	14499
920.047	14556
920.157	14655
920.267	14796
920.378	14533
920.488	14545
920.598	14644
920.708	14868
920.818	14765
920.928	14682
921.038	14895
921.148	14842
921.258	14473
921.368	14400
921.477	14317
921.587	14317
921.697	14206
921.806	14320
921.916	14229
922.025	14062
922.134	14005
922.244	13986
922.353	13909
922.462	13868
922.571	13769
922.68	13609
922.789	13556
922.898	13594
923.007	13624
923.116	13578
923.224	13662
923.333	13472
923.442	13426
923.55	13472
923.659	13460
923.767	13514
923.876	13392
923.984	13464
924.092	13304
924.201	13365
924.309	13350
924.417	13343
924.525	13236
924.633	13327
924.741	13986
924.849	13107
924.956	13206
925.064	13027
925.172	12981
925.279	12973
925.387	13053
925.494	12958
925.602	13126
925.709	13099
925.816	12932
925.924	12837
926.031	13072
926.138	12924
926.245	13084
926.352	12916
926.459	12909
926.566	12886
926.673	12905
926.779	12711
926.886	12722
926.993	12608
927.099	12608
927.206	12486
927.312	12566
927.419	12608
927.525	12525
927.631	12502
927.737	12467
927.843	12410
927.95	12308
928.056	12384
928.162	12361
928.267	12346
928.373	12996
928.479	12422
928.585	12186
928.69	12330
928.796	12410
928.901	12266
929.007	12076
929.112	12289
929.218	12186
929.323	12076
929.428	12167
929.533	12209
929.638	12015
929.743	12079
929.848	12053
929.953	12015
930.058	11920
930.163	11794
930.267	11836
930.372	11969
930.477	11676
930.581	11935
930.685	11889
930.79	11653
930.894	11714
930.998	11703
931.103	11836
931.207	11311
931.311	11395
931.415	11330
931.519	10961
931.623	11102
