Data from test_V78500241_2137.txt Node
Date: Fri Mar 25 15:24:44 CST 2022
User: usil
Spectrometer: V785-0024
Trigger mode: 0
Integration Time (sec): 4.000000E-1
Scans to average: 1
Nonlinearity correction enabled: false
Boxcar width: 0
Storing dark spectrum: false
XAxis mode: Wavelengths
Number of Pixels in Spectrum: 1024
>>>>>Begin Spectral Data<<<<<
801.071	27644
801.214	27648
801.356	27424
801.499	27321
801.641	27211
801.783	27199
801.926	27329
802.068	27154
802.211	27055
802.353	27036
802.496	26956
802.638	26773
802.78	26861
802.923	26792
803.065	26819
803.208	26921
803.35	26731
803.492	26906
803.635	27093
803.777	26861
803.919	27055
804.061	27454
804.204	27192
804.346	27047
804.488	26937
804.63	27051
804.773	26883
804.915	27157
805.057	27096
805.199	27043
805.341	27127
805.483	27085
805.626	26952
805.768	27066
805.91	27062
806.052	27252
806.194	27051
806.336	27454
806.478	27192
806.62	27127
806.762	27222
806.904	27427
807.046	27526
807.188	27675
807.33	27485
807.472	27618
807.614	27553
807.756	27530
807.898	27329
808.04	27348
808.182	27466
808.324	27553
808.465	27511
808.607	27736
808.749	27762
808.891	27888
809.033	27972
809.174	27994
809.316	27686
809.458	27812
809.6	27595
809.741	27945
809.883	27994
810.025	28067
810.166	28040
810.308	28120
810.45	28013
810.591	27907
810.733	27869
810.875	27644
811.016	27679
811.158	27679
811.299	27797
811.441	28021
811.582	27884
811.724	27675
811.865	27694
812.007	27591
812.148	27914
812.29	27789
812.431	27918
812.573	28173
812.714	28128
812.855	28348
812.997	28413
813.138	28588
813.279	28337
813.421	28329
813.562	28379
813.703	28223
813.845	27960
813.986	27686
814.127	27641
814.268	27485
814.41	27500
814.551	27523
814.692	27405
814.833	27363
814.974	27485
815.115	27568
815.256	27332
815.397	27359
815.539	27370
815.68	27401
815.821	27184
815.962	27325
816.103	27093
816.244	27123
816.385	27005
816.526	27070
816.666	26975
816.807	26788
816.948	26853
817.089	26750
817.23	26807
817.371	26842
817.512	26834
817.653	26724
817.793	26526
817.934	26785
818.075	26906
818.216	26754
818.356	26689
818.497	26625
818.638	26355
818.778	26389
818.919	26503
819.06	26712
819.2	26689
819.341	26762
819.481	26910
819.622	26967
819.762	26861
819.903	27024
820.043	26883
820.184	26849
820.324	26906
820.465	26933
820.605	26811
820.746	26857
820.886	26758
821.026	26777
821.167	26769
821.307	26960
821.447	26826
821.588	26667
821.728	26336
821.868	26415
822.008	26206
822.149	26199
822.289	26320
822.429	25951
822.569	25986
822.709	25993
822.849	25719
822.99	25738
823.13	25658
823.27	25632
823.41	25479
823.55	25540
823.69	25628
823.83	25521
823.97	25415
824.11	25251
824.25	25285
824.389	25278
824.529	25373
824.669	25209
824.809	25506
824.949	25411
825.089	25441
825.228	25312
825.368	25148
825.508	25160
825.648	25343
825.787	25274
825.927	25251
826.067	25316
826.206	25152
826.346	25301
826.485	25194
826.625	25179
826.765	25308
826.904	25274
827.044	24856
827.183	24882
827.323	24867
827.462	25088
827.601	24939
827.741	24951
827.88	25069
828.02	24791
828.159	24825
828.298	25012
828.437	24954
828.577	24802
828.716	25038
828.855	24779
828.994	24688
829.134	24677
829.273	24635
829.412	24578
829.551	24410
829.69	24669
829.829	24574
829.968	24700
830.107	24715
830.246	24612
830.385	24593
830.524	24578
830.663	24460
830.802	24281
830.941	24213
831.08	24258
831.219	24357
831.357	24289
831.496	24384
831.635	24251
831.774	24178
831.913	24174
832.051	24133
832.19	24022
832.329	23984
832.467	23882
832.606	23927
832.744	23813
832.883	23691
833.022	23847
833.16	23939
833.299	23958
833.437	23897
833.576	24045
833.714	24034
833.852	23996
833.991	23931
834.129	23923
834.267	23992
834.406	23843
834.544	23969
834.682	24053
834.821	23908
834.959	24213
835.097	23764
835.235	23939
835.373	23889
835.511	23817
835.65	23695
835.788	23714
835.926	23691
836.064	23482
836.202	23634
836.34	23786
836.478	23942
836.615	23695
836.753	23714
836.891	23855
837.029	23737
837.167	23710
837.305	23668
837.443	23714
837.58	23680
837.718	23661
837.856	23524
837.993	23623
838.131	23619
838.269	23497
838.406	23695
838.544	23311
838.681	23239
838.819	23185
838.956	23037
839.094	23136
839.231	23147
839.369	23318
839.506	23459
839.643	23398
839.781	22927
839.918	23006
840.055	23124
840.193	23048
840.33	22999
840.467	23018
840.604	23124
840.742	23254
840.879	22923
841.016	22949
841.153	22873
841.29	23090
841.427	22942
841.564	23041
841.701	23056
841.838	22919
841.975	22987
842.112	22835
842.249	22904
842.385	22740
842.522	22942
842.659	22721
842.796	22809
842.933	22744
843.069	22748
843.206	22759
843.343	22752
843.479	22782
843.616	22782
843.752	22535
843.889	22508
844.025	22729
844.162	22504
844.298	22672
844.435	22531
844.571	22421
844.708	22615
844.844	22755
844.98	22653
845.117	22577
845.253	22485
845.389	22367
845.525	22402
845.661	22371
845.798	22276
845.934	22310
846.07	22329
846.206	22360
846.342	22382
846.478	22261
846.614	22021
846.75	21949
846.886	21873
847.022	22154
847.158	22021
847.294	21941
847.429	21987
847.565	21979
847.701	22215
847.837	21690
847.972	21778
848.108	21797
848.244	21781
848.379	21739
848.515	21568
848.65	21526
848.786	21553
848.921	21603
849.057	21739
849.192	21736
849.328	21618
849.463	21633
849.598	21519
849.734	21492
849.869	21408
850.004	21374
850.14	21351
850.275	21329
850.41	21230
850.545	21260
850.68	21313
850.815	21329
850.95	21405
851.085	21595
851.22	21424
851.355	21393
851.49	21332
851.625	21340
851.76	21310
851.895	21252
852.03	21218
852.165	21363
852.299	21298
852.434	21351
852.569	21382
852.703	21370
852.838	21454
852.973	21538
853.107	21519
853.242	21279
853.376	21218
853.511	21055
853.645	21077
853.78	21188
853.914	21203
854.048	21100
854.183	21081
854.317	21192
854.451	21416
854.585	21161
854.72	21180
854.854	21298
854.988	21100
855.122	21192
855.256	20941
855.39	21218
855.524	21211
855.658	21226
855.792	21074
855.926	21203
856.06	21298
856.194	21317
856.327	21260
856.461	21043
856.595	21150
856.729	21203
856.862	21188
856.996	21131
857.13	21214
857.263	21272
857.397	21317
857.53	21199
857.664	21222
857.797	21226
857.931	21382
858.064	21249
858.197	21233
858.331	20998
858.464	21058
858.597	21104
858.731	21176
858.864	21173
858.997	21093
859.13	21150
859.263	21195
859.396	21260
859.529	21150
859.662	21146
859.795	21032
859.928	21283
860.061	21370
860.194	21393
860.327	21252
860.46	21252
860.592	21310
860.725	21260
860.858	21207
860.99	21173
861.123	21180
861.256	21207
861.388	21184
861.521	21743
861.653	20910
861.786	20925
861.918	20994
862.05	21074
862.183	21085
862.315	21173
862.447	21176
862.58	21043
862.712	20914
862.844	20975
862.976	21017
863.108	20960
863.24	21332
863.372	20956
863.504	20830
863.636	20864
863.768	20883
863.9	20971
864.032	20758
864.164	20765
864.296	20895
864.428	20933
864.559	21062
864.691	20960
864.823	20849
864.954	20861
865.086	20838
865.217	20834
865.349	20727
865.48	20712
865.612	20857
865.743	20861
865.875	20834
866.006	20731
866.137	20960
866.269	20689
866.4	20845
866.531	20754
866.662	20678
866.793	20629
866.924	20663
867.055	20682
867.186	20693
867.317	20678
867.448	20579
867.579	20613
867.71	20606
867.841	20678
867.972	20807
868.103	20705
868.233	20861
868.364	20636
868.495	20918
868.625	20933
868.756	21005
868.886	20933
869.017	20857
869.147	20986
869.278	21020
869.408	21013
869.539	20975
869.669	21077
869.799	20975
869.929	20899
870.06	21100
870.19	21310
870.32	21294
870.45	21237
870.58	21336
870.71	21485
870.84	21496
870.97	21416
871.1	21370
871.23	21424
871.36	21447
871.489	21454
871.619	21439
871.749	21504
871.879	21633
872.008	21641
872.138	21458
872.267	21629
872.397	21393
872.526	21412
872.656	21355
872.785	21454
872.915	21587
873.044	21625
873.173	21603
873.303	21652
873.432	21633
873.561	21682
873.69	21481
873.819	21519
873.948	21599
874.077	21682
874.206	21473
874.335	21549
874.464	21671
874.593	21739
874.722	21671
874.851	21747
874.979	21823
875.108	21789
875.237	21698
875.365	21804
875.494	21778
875.623	21762
875.751	21694
875.88	21838
876.008	21968
876.136	21968
876.265	22063
876.393	22344
876.521	22249
876.65	22268
876.778	22242
876.906	22086
877.034	22204
877.162	22154
877.29	22192
877.418	22188
877.546	22265
877.674	22070
877.802	22147
877.93	21964
878.058	22196
878.185	21953
878.313	22044
878.441	22154
878.568	22013
878.696	22051
878.824	22139
878.951	22177
879.079	22291
879.206	22398
879.333	22246
879.461	22185
879.588	22284
879.715	22337
879.842	22557
879.97	22257
880.097	21865
880.224	22002
880.351	22090
880.478	21926
880.605	21888
880.732	21934
880.859	22173
880.986	22013
881.112	21994
881.239	21766
881.366	21713
881.493	21561
881.619	21580
881.746	21663
881.872	21504
881.999	21397
882.125	21370
882.252	21644
882.378	21610
882.505	21637
882.631	21450
882.757	21211
882.883	21173
883.01	21233
883.136	21169
883.262	21249
883.388	21146
883.514	21138
883.64	21184
883.766	21275
883.892	20864
884.018	21062
884.143	21184
884.269	21249
884.395	20876
884.52	20872
884.646	20921
884.772	20842
884.897	20811
885.023	20971
885.148	20960
885.274	21043
885.399	20887
885.524	20948
885.65	20979
885.775	20948
885.9	20975
886.025	20925
886.15	21039
886.275	20845
886.4	20819
886.525	20830
886.65	20674
886.775	20800
886.9	21001
887.025	20937
887.149	20929
887.274	20826
887.399	20731
887.523	20621
887.648	20674
887.773	20514
887.897	20758
888.021	20693
888.146	20724
888.27	20724
888.395	20735
888.519	20697
888.643	20659
888.767	20667
888.891	20530
889.015	20514
889.139	20461
889.263	20499
889.387	20564
889.511	20602
889.635	20621
889.759	20499
889.883	20511
890.006	20511
890.13	20583
890.254	20400
890.377	20320
890.501	20233
890.624	20267
890.748	20259
890.871	20134
890.995	20062
891.118	19928
891.241	20084
891.364	20126
891.488	20218
891.611	20031
891.734	20081
891.857	20202
891.98	20103
892.103	20062
892.226	20191
892.349	20077
892.471	19894
892.594	19917
892.717	20092
892.839	19925
892.962	19978
893.085	20088
893.207	19913
893.33	19875
893.452	19887
893.575	20077
893.697	19959
893.819	20149
893.941	20183
894.064	20111
894.186	19906
894.308	19738
894.43	20065
894.552	20161
894.674	20092
894.796	19875
894.918	19898
895.04	19959
895.161	20005
895.283	19959
895.405	19795
895.526	19932
895.648	19967
895.769	20111
895.891	20073
896.012	19967
896.134	20058
896.255	19989
896.376	19917
896.498	19932
896.619	20039
896.74	19932
896.861	19963
896.982	20164
897.103	20454
897.224	20191
897.345	20218
897.466	20176
897.587	20180
897.708	20195
897.828	20259
897.949	20153
898.07	20103
898.19	20210
898.311	20202
898.431	20077
898.552	20153
898.672	20221
898.792	20370
898.913	20183
899.033	20062
899.153	20005
899.273	19909
899.393	19955
899.513	19963
899.633	19883
899.753	19993
899.873	19917
899.993	19955
900.113	19871
900.232	20084
900.352	19738
900.472	19849
900.591	19651
900.711	19811
900.83	19826
900.95	19826
901.069	19803
901.189	19696
901.308	19434
901.427	19400
901.546	19377
901.665	19350
901.784	19194
901.904	19107
902.023	19103
902.141	18863
902.26	18852
902.379	19046
902.498	18875
902.617	18848
902.735	18787
902.854	18711
902.973	18715
903.091	18498
903.21	18418
903.328	18407
903.446	18441
903.565	18273
903.683	18311
903.801	18323
903.919	18350
904.038	18163
904.156	18159
904.274	18262
904.392	18121
904.51	18049
904.627	18121
904.745	18194
904.863	18102
904.981	17771
905.098	17695
905.216	17668
905.334	17775
905.451	17707
905.569	17726
905.686	17684
905.803	17691
905.921	17520
906.038	17562
906.155	17501
906.272	17467
906.389	17421
906.506	17277
906.623	17322
906.74	17280
906.857	17151
906.974	17235
907.091	17349
907.208	17368
907.324	17277
907.441	17117
907.557	17105
907.674	17071
907.79	16904
907.907	17029
908.023	16995
908.139	16991
908.256	16869
908.372	16847
908.488	16915
908.604	16748
908.72	16615
908.836	16828
908.952	16725
909.068	16748
909.184	16839
909.3	16763
909.415	16767
909.531	16653
909.647	16459
909.762	16512
909.878	16428
909.993	16386
910.108	16489
910.224	16386
910.339	16379
910.454	16223
910.57	16390
910.685	16120
910.8	16436
910.915	16504
911.03	16200
911.145	16067
911.259	16040
911.374	15964
911.489	15979
911.604	15846
911.718	15781
911.833	15819
911.947	15698
912.062	15671
912.176	15701
912.291	15739
912.405	15778
912.519	15911
912.633	16010
912.748	15736
912.862	15819
912.976	15701
913.09	15450
913.204	15549
913.318	15549
913.431	15705
913.545	15637
913.659	15751
913.772	15545
913.886	15450
914	15431
914.113	15561
914.226	15523
914.34	15420
914.453	15252
914.566	15424
914.68	15386
914.793	15233
914.906	15097
915.019	14914
915.132	14944
915.245	14971
915.358	14960
915.47	15066
915.583	14982
915.696	15020
915.809	15085
915.921	15176
916.034	14899
916.146	14960
916.259	14872
916.371	14948
916.483	14891
916.595	14864
916.708	14804
916.82	14891
916.932	14788
917.044	14785
917.156	14781
917.268	14632
917.38	14754
917.491	14632
917.603	14613
917.715	14644
917.826	14651
917.938	14602
918.049	14400
918.161	14568
918.272	14682
918.384	14743
918.495	14655
918.606	14488
918.717	14362
918.828	14423
918.939	14419
919.05	14336
919.161	14374
919.272	14256
919.383	14278
919.494	14457
919.604	14625
919.715	14419
919.826	14336
919.936	14317
920.047	14419
920.157	14396
920.267	14530
920.378	14385
920.488	14381
920.598	14590
920.708	14701
920.818	14533
920.928	14427
921.038	14587
921.148	14625
921.258	14351
921.368	14267
921.477	14172
921.587	14126
921.697	13947
921.806	14073
921.916	13978
922.025	13841
922.134	13746
922.244	13715
922.353	13712
922.462	13620
922.571	13537
922.68	13430
922.789	13297
922.898	13441
923.007	13339
923.116	13483
923.224	13411
923.333	13415
923.442	13381
923.55	13232
923.659	13225
923.767	13327
923.876	13278
923.984	13213
924.092	13118
924.201	13175
924.309	13095
924.417	13168
924.525	13088
924.633	13133
924.741	13693
924.849	12947
924.956	13042
925.064	12817
925.172	12745
925.279	12802
925.387	12833
925.494	12848
925.602	12890
925.709	12882
925.816	12669
925.924	12795
926.031	12829
926.138	12821
926.245	12795
926.352	12669
926.459	12791
926.566	12871
926.673	12745
926.779	12608
926.886	12627
926.993	12464
927.099	12414
927.206	12361
927.312	12369
927.419	12418
927.525	12471
927.631	12490
927.737	12220
927.843	12243
927.95	12163
928.056	12220
928.162	12216
928.267	12251
928.373	12829
928.479	12304
928.585	12072
928.69	12136
928.796	12266
928.901	12091
929.007	11950
929.112	12034
929.218	12034
929.323	11923
929.428	11961
929.533	12019
929.638	11946
929.743	11988
929.848	12007
929.953	11904
930.058	11767
930.163	11604
930.267	11722
930.372	11722
930.477	11581
930.581	11809
930.685	11688
930.79	11566
930.894	11509
930.998	11547
931.103	11627
931.207	11288
931.311	11250
931.415	11075
931.519	10892
931.623	10949
