Data from test_V78500241_546.txt Node
Date: Fri Mar 25 15:13:39 CST 2022
User: usil
Spectrometer: V785-0024
Trigger mode: 0
Integration Time (sec): 4.000000E-1
Scans to average: 1
Nonlinearity correction enabled: false
Boxcar width: 0
Storing dark spectrum: false
XAxis mode: Wavelengths
Number of Pixels in Spectrum: 1024
>>>>>Begin Spectral Data<<<<<
801.071	27173
801.214	27070
801.356	26689
801.499	26777
801.641	26689
801.783	26708
801.926	26724
802.068	26651
802.211	26549
802.353	26476
802.496	26393
802.638	26385
802.78	26294
802.923	26225
803.065	26263
803.208	26111
803.35	26434
803.492	26377
803.635	26469
803.777	26362
803.919	26358
804.061	26777
804.204	26453
804.346	26290
804.488	26309
804.63	26427
804.773	26522
804.915	26377
805.057	26598
805.199	26568
805.341	26507
805.483	26533
805.626	26621
805.768	26400
805.91	26507
806.052	26522
806.194	26469
806.336	26701
806.478	26560
806.62	26434
806.762	26670
806.904	26933
807.046	27081
807.188	26998
807.33	27017
807.472	27138
807.614	26777
807.756	26906
807.898	26746
808.04	26667
808.182	26746
808.324	26663
808.465	26872
808.607	26876
808.749	27165
808.891	27066
809.033	27340
809.174	27230
809.316	27051
809.458	27203
809.6	27123
809.741	27367
809.883	27443
810.025	27348
810.166	27317
810.308	27477
810.45	27416
810.591	27504
810.733	27370
810.875	27096
811.016	27100
811.158	27085
811.299	27199
811.441	27211
811.582	27408
811.724	27131
811.865	27173
812.007	27264
812.148	27207
812.29	27169
812.431	27252
812.573	27363
812.714	27561
812.855	27644
812.997	27724
813.138	27827
813.279	27857
813.421	27667
813.562	27583
813.703	27606
813.845	27424
813.986	27142
814.127	26994
814.268	26727
814.41	26849
814.551	26807
814.692	26705
814.833	26655
814.974	26777
815.115	26811
815.256	26705
815.397	26785
815.539	26640
815.68	26758
815.821	26712
815.962	26499
816.103	26693
816.244	26530
816.385	26305
816.526	26313
816.666	26130
816.807	26195
816.948	26267
817.089	26271
817.23	26180
817.371	26191
817.512	26043
817.653	26191
817.793	26161
817.934	26111
818.075	26096
818.216	26122
818.356	26138
818.497	25986
818.638	25822
818.778	25879
818.919	25944
819.06	25902
819.2	26100
819.341	26130
819.481	26180
819.622	26233
819.762	26366
819.903	26552
820.043	26301
820.184	26233
820.324	26309
820.465	26309
820.605	26305
820.746	26305
820.886	26142
821.026	26233
821.167	26142
821.307	26332
821.447	26286
821.588	26199
821.728	25978
821.868	25548
822.008	25605
822.149	25445
822.289	25533
822.429	25297
822.569	25289
822.709	25129
822.849	25065
822.99	25297
823.13	25122
823.27	25084
823.41	24909
823.55	24844
823.69	24882
823.83	24840
823.97	24916
824.11	24757
824.25	24623
824.389	24612
824.529	24814
824.669	24745
824.809	24901
824.949	24814
825.089	24852
825.228	24764
825.368	24688
825.508	24372
825.648	24597
825.787	24707
825.927	24646
826.067	24525
826.206	24589
826.346	24623
826.485	24589
826.625	24544
826.765	24566
826.904	24494
827.044	24467
827.183	24376
827.323	24178
827.462	24296
827.601	24323
827.741	24167
827.88	24201
828.02	24239
828.159	24194
828.298	24262
828.437	24346
828.577	24129
828.716	24395
828.855	24224
828.994	24007
829.134	24018
829.273	24015
829.412	23939
829.551	24076
829.69	23927
829.829	24015
829.968	24121
830.107	24133
830.246	24022
830.385	23954
830.524	23931
830.663	23817
830.802	23707
830.941	23653
831.08	23551
831.219	23756
831.357	23805
831.496	23790
831.635	23653
831.774	23524
831.913	23398
832.051	23429
832.19	23387
832.329	23459
832.467	23280
832.606	23235
832.744	23292
832.883	23330
833.022	23284
833.16	23372
833.299	23280
833.437	23296
833.576	23558
833.714	23364
833.852	23436
833.991	23497
834.129	23440
834.267	23402
834.406	23372
834.544	23376
834.682	23372
834.821	23220
834.959	23627
835.097	23356
835.235	23474
835.373	23376
835.511	23326
835.65	23246
835.788	23212
835.926	23113
836.064	23128
836.202	23113
836.34	23071
836.478	23383
836.615	23090
836.753	23147
836.891	23269
837.029	23166
837.167	23200
837.305	23223
837.443	23113
837.58	22980
837.718	23071
837.856	23166
837.993	23113
838.131	22995
838.269	22972
838.406	22927
838.544	22919
838.681	22713
838.819	22710
838.956	22611
839.094	22546
839.231	22523
839.369	22721
839.506	22923
839.643	22744
839.781	22523
839.918	22466
840.055	22649
840.193	22577
840.33	22466
840.467	22497
840.604	22405
840.742	22710
840.879	22200
841.016	22421
841.153	22386
841.29	22485
841.427	22436
841.564	22470
841.701	22481
841.838	22413
841.975	22211
842.112	22451
842.249	22299
842.385	22101
842.522	22436
842.659	22230
842.796	22166
842.933	22223
843.069	22124
843.206	22257
843.343	22238
843.479	22284
843.616	22230
843.752	22013
843.889	22143
844.025	22226
844.162	22093
844.298	21987
844.435	22036
844.571	21937
844.708	22101
844.844	22211
844.98	22101
845.117	22078
845.253	21956
845.389	21827
845.525	21930
845.661	21907
845.798	21800
845.934	21819
846.07	21743
846.206	21861
846.342	21975
846.478	21724
846.614	21637
846.75	21519
846.886	21416
847.022	21675
847.158	21637
847.294	21580
847.429	21507
847.565	21420
847.701	21812
847.837	21230
847.972	21222
848.108	21355
848.244	21260
848.379	21119
848.515	21036
848.65	21043
848.786	21180
848.921	21180
849.057	21207
849.192	21119
849.328	21093
849.463	21058
849.598	20941
849.734	21024
849.869	20868
850.004	20960
850.14	20804
850.275	20883
850.41	20906
850.545	20739
850.68	20708
850.815	20845
850.95	20834
851.085	20971
851.22	20883
851.355	20857
851.49	20868
851.625	20826
851.76	20914
851.895	20712
852.03	20785
852.165	20872
852.299	20872
852.434	20948
852.569	20842
852.703	20857
852.838	20899
852.973	21020
853.107	20952
853.242	20823
853.376	20663
853.511	20526
853.645	20686
853.78	20807
853.914	20727
854.048	20670
854.183	20575
854.317	20785
854.451	20872
854.585	20758
854.72	20750
854.854	20769
854.988	20629
855.122	20686
855.256	20617
855.39	20686
855.524	20693
855.658	20648
855.792	20606
855.926	20739
856.06	20651
856.194	20765
856.327	20720
856.461	20644
856.595	20739
856.729	20625
856.862	20667
856.996	20811
857.13	20705
857.263	20727
857.397	20724
857.53	20621
857.664	20686
857.797	20716
857.931	20765
858.064	20720
858.197	20792
858.331	20651
858.464	20579
858.597	20514
858.731	20686
858.864	20670
858.997	20594
859.13	20583
859.263	20602
859.396	20845
859.529	20495
859.662	20686
859.795	20629
859.928	20564
860.061	20731
860.194	20861
860.327	20754
860.46	20720
860.592	20750
860.725	20750
860.858	20724
860.99	20667
861.123	20476
861.256	20613
861.388	20648
861.521	21264
861.653	20590
861.786	20469
861.918	20446
862.05	20503
862.183	20568
862.315	20564
862.447	20670
862.58	20552
862.712	20507
862.844	20324
862.976	20484
863.108	20419
863.24	20720
863.372	20317
863.504	20309
863.636	20313
863.768	20404
863.9	20400
864.032	20393
864.164	20256
864.296	20396
864.428	20431
864.559	20431
864.691	20476
864.823	20332
864.954	20374
865.086	20301
865.217	20259
865.349	20149
865.48	20301
865.612	20305
865.743	20393
865.875	20271
866.006	20263
866.137	20233
866.269	20336
866.4	20358
866.531	20244
866.662	20263
866.793	20259
866.924	20199
867.055	20305
867.186	20263
867.317	20237
867.448	20195
867.579	20081
867.71	20084
867.841	20122
867.972	20267
868.103	20164
868.233	20134
868.364	20225
868.495	20298
868.625	20343
868.756	20602
868.886	20199
869.017	20400
869.147	20568
869.278	20511
869.408	20450
869.539	20511
869.669	20503
869.799	20598
869.929	20583
870.06	20632
870.19	20773
870.32	20716
870.45	20765
870.58	20804
870.71	20979
870.84	20990
870.97	20845
871.1	20902
871.23	21017
871.36	21028
871.489	21013
871.619	21100
871.749	21013
871.879	21169
872.008	21211
872.138	21013
872.267	20994
872.397	20933
872.526	20758
872.656	20830
872.785	20826
872.915	21085
873.044	21116
873.173	21100
873.303	21055
873.432	21036
873.561	21233
873.69	21013
873.819	21123
873.948	21203
874.077	21028
874.206	21051
874.335	21062
874.464	21169
874.593	21260
874.722	21256
874.851	21412
874.979	21340
875.108	21332
875.237	21249
875.365	21325
875.494	21405
875.623	21359
875.751	21275
875.88	21310
876.008	21462
876.136	21408
876.265	21709
876.393	21842
876.521	21747
876.65	21812
876.778	21861
876.906	21549
877.034	21587
877.162	21694
877.29	21511
877.418	21629
877.546	21545
877.674	21717
877.802	21549
877.93	21606
878.058	21652
878.185	21618
878.313	21580
878.441	21625
878.568	21473
878.696	21629
878.824	21644
878.951	21690
879.079	21838
879.206	21819
879.333	21831
879.461	21656
879.588	21717
879.715	21816
879.842	21854
879.97	21736
880.097	21519
880.224	21530
880.351	21469
880.478	21488
880.605	21454
880.732	21504
880.859	21724
880.986	21496
881.112	21507
881.239	21405
881.366	21241
881.493	21176
881.619	20994
881.746	21066
881.872	21176
881.999	21047
882.125	21020
882.252	21123
882.378	21161
882.505	21116
882.631	21055
882.757	20804
882.883	20819
883.01	20861
883.136	20735
883.262	20720
883.388	20667
883.514	20906
883.64	20883
883.766	20731
883.892	20621
884.018	20670
884.143	20705
884.269	20807
884.395	20511
884.52	20412
884.646	20381
884.772	20408
884.897	20396
885.023	20457
885.148	20427
885.274	20701
885.399	20560
885.524	20404
885.65	20343
885.775	20404
885.9	20434
886.025	20587
886.15	20488
886.275	20336
886.4	20355
886.525	20305
886.65	20305
886.775	20404
886.9	20495
887.025	20651
887.149	20518
887.274	20313
887.399	20157
887.523	20202
887.648	20187
887.773	20100
887.897	20317
888.021	20183
888.146	20176
888.27	20244
888.395	20355
888.519	20244
888.643	20157
888.767	20229
888.891	20107
889.015	19909
889.139	20096
889.263	20077
889.387	20092
889.511	20157
889.635	20233
889.759	19974
889.883	20012
890.006	19974
890.13	20084
890.254	19875
890.377	19856
890.501	19822
890.624	19715
890.748	19807
890.871	19571
890.995	19525
891.118	19582
891.241	19552
891.364	19480
891.488	19670
891.611	19635
891.734	19567
891.857	19670
891.98	19582
892.103	19616
892.226	19639
892.349	19510
892.471	19438
892.594	19586
892.717	19544
892.839	19419
892.962	19495
893.085	19613
893.207	19491
893.33	19392
893.452	19415
893.575	19533
893.697	19506
893.819	19548
893.941	19731
894.064	19597
894.186	19407
894.308	19415
894.43	19590
894.552	19613
894.674	19616
894.796	19377
894.918	19457
895.04	19453
895.161	19674
895.283	19502
895.405	19449
895.526	19430
895.648	19540
895.769	19476
895.891	19609
896.012	19563
896.134	19559
896.255	19651
896.376	19464
896.498	19506
896.619	19578
896.74	19594
896.861	19578
896.982	19822
897.103	19917
897.224	19784
897.345	19715
897.466	19693
897.587	19715
897.708	19868
897.828	19594
897.949	19578
898.07	19464
898.19	19727
898.311	19723
898.431	19689
898.552	19727
898.672	19784
898.792	19868
898.913	19780
899.033	19635
899.153	19502
899.273	19457
899.393	19434
899.513	19483
899.633	19578
899.753	19518
899.873	19453
899.993	19575
900.113	19392
900.232	19480
900.352	19441
900.472	19384
900.591	19282
900.711	19316
900.83	19282
900.95	19430
901.069	19350
901.189	19129
901.308	19012
901.427	18916
901.546	18837
901.665	18817
901.784	18886
901.904	18658
902.023	18612
902.141	18551
902.26	18528
902.379	18513
902.498	18369
902.617	18292
902.735	18437
902.854	18292
902.973	18300
903.091	18068
903.21	18041
903.328	18114
903.446	17809
903.565	17847
903.683	17912
903.801	17764
903.919	17821
904.038	17813
904.156	17600
904.274	17748
904.392	17665
904.51	17657
904.627	17592
904.745	17756
904.863	17691
904.981	17448
905.098	17372
905.216	17307
905.334	17429
905.451	17292
905.569	17284
905.686	17436
905.803	17258
905.921	17204
906.038	17250
906.155	17136
906.272	17022
906.389	16987
906.506	16801
906.623	16946
906.74	16889
906.857	16774
906.974	16809
907.091	16942
907.208	16919
907.324	16938
907.441	16858
907.557	16664
907.674	16637
907.79	16519
907.907	16565
908.023	16584
908.139	16611
908.256	16535
908.372	16489
908.488	16485
908.604	16413
908.72	16314
908.836	16306
908.952	16344
909.068	16432
909.184	16421
909.3	16379
909.415	16322
909.531	16352
909.647	16166
909.762	16097
909.878	16074
909.993	16055
910.108	15972
910.224	16017
910.339	16074
910.454	15892
910.57	15827
910.685	15857
910.8	16074
910.915	16059
911.03	15751
911.145	15698
911.259	15686
911.374	15671
911.489	15637
911.604	15633
911.718	15424
911.833	15332
911.947	15355
912.062	15256
912.176	15397
912.291	15348
912.405	15363
912.519	15454
912.633	15542
912.748	15473
912.862	15332
912.976	15344
913.09	15127
913.204	15230
913.318	15165
913.431	15310
913.545	15279
913.659	15370
913.772	15154
913.886	15066
914	14960
914.113	15070
914.226	15100
914.34	15108
914.453	14868
914.566	15036
914.68	14979
914.793	14876
914.906	14701
915.019	14674
915.132	14697
915.245	14617
915.358	14708
915.47	14655
915.583	14644
915.696	14705
915.809	14693
915.921	14834
916.034	14518
916.146	14564
916.259	14602
916.371	14648
916.483	14594
916.595	14473
916.708	14419
916.82	14514
916.932	14495
917.044	14461
917.156	14450
917.268	14256
917.38	14256
917.491	14343
917.603	14278
917.715	14343
917.826	14362
917.938	14206
918.049	14100
918.161	14301
918.272	14343
918.384	14408
918.495	14317
918.606	14145
918.717	14088
918.828	14035
918.939	14149
919.05	14016
919.161	14100
919.272	13849
919.383	13993
919.494	14077
919.604	14427
919.715	14081
919.826	13989
919.936	14043
920.047	14073
920.157	14058
920.267	14202
920.378	14050
920.488	14073
920.598	14191
920.708	14351
920.818	14259
920.928	14172
921.038	14298
921.148	14290
921.258	14103
921.368	13803
921.477	13856
921.587	13753
921.697	13658
921.806	13841
921.916	13670
922.025	13480
922.134	13411
922.244	13225
922.353	13487
922.462	13259
922.571	13206
922.68	13107
922.789	13080
922.898	13050
923.007	13122
923.116	13072
923.224	13046
923.333	13034
923.442	12935
923.55	12897
923.659	12993
923.767	13065
923.876	12852
923.984	12916
924.092	12772
924.201	12886
924.309	12932
924.417	12878
924.525	12821
924.633	12749
924.741	13616
924.849	12578
924.956	12711
925.064	12631
925.172	12471
925.279	12517
925.387	12547
925.494	12513
925.602	12635
925.709	12612
925.816	12456
925.924	12494
926.031	12570
926.138	12486
926.245	12471
926.352	12369
926.459	12471
926.566	12445
926.673	12350
926.779	12357
926.886	12311
926.993	12243
927.099	12155
927.206	12087
927.312	12045
927.419	12190
927.525	12102
927.631	12072
927.737	12095
927.843	11999
927.95	11958
928.056	12011
928.162	11912
928.267	11973
928.373	12467
928.479	12045
928.585	11798
928.69	11931
928.796	11927
928.901	11832
929.007	11767
929.112	11840
929.218	11809
929.323	11718
929.428	11726
929.533	11775
929.638	11688
929.743	11627
929.848	11676
929.953	11619
930.058	11611
930.163	11376
930.267	11433
930.372	11524
930.477	11269
930.581	11615
930.685	11417
930.79	11284
930.894	11337
930.998	11296
931.103	11383
931.207	11075
931.311	10968
931.415	10812
931.519	10694
931.623	10664
