Data from test_V78500241_1018.txt Node
Date: Fri Mar 25 15:16:56 CST 2022
User: usil
Spectrometer: V785-0024
Trigger mode: 0
Integration Time (sec): 4.000000E-1
Scans to average: 1
Nonlinearity correction enabled: false
Boxcar width: 0
Storing dark spectrum: false
XAxis mode: Wavelengths
Number of Pixels in Spectrum: 1024
>>>>>Begin Spectral Data<<<<<
801.071	28455
801.214	28299
801.356	28120
801.499	27949
801.641	27934
801.783	27956
801.926	28074
802.068	27934
802.211	27857
802.353	27987
802.496	27545
802.638	27572
802.78	27747
802.923	27622
803.065	27644
803.208	27656
803.35	27633
803.492	27812
803.635	27797
803.777	27728
803.919	27762
804.061	28234
804.204	27835
804.346	27861
804.488	27766
804.63	27953
804.773	27679
804.915	27953
805.057	28029
805.199	27854
805.341	28006
805.483	28162
805.626	28044
805.768	28010
805.91	27914
806.052	28002
806.194	27762
806.336	28162
806.478	28150
806.62	27983
806.762	28059
806.904	28367
807.046	28557
807.188	28405
807.33	28478
807.472	28516
807.614	28371
807.756	28447
807.898	28257
808.04	28268
808.182	28246
808.324	28177
808.465	28337
808.607	28504
808.749	28580
808.891	28759
809.033	28831
809.174	28740
809.316	28599
809.458	28607
809.6	28660
809.741	28672
809.883	28824
810.025	28915
810.166	28968
810.308	28995
810.45	28934
810.591	28892
810.733	28668
810.875	28694
811.016	28561
811.158	28618
811.299	28835
811.441	28752
811.582	28824
811.724	28596
811.865	28462
812.007	28763
812.148	28645
812.29	28725
812.431	28892
812.573	28987
812.714	29204
812.855	29242
812.997	29345
813.138	29562
813.279	29307
813.421	29121
813.562	29242
813.703	28972
813.845	28847
813.986	28664
814.127	28615
814.268	28287
814.41	28440
814.551	28314
814.692	28569
814.833	28314
814.974	28333
815.115	28409
815.256	28238
815.397	28398
815.539	28211
815.68	28154
815.821	28147
815.962	28162
816.103	28272
816.244	28120
816.385	28013
816.526	27987
816.666	27842
816.807	27648
816.948	27812
817.089	27785
817.23	27690
817.371	27755
817.512	27785
817.653	27686
817.793	27675
817.934	27751
818.075	27770
818.216	27637
818.356	27644
818.497	27648
818.638	27378
818.778	27469
818.919	27477
819.06	27507
819.2	27629
819.341	27614
819.481	27701
819.622	27972
819.762	28139
819.903	27979
820.043	27934
820.184	27918
820.324	27945
820.465	28002
820.605	27732
820.746	27846
820.886	27686
821.026	27778
821.167	27781
821.307	27797
821.447	27736
821.588	27637
821.728	27553
821.868	27332
822.008	27203
822.149	27184
822.289	27268
822.429	26914
822.569	26861
822.709	26788
822.849	26686
822.99	26632
823.13	26819
823.27	26697
823.41	26484
823.55	26453
823.69	26545
823.83	26568
823.97	26438
824.11	26324
824.25	26298
824.389	26423
824.529	26507
824.669	26381
824.809	26442
824.949	26320
825.089	26507
825.228	26336
825.368	26366
825.508	26256
825.648	26119
825.787	26362
825.927	26366
826.067	26248
826.206	26187
826.346	26374
826.485	26286
826.625	26145
826.765	26324
826.904	26396
827.044	25936
827.183	26016
827.323	26031
827.462	25986
827.601	26008
827.741	25951
827.88	25928
828.02	25856
828.159	25887
828.298	25947
828.437	26031
828.577	25887
828.716	26077
828.855	25879
828.994	25670
829.134	25738
829.273	25681
829.412	25666
829.551	25635
829.69	25639
829.829	25647
829.968	25715
830.107	25784
830.246	25506
830.385	25495
830.524	25559
830.663	25533
830.802	25362
830.941	25343
831.08	25266
831.219	25335
831.357	25434
831.496	25537
831.635	25316
831.774	25278
831.913	25145
832.051	25179
832.19	25103
832.329	25069
832.467	24928
832.606	24920
832.744	24992
832.883	24932
833.022	24962
833.16	24992
833.299	24966
833.437	25080
833.576	25160
833.714	25012
833.852	25133
833.991	25023
834.129	25202
834.267	25236
834.406	25031
834.544	25076
834.682	25103
834.821	25023
834.959	25061
835.097	24932
835.235	25088
835.373	24989
835.511	24939
835.65	24901
835.788	25031
835.926	24783
836.064	24585
836.202	24673
836.34	24886
836.478	24970
836.615	24844
836.753	25004
836.891	24894
837.029	24859
837.167	24692
837.305	24760
837.443	24833
837.58	24681
837.718	24772
837.856	24844
837.993	24547
838.131	24631
838.269	24623
838.406	24684
838.544	24513
838.681	24376
838.819	24372
838.956	24133
839.094	24186
839.231	24342
839.369	24380
839.506	24566
839.643	24350
839.781	24174
839.918	24144
840.055	24235
840.193	24224
840.33	24034
840.467	23996
840.604	24102
840.742	24357
840.879	23969
841.016	24209
841.153	24049
841.29	24319
841.427	24034
841.564	24174
841.701	24064
841.838	23863
841.975	24015
842.112	23855
842.249	23855
842.385	23760
842.522	24045
842.659	23897
842.796	23889
842.933	23882
843.069	23832
843.206	23779
843.343	23973
843.479	23935
843.616	23756
843.752	23520
843.889	23562
844.025	23836
844.162	23562
844.298	23752
844.435	23608
844.571	23604
844.708	23543
844.844	23779
844.98	23790
845.117	23786
845.253	23539
845.389	23452
845.525	23531
845.661	23288
845.798	23364
845.934	23383
846.07	23376
846.206	23402
846.342	23444
846.478	23345
846.614	23037
846.75	23083
846.886	23018
847.022	23147
847.158	23022
847.294	22995
847.429	22976
847.565	23029
847.701	23220
847.837	22881
847.972	22790
848.108	22896
848.244	22820
848.379	22740
848.515	22733
848.65	22634
848.786	22736
848.921	22664
849.057	22820
849.192	22748
849.328	22691
849.463	22596
849.598	22630
849.734	22512
849.869	22424
850.004	22413
850.14	22466
850.275	22375
850.41	22299
850.545	22390
850.68	22314
850.815	22519
850.95	22360
851.085	22519
851.22	22542
851.355	22489
851.49	22318
851.625	22306
851.76	22402
851.895	22360
852.03	22242
852.165	22394
852.299	22432
852.434	22565
852.569	22443
852.703	22325
852.838	22424
852.973	22424
853.107	22615
853.242	22348
853.376	22196
853.511	22158
853.645	22276
853.78	22470
853.914	22246
854.048	22109
854.183	22154
854.317	22242
854.451	22519
854.585	22234
854.72	22200
854.854	22147
854.988	22188
855.122	22363
855.256	22143
855.39	22185
855.524	22356
855.658	22253
855.792	22234
855.926	22299
856.06	22249
856.194	22325
856.327	22333
856.461	22204
856.595	22147
856.729	22238
856.862	22363
856.996	22253
857.13	22261
857.263	22337
857.397	22356
857.53	22204
857.664	22284
857.797	22223
857.931	22329
858.064	22215
858.197	22314
858.331	22291
858.464	22158
858.597	22131
858.731	22120
858.864	22143
858.997	22120
859.13	22207
859.263	22246
859.396	22356
859.529	22352
859.662	22230
859.795	22173
859.928	22211
860.061	22265
860.194	22348
860.327	22337
860.46	22265
860.592	22352
860.725	22363
860.858	22322
860.99	22272
861.123	22177
861.256	22249
861.388	22226
861.521	23029
861.653	22090
861.786	22029
861.918	22128
862.05	22067
862.183	22238
862.315	22242
862.447	22268
862.58	22097
862.712	21915
862.844	21842
862.976	22032
863.108	21991
863.24	22322
863.372	21808
863.504	21960
863.636	21956
863.768	22029
863.9	21953
864.032	21823
864.164	21797
864.296	21994
864.428	22051
864.559	22063
864.691	21937
864.823	21945
864.954	21941
865.086	21949
865.217	21793
865.349	21778
865.48	21842
865.612	21899
865.743	21907
865.875	21937
866.006	21781
866.137	21717
866.269	21831
866.4	21850
866.531	21694
866.662	21633
866.793	21717
866.924	21701
867.055	21778
867.186	21816
867.317	21652
867.448	21671
867.579	21819
867.71	21663
867.841	21728
867.972	21641
868.103	21854
868.233	21755
868.364	21663
868.495	21816
868.625	21975
868.756	22090
868.886	21873
869.017	21983
869.147	22109
869.278	22204
869.408	21991
869.539	21987
869.669	22112
869.799	22082
869.929	22135
870.06	22021
870.19	22249
870.32	22287
870.45	22135
870.58	22360
870.71	22398
870.84	22565
870.97	22299
871.1	22341
871.23	22474
871.36	22538
871.489	22489
871.619	22637
871.749	22462
871.879	22752
872.008	22675
872.138	22573
872.267	22535
872.397	22470
872.526	22344
872.656	22462
872.785	22253
872.915	22500
873.044	22698
873.173	22710
873.303	22771
873.432	22664
873.561	22744
873.69	22691
873.819	22550
873.948	22675
874.077	22660
874.206	22474
874.335	22748
874.464	22763
874.593	22782
874.722	22634
874.851	22953
874.979	22752
875.108	22866
875.237	22752
875.365	22694
875.494	22759
875.623	22850
875.751	22793
875.88	22850
876.008	22900
876.136	23079
876.265	23060
876.393	23349
876.521	23315
876.65	23345
876.778	23121
876.906	23117
877.034	23189
877.162	23197
877.29	23208
877.418	22991
877.546	23193
877.674	23193
877.802	23181
877.93	23216
878.058	22965
878.185	23006
878.313	23048
878.441	22987
878.568	22980
878.696	23060
878.824	23166
878.951	23162
879.079	23379
879.206	23383
879.333	23318
879.461	23033
879.588	23261
879.715	23292
879.842	23353
879.97	23197
880.097	23010
880.224	22881
880.351	22934
880.478	22968
880.605	22881
880.732	22904
880.859	23128
880.986	23003
881.112	23025
881.239	22748
881.366	22687
881.493	22596
881.619	22417
881.746	22550
881.872	22508
881.999	22519
882.125	22436
882.252	22580
882.378	22466
882.505	22497
882.631	22398
882.757	22242
882.883	22314
883.01	22211
883.136	22082
883.262	22105
883.388	22086
883.514	22188
883.64	22291
883.766	22128
883.892	21785
884.018	21934
884.143	22166
884.269	22234
884.395	21934
884.52	21804
884.646	21838
884.772	21728
884.897	21701
885.023	21922
885.148	22074
885.274	22006
885.399	21915
885.524	21857
885.65	21903
885.775	21838
885.9	21823
886.025	22025
886.15	21888
886.275	21682
886.4	21785
886.525	21903
886.65	21857
886.775	21789
886.9	21846
887.025	21983
887.149	21846
887.274	21682
887.399	21595
887.523	21618
887.648	21599
887.773	21568
887.897	21667
888.021	21720
888.146	21542
888.27	21755
888.395	21720
888.519	21766
888.643	21644
888.767	21583
888.891	21458
889.015	21454
889.139	21469
889.263	21408
889.387	21462
889.511	21606
889.635	21576
889.759	21260
889.883	21401
890.006	21382
890.13	21389
890.254	21291
890.377	21302
890.501	21230
890.624	21116
890.748	21108
890.871	20982
890.995	20891
891.118	20834
891.241	21009
891.364	21039
891.488	21062
891.611	20956
891.734	20998
891.857	20998
891.98	20975
892.103	20982
892.226	20887
892.349	20864
892.471	20727
892.594	20838
892.717	20769
892.839	20883
892.962	20781
893.085	20906
893.207	20834
893.33	20754
893.452	20804
893.575	20712
893.697	20727
893.819	20880
893.941	21032
894.064	20971
894.186	20834
894.308	20640
894.43	20880
894.552	20895
894.674	20845
894.796	20819
894.918	20861
895.04	20712
895.161	20853
895.283	20921
895.405	20701
895.526	20834
895.648	20773
895.769	20937
895.891	20857
896.012	20883
896.134	20735
896.255	20891
896.376	20800
896.498	20750
896.619	20906
896.74	20807
896.861	20921
896.982	21062
897.103	21237
897.224	21028
897.345	20906
897.466	20979
897.587	21085
897.708	21218
897.828	21001
897.949	20864
898.07	20861
898.19	20956
898.311	21039
898.431	20910
898.552	21020
898.672	21005
898.792	21142
898.913	21001
899.033	20971
899.153	20948
899.273	20705
899.393	20788
899.513	20750
899.633	20724
899.753	20743
899.873	20689
899.993	20701
900.113	20686
900.232	20830
900.352	20682
900.472	20606
900.591	20446
900.711	20530
900.83	20419
900.95	20507
901.069	20545
901.189	20488
901.308	20225
901.427	20046
901.546	20096
901.665	20134
901.784	20016
901.904	19928
902.023	19864
902.141	19689
902.26	19578
902.379	19639
902.498	19647
902.617	19506
902.735	19677
902.854	19571
902.973	19605
903.091	19308
903.21	19244
903.328	19240
903.446	19232
903.565	18981
903.683	19057
903.801	18954
903.919	18954
904.038	19015
904.156	18909
904.274	18871
904.392	18867
904.51	18829
904.627	18916
904.745	18867
904.863	18791
904.981	18658
905.098	18601
905.216	18437
905.334	18521
905.451	18551
905.569	18445
905.686	18566
905.803	18490
905.921	18247
906.038	18353
906.155	18308
906.272	18270
906.389	18292
906.506	18030
906.623	18015
906.74	17942
906.857	17950
906.974	17973
907.091	18076
907.208	18167
907.324	18095
907.441	17923
907.557	17699
907.674	17756
907.79	17718
907.907	17775
908.023	17764
908.139	17695
908.256	17638
908.372	17577
908.488	17672
908.604	17414
908.72	17364
908.836	17444
908.952	17501
909.068	17520
909.184	17493
909.3	17376
909.415	17505
909.531	17535
909.647	17189
909.762	17178
909.878	17052
909.993	17231
910.108	17159
910.224	17128
910.339	17109
910.454	16965
910.57	16904
910.685	16915
910.8	17193
910.915	17041
911.03	16892
911.145	16717
911.259	16786
911.374	16778
911.489	16634
911.604	16588
911.718	16432
911.833	16455
911.947	16390
912.062	16325
912.176	16341
912.291	16424
912.405	16409
912.519	16516
912.633	16660
912.748	16470
912.862	16413
912.976	16299
913.09	16219
913.204	16249
913.318	16211
913.431	16337
913.545	16371
913.659	16367
913.772	16230
913.886	16116
914	16109
914.113	16101
914.226	16097
914.34	16150
914.453	15964
914.566	16071
914.68	16048
914.793	15972
914.906	15728
915.019	15724
915.132	15667
915.245	15603
915.358	15690
915.47	15705
915.583	15682
915.696	15682
915.809	15705
915.921	15759
916.034	15629
916.146	15660
916.259	15591
916.371	15644
916.483	15564
916.595	15439
916.708	15405
916.82	15469
916.932	15507
917.044	15431
917.156	15370
917.268	15344
917.38	15416
917.491	15252
917.603	15348
917.715	15351
917.826	15378
917.938	15123
918.049	15165
918.161	15291
918.272	15317
918.384	15393
918.495	15237
918.606	15074
918.717	14971
918.828	15066
918.939	15097
919.05	14914
919.161	15097
919.272	14880
919.383	14880
919.494	15070
919.604	15207
919.715	15017
919.826	14857
919.936	15001
920.047	15043
920.157	14994
920.267	15192
920.378	15032
920.488	14960
920.598	15169
920.708	15184
920.818	15188
920.928	15020
921.038	15279
921.148	15272
921.258	15028
921.368	14823
921.477	14697
921.587	14674
921.697	14579
921.806	14708
921.916	14594
922.025	14415
922.134	14358
922.244	14320
922.353	14385
922.462	14252
922.571	14103
922.68	14058
922.789	13925
922.898	13951
923.007	14016
923.116	14111
923.224	13982
923.333	13932
923.442	13845
923.55	13887
923.659	13852
923.767	13814
923.876	13769
923.984	13898
924.092	13677
924.201	13765
924.309	13750
924.417	13674
924.525	13670
924.633	13628
924.741	14560
924.849	13358
924.956	13693
925.064	13438
925.172	13422
925.279	13400
925.387	13411
925.494	13362
925.602	13403
925.709	13445
925.816	13263
925.924	13274
926.031	13365
926.138	13278
926.245	13354
926.352	13217
926.459	13392
926.566	13392
926.673	13236
926.779	13053
926.886	13179
926.993	12993
927.099	12924
927.206	12878
927.312	12894
927.419	12996
927.525	12935
927.631	12932
927.737	12878
927.843	12760
927.95	12681
928.056	12749
928.162	12817
928.267	12840
928.373	13221
928.479	12852
928.585	12498
928.69	12601
928.796	12692
928.901	12654
929.007	12464
929.112	12627
929.218	12593
929.323	12486
929.428	12350
929.533	12544
929.638	12418
929.743	12388
929.848	12475
929.953	12372
930.058	12346
930.163	12159
930.267	12182
930.372	12330
930.477	12064
930.581	12346
930.685	12133
930.79	12053
930.894	12072
930.998	11977
931.103	12064
931.207	11764
931.311	11661
931.415	11615
931.519	11463
931.623	11356
