Data from test_V78500241_3535.txt Node
Date: Fri Mar 25 15:34:28 CST 2022
User: usil
Spectrometer: V785-0024
Trigger mode: 0
Integration Time (sec): 4.000000E-1
Scans to average: 1
Nonlinearity correction enabled: false
Boxcar width: 0
Storing dark spectrum: false
XAxis mode: Wavelengths
Number of Pixels in Spectrum: 1024
>>>>>Begin Spectral Data<<<<<
801.071	27214
801.214	27184
801.356	27089
801.499	26887
801.641	26933
801.783	26777
801.926	26750
802.068	26792
802.211	26697
802.353	26678
802.496	26450
802.638	26423
802.78	26351
802.923	26503
803.065	26218
803.208	26412
803.35	26313
803.492	26408
803.635	26697
803.777	26377
803.919	26598
804.061	26948
804.204	26575
804.346	26453
804.488	26621
804.63	26393
804.773	26465
804.915	26594
805.057	26609
805.199	26667
805.341	26663
805.483	26697
805.626	26727
805.768	26621
805.91	26621
806.052	26625
806.194	26750
806.336	26781
806.478	26636
806.62	26621
806.762	26769
806.904	26914
807.046	27077
807.188	27116
807.33	27036
807.472	27207
807.614	26990
807.756	26998
807.898	26921
808.04	26804
808.182	26788
808.324	26990
808.465	26849
808.607	27039
808.749	27332
808.891	27389
809.033	27405
809.174	27214
809.316	27302
809.458	27180
809.6	27119
809.741	27389
809.883	27386
810.025	27542
810.166	27564
810.308	27591
810.45	27595
810.591	27538
810.733	27287
810.875	27199
811.016	27165
811.158	27062
811.299	27241
811.441	27359
811.582	27519
811.724	27214
811.865	27199
812.007	27081
812.148	27112
812.29	27256
812.431	27370
812.573	27542
812.714	27599
812.855	27720
812.997	27911
813.138	27956
813.279	27953
813.421	27789
813.562	27709
813.703	27633
813.845	27466
813.986	27176
814.127	27028
814.268	26956
814.41	26857
814.551	26899
814.692	26956
814.833	26933
814.974	26853
815.115	26990
815.256	26765
815.397	26674
815.539	26807
815.68	26746
815.821	26594
815.962	26693
816.103	26777
816.244	26556
816.385	26453
816.526	26408
816.666	26343
816.807	26244
816.948	26229
817.089	26195
817.23	26233
817.371	26077
817.512	26096
817.653	26183
817.793	26065
817.934	26107
818.075	26347
818.216	26218
818.356	26153
818.497	25986
818.638	25833
818.778	25955
818.919	25925
819.06	25978
819.2	26054
819.341	26134
819.481	26145
819.622	26358
819.762	26423
819.903	26374
820.043	26218
820.184	26427
820.324	26259
820.465	26419
820.605	26206
820.746	26298
820.886	26103
821.026	26240
821.167	26336
821.307	26180
821.447	26199
821.588	26069
821.728	26031
821.868	25814
822.008	25674
822.149	25559
822.289	25624
822.429	25476
822.569	25228
822.709	25335
822.849	25164
822.99	25156
823.13	25202
823.27	25126
823.41	25065
823.55	24749
823.69	24928
823.83	24966
823.97	24859
824.11	24783
824.25	24635
824.389	24738
824.529	24924
824.669	24707
824.809	24795
824.949	25000
825.089	24875
825.228	24829
825.368	24669
825.508	24612
825.648	24593
825.787	24642
825.927	24642
826.067	24700
826.206	24646
826.346	24623
826.485	24631
826.625	24745
826.765	24791
826.904	24597
827.044	24540
827.183	24448
827.323	24410
827.462	24448
827.601	24308
827.741	24323
827.88	24422
828.02	24254
828.159	24437
828.298	24334
828.437	24441
828.577	24342
828.716	24464
828.855	24254
828.994	24163
829.134	24022
829.273	24110
829.412	24087
829.551	24205
829.69	24102
829.829	23965
829.968	24266
830.107	24155
830.246	24064
830.385	24003
830.524	24064
830.663	23942
830.802	23828
830.941	23653
831.08	23699
831.219	23703
831.357	23783
831.496	23961
831.635	23657
831.774	23600
831.913	23642
832.051	23543
832.19	23474
832.329	23554
832.467	23497
832.606	23292
832.744	23425
832.883	23455
833.022	23326
833.16	23391
833.299	23436
833.437	23356
833.576	23337
833.714	23414
833.852	23493
833.991	23452
834.129	23486
834.267	23581
834.406	23490
834.544	23585
834.682	23474
834.821	23364
834.959	23665
835.097	23570
835.235	23417
835.373	23486
835.511	23368
835.65	23330
835.788	23349
835.926	23269
836.064	22995
836.202	23132
836.34	23334
836.478	23406
836.615	23216
836.753	23315
836.891	23326
837.029	23303
837.167	23204
837.305	23269
837.443	23216
837.58	23090
837.718	23155
837.856	23227
837.993	23113
838.131	23102
838.269	23010
838.406	22984
838.544	22869
838.681	22793
838.819	22786
838.956	22618
839.094	22691
839.231	22656
839.369	22755
839.506	22923
839.643	22908
839.781	22660
839.918	22626
840.055	22565
840.193	22618
840.33	22508
840.467	22626
840.604	22736
840.742	22824
840.879	22577
841.016	22440
841.153	22363
841.29	22664
841.427	22462
841.564	22459
841.701	22497
841.838	22550
841.975	22481
842.112	22447
842.249	22474
842.385	22379
842.522	22508
842.659	22432
842.796	22192
842.933	22367
843.069	22238
843.206	22398
843.343	22417
843.479	22394
843.616	22341
843.752	22078
843.889	22112
844.025	22280
844.162	22207
844.298	22192
844.435	22002
844.571	22116
844.708	22067
844.844	22177
844.98	22272
845.117	22341
845.253	22124
845.389	21907
845.525	21998
845.661	21968
845.798	21873
845.934	21888
846.07	21850
846.206	21915
846.342	21972
846.478	21835
846.614	21720
846.75	21595
846.886	21599
847.022	21656
847.158	21701
847.294	21557
847.429	21458
847.565	21622
847.701	21926
847.837	21420
847.972	21249
848.108	21355
848.244	21469
848.379	21264
848.515	21051
848.65	21131
848.786	21226
848.921	21161
849.057	21173
849.192	21287
849.328	21294
849.463	21195
849.598	21184
849.734	21116
849.869	21051
850.004	20921
850.14	20986
850.275	20906
850.41	20868
850.545	20872
850.68	20925
850.815	20960
850.95	20857
851.085	21131
851.22	21005
851.355	20895
851.49	20891
851.625	20960
851.76	20895
851.895	20895
852.03	20872
852.165	20963
852.299	21001
852.434	20986
852.569	20925
852.703	20899
852.838	21062
852.973	21093
853.107	21070
853.242	20785
853.376	20716
853.511	20640
853.645	20743
853.78	20937
853.914	20823
854.048	20750
854.183	20743
854.317	20716
854.451	20830
854.585	20861
854.72	20750
854.854	20815
854.988	20754
855.122	20762
855.256	20670
855.39	20743
855.524	20689
855.658	20788
855.792	20876
855.926	20872
856.06	20864
856.194	20910
856.327	20819
856.461	20678
856.595	20667
856.729	20758
856.862	20883
856.996	20838
857.13	20796
857.263	20906
857.397	20754
857.53	20807
857.664	20921
857.797	20788
857.931	20899
858.064	20712
858.197	20899
858.331	20765
858.464	20686
858.597	20667
858.731	20769
858.864	20857
858.997	20716
859.13	20739
859.263	20849
859.396	20842
859.529	20651
859.662	20792
859.795	20708
859.928	20845
860.061	20921
860.194	20956
860.327	20826
860.46	20804
860.592	20815
860.725	20937
860.858	20800
860.99	20788
861.123	20617
861.256	20724
861.388	20716
861.521	21557
861.653	20735
861.786	20579
861.918	20575
862.05	20720
862.183	20765
862.315	20735
862.447	20785
862.58	20720
862.712	20427
862.844	20495
862.976	20518
863.108	20495
863.24	20853
863.372	20366
863.504	20476
863.636	20347
863.768	20404
863.9	20431
864.032	20313
864.164	20370
864.296	20499
864.428	20579
864.559	20640
864.691	20640
864.823	20423
864.954	20461
865.086	20423
865.217	20427
865.349	20313
865.48	20339
865.612	20298
865.743	20556
865.875	20503
866.006	20263
866.137	20408
866.269	20294
866.4	20362
866.531	20221
866.662	20191
866.793	20328
866.924	20355
867.055	20328
867.186	20355
867.317	20298
867.448	20252
867.579	20286
867.71	20347
867.841	20290
867.972	20393
868.103	20240
868.233	20370
868.364	20393
868.495	20366
868.625	20545
868.756	20663
868.886	20495
869.017	20526
869.147	20670
869.278	20735
869.408	20659
869.539	20644
869.669	20667
869.799	20587
869.929	20629
870.06	20689
870.19	20792
870.32	20883
870.45	20880
870.58	20982
870.71	20941
870.84	21055
870.97	20990
871.1	20933
871.23	21154
871.36	21203
871.489	21100
871.619	21077
871.749	21176
871.879	21146
872.008	21237
872.138	21222
872.267	21047
872.397	20857
872.526	20979
872.656	21055
872.785	21066
872.915	21222
873.044	21283
873.173	21226
873.303	21119
873.432	21321
873.561	21336
873.69	21317
873.819	21218
873.948	21363
874.077	21249
874.206	21176
874.335	21291
874.464	21310
874.593	21420
874.722	21488
874.851	21534
874.979	21496
875.108	21492
875.237	21412
875.365	21431
875.494	21386
875.623	21538
875.751	21462
875.88	21500
876.008	21671
876.136	21629
876.265	21998
876.393	22067
876.521	21865
876.65	21876
876.778	21823
876.906	21846
877.034	21785
877.162	21835
877.29	21808
877.418	21759
877.546	21812
877.674	21816
877.802	21808
877.93	21854
878.058	21869
878.185	21660
878.313	21762
878.441	21865
878.568	21694
878.696	21823
878.824	21937
878.951	21842
879.079	21949
879.206	22139
879.333	21972
879.461	21918
879.588	21846
879.715	22010
879.842	22101
879.97	21888
880.097	21622
880.224	21595
880.351	21709
880.478	21641
880.605	21526
880.732	21686
880.859	21846
880.986	21785
881.112	21648
881.239	21572
881.366	21401
881.493	21302
881.619	21211
881.746	21249
881.872	21230
881.999	21249
882.125	21169
882.252	21306
882.378	21252
882.505	21302
882.631	21108
882.757	21020
882.883	21074
883.01	20967
883.136	20914
883.262	20834
883.388	20811
883.514	21001
883.64	21024
883.766	20891
883.892	20693
884.018	20807
884.143	20883
884.269	21161
884.395	20697
884.52	20587
884.646	20587
884.772	20431
884.897	20552
885.023	20613
885.148	20792
885.274	20701
885.399	20773
885.524	20697
885.65	20682
885.775	20469
885.9	20575
886.025	20659
886.15	20629
886.275	20545
886.4	20556
886.525	20518
886.65	20495
886.775	20476
886.9	20716
887.025	20811
887.149	20560
887.274	20465
887.399	20332
887.523	20484
887.648	20305
887.773	20149
887.897	20400
888.021	20396
888.146	20256
888.27	20381
888.395	20514
888.519	20419
888.643	20412
888.767	20442
888.891	20298
889.015	20168
889.139	20164
889.263	20256
889.387	20286
889.511	20282
889.635	20313
889.759	20164
889.883	20138
890.006	20119
890.13	20229
890.254	20012
890.377	20058
890.501	19982
890.624	19894
890.748	19936
890.871	19791
890.995	19784
891.118	19586
891.241	19712
891.364	19807
891.488	19879
891.611	19776
891.734	19715
891.857	19734
891.98	19875
892.103	19788
892.226	19689
892.349	19719
892.471	19533
892.594	19685
892.717	19647
892.839	19559
892.962	19624
893.085	19712
893.207	19727
893.33	19499
893.452	19556
893.575	19784
893.697	19609
893.819	19814
893.941	19906
894.064	19799
894.186	19651
894.308	19578
894.43	19734
894.552	19765
894.674	19757
894.796	19609
894.918	19586
895.04	19712
895.161	19666
895.283	19727
895.405	19548
895.526	19715
895.648	19700
895.769	19685
895.891	19780
896.012	19700
896.134	19635
896.255	19635
896.376	19590
896.498	19727
896.619	19647
896.74	19708
896.861	19693
896.982	19982
897.103	20168
897.224	19955
897.345	19860
897.466	19803
897.587	19864
897.708	19944
897.828	19841
897.949	19864
898.07	19765
898.19	19818
898.311	20027
898.431	19879
898.552	19868
898.672	19917
898.792	19978
898.913	19921
899.033	19681
899.153	19674
899.273	19685
899.393	19578
899.513	19628
899.633	19674
899.753	19601
899.873	19575
899.993	19628
900.113	19601
900.232	19635
900.352	19567
900.472	19445
900.591	19365
900.711	19426
900.83	19472
900.95	19537
901.069	19499
901.189	19278
901.308	19088
901.427	19015
901.546	19000
901.665	19012
901.784	19084
901.904	18768
902.023	18802
902.141	18544
902.26	18593
902.379	18688
902.498	18563
902.617	18437
902.735	18540
902.854	18517
902.973	18445
903.091	18357
903.21	18136
903.328	18247
903.446	18106
903.565	18019
903.683	18045
903.801	17870
903.919	18034
904.038	17889
904.156	17802
904.274	17836
904.392	17737
904.51	17882
904.627	17851
904.745	17809
904.863	17878
904.981	17573
905.098	17512
905.216	17467
905.334	17501
905.451	17436
905.569	17402
905.686	17486
905.803	17482
905.921	17258
906.038	17463
906.155	17166
906.272	17212
906.389	17185
906.506	17067
906.623	17094
906.74	17014
906.857	16930
906.974	16942
907.091	16976
907.208	17018
907.324	16980
907.441	16946
907.557	16713
907.674	16733
907.79	16615
907.907	16725
908.023	16710
908.139	16649
908.256	16599
908.372	16637
908.488	16599
908.604	16462
908.72	16398
908.836	16386
908.952	16436
909.068	16428
909.184	16584
909.3	16462
909.415	16375
909.531	16440
909.647	16200
909.762	16253
909.878	16143
909.993	16185
910.108	16051
910.224	16109
910.339	16154
910.454	16116
910.57	15926
910.685	15876
910.8	16185
910.915	16067
911.03	15922
911.145	15907
911.259	15694
911.374	15831
911.489	15564
911.604	15720
911.718	15462
911.833	15511
911.947	15557
912.062	15431
912.176	15564
912.291	15584
912.405	15542
912.519	15694
912.633	15720
912.748	15523
912.862	15473
912.976	15428
913.09	15249
913.204	15294
913.318	15313
913.431	15389
913.545	15367
913.659	15378
913.772	15260
913.886	15207
914	15085
914.113	15264
914.226	15351
914.34	15226
914.453	14979
914.566	15192
914.68	14990
914.793	14994
914.906	14853
915.019	14788
915.132	14716
915.245	14689
915.358	14838
915.47	14731
915.583	14670
915.696	14853
915.809	14834
915.921	14849
916.034	14678
916.146	14667
916.259	14629
916.371	14739
916.483	14765
916.595	14583
916.708	14571
916.82	14648
916.932	14560
917.044	14556
917.156	14568
917.268	14431
917.38	14442
917.491	14457
917.603	14507
917.715	14480
917.826	14530
917.938	14290
918.049	14233
918.161	14355
918.272	14492
918.384	14507
918.495	14366
918.606	14157
918.717	14062
918.828	14187
918.939	14237
919.05	14031
919.161	14126
919.272	14035
919.383	14073
919.494	14183
919.604	14434
919.715	14240
919.826	14016
919.936	14142
920.047	14202
920.157	14221
920.267	14355
920.378	14229
920.488	14035
920.598	14244
920.708	14492
920.818	14320
920.928	14351
921.038	14495
921.148	14358
921.258	14161
921.368	14062
921.477	13936
921.587	13811
921.697	13704
921.806	13940
921.916	13830
922.025	13563
922.134	13487
922.244	13343
922.353	13643
922.462	13407
922.571	13411
922.68	13297
922.789	13206
922.898	13187
923.007	13179
923.116	13190
923.224	13240
923.333	13103
923.442	13019
923.55	13103
923.659	13012
923.767	13114
923.876	12958
923.984	13133
924.092	12867
924.201	12985
924.309	12970
924.417	12932
924.525	12863
924.633	12844
924.741	13651
924.849	12635
924.956	12825
925.064	12620
925.172	12574
925.279	12555
925.387	12692
925.494	12684
925.602	12745
925.709	12707
925.816	12471
925.924	12555
926.031	12623
926.138	12506
926.245	12547
926.352	12528
926.459	12544
926.566	12707
926.673	12486
926.779	12418
926.886	12353
926.993	12334
927.099	12273
927.206	12140
927.312	12235
927.419	12175
927.525	12125
927.631	12175
927.737	12034
927.843	12007
927.95	11904
928.056	11969
928.162	12038
928.267	12083
928.373	12593
928.479	12083
928.585	11878
928.69	12057
928.796	12041
928.901	11878
929.007	11802
929.112	11843
929.218	11859
929.323	11756
929.428	11767
929.533	11863
929.638	11688
929.743	11775
929.848	11741
929.953	11729
930.058	11623
930.163	11467
930.267	11535
930.372	11589
930.477	11474
930.581	11585
930.685	11455
930.79	11341
930.894	11330
930.998	11368
931.103	11455
931.207	11242
931.311	11052
931.415	10927
931.519	10748
931.623	10698
