Data from test_V78500241_254.txt Node
Date: Fri Mar 25 15:11:37 CST 2022
User: usil
Spectrometer: V785-0024
Trigger mode: 0
Integration Time (sec): 4.000000E-1
Scans to average: 1
Nonlinearity correction enabled: false
Boxcar width: 0
Storing dark spectrum: false
XAxis mode: Wavelengths
Number of Pixels in Spectrum: 1024
>>>>>Begin Spectral Data<<<<<
801.071	28044
801.214	28337
801.356	28036
801.499	28036
801.641	27675
801.783	27972
801.926	27865
802.068	27873
802.211	27694
802.353	27774
802.496	27625
802.638	27526
802.78	27580
802.923	27351
803.065	27294
803.208	27306
803.35	27370
803.492	27530
803.635	27644
803.777	27469
803.919	27713
804.061	28006
804.204	27652
804.346	27473
804.488	27553
804.63	27485
804.773	27443
804.915	27625
805.057	27633
805.199	27557
805.341	27614
805.483	27690
805.626	27629
805.768	27545
805.91	27690
806.052	27846
806.194	27770
806.336	27880
806.478	27804
806.62	27675
806.762	27774
806.904	27972
807.046	28238
807.188	28154
807.33	28097
807.472	28185
807.614	27975
807.756	28082
807.898	27774
808.04	27762
808.182	27911
808.324	27762
808.465	27892
808.607	28207
808.749	28310
808.891	28196
809.033	28478
809.174	28451
809.316	28352
809.458	28272
809.6	28280
809.741	28428
809.883	28398
810.025	28584
810.166	28550
810.308	28546
810.45	28478
810.591	28459
810.733	28333
810.875	28249
811.016	28101
811.158	28185
811.299	28371
811.441	28443
811.582	28398
811.724	28261
811.865	28207
812.007	28200
812.148	28169
812.29	28196
812.431	28238
812.573	28538
812.714	28630
812.855	28694
812.997	28866
813.138	28984
813.279	28961
813.421	28824
813.562	28797
813.703	28523
813.845	28573
813.986	28162
814.127	28006
814.268	27854
814.41	27930
814.551	27895
814.692	27975
814.833	27842
814.974	27888
815.115	27884
815.256	27819
815.397	27720
815.539	27732
815.68	27629
815.821	27561
815.962	27766
816.103	27553
816.244	27625
816.385	27610
816.526	27348
816.666	27302
816.807	27089
816.948	27214
817.089	27188
817.23	27165
817.371	27173
817.512	27192
817.653	27233
817.793	27058
817.934	27051
818.075	27028
818.216	27207
818.356	27077
818.497	26887
818.638	26750
818.778	26918
818.919	26872
819.06	26921
819.2	27058
819.341	27066
819.481	27001
819.622	27161
819.762	27367
819.903	27351
820.043	27207
820.184	27249
820.324	27291
820.465	27272
820.605	27173
820.746	27089
820.886	26910
821.026	27165
821.167	27104
821.307	27150
821.447	27055
821.588	26948
821.728	26940
821.868	26598
822.008	26457
822.149	26465
822.289	26552
822.429	26320
822.569	26290
822.709	26187
822.849	26027
822.99	26122
823.13	26043
823.27	25894
823.41	25879
823.55	25776
823.69	25898
823.83	25780
823.97	25750
824.11	25594
824.25	25540
824.389	25567
824.529	25689
824.669	25635
824.809	25731
824.949	25651
825.089	25727
825.228	25616
825.368	25491
825.508	25487
825.648	25453
825.787	25468
825.927	25548
826.067	25453
826.206	25430
826.346	25514
826.485	25548
826.625	25533
826.765	25552
826.904	25468
827.044	25232
827.183	25335
827.323	25110
827.462	25198
827.601	25187
827.741	25171
827.88	25198
828.02	25076
828.159	25164
828.298	25263
828.437	25152
828.577	25107
828.716	25221
828.855	25061
828.994	24856
829.134	24730
829.273	24875
829.412	24825
829.551	24871
829.69	24859
829.829	24909
829.968	24958
830.107	24848
830.246	24924
830.385	24715
830.524	24768
830.663	24612
830.802	24563
830.941	24521
831.08	24410
831.219	24544
831.357	24384
831.496	24616
831.635	24471
831.774	24296
831.913	24239
832.051	24239
832.19	24285
832.329	24277
832.467	24083
832.606	23946
832.744	24038
832.883	24285
833.022	24087
833.16	23954
833.299	24144
833.437	24064
833.576	24182
833.714	24190
833.852	24136
833.991	24045
834.129	24239
834.267	24323
834.406	24076
834.544	24110
834.682	24064
834.821	24030
834.959	24327
835.097	23946
835.235	24178
835.373	24144
835.511	24060
835.65	23988
835.788	24136
835.926	23870
836.064	23771
836.202	23874
836.34	23927
836.478	23950
836.615	24003
836.753	24125
836.891	24102
837.029	24022
837.167	23942
837.305	23821
837.443	23916
837.58	23748
837.718	23897
837.856	23859
837.993	23764
838.131	23630
838.269	23630
838.406	23672
838.544	23573
838.681	23360
838.819	23444
838.956	23254
839.094	23239
839.231	23322
839.369	23444
839.506	23554
839.643	23474
839.781	23273
839.918	23197
840.055	23178
840.193	23197
840.33	23067
840.467	23109
840.604	23132
840.742	23368
840.879	23071
841.016	23010
841.153	22949
841.29	23231
841.427	23170
841.564	23155
841.701	23113
841.838	23014
841.975	23075
842.112	23090
842.249	22904
842.385	22847
842.522	23022
842.659	22873
842.796	22790
842.933	22961
843.069	22812
843.206	22831
843.343	22949
843.479	22847
843.616	22866
843.752	22664
843.889	22740
844.025	22778
844.162	22687
844.298	22759
844.435	22599
844.571	22569
844.708	22645
844.844	22763
844.98	22702
845.117	22702
845.253	22672
845.389	22573
845.525	22421
845.661	22504
845.798	22436
845.934	22265
846.07	22185
846.206	22386
846.342	22618
846.478	22337
846.614	22078
846.75	21975
846.886	22128
847.022	22116
847.158	22200
847.294	22101
847.429	22101
847.565	21994
847.701	22314
847.837	21705
847.972	21679
848.108	21838
848.244	21816
848.379	21576
848.515	21709
848.65	21682
848.786	21656
848.921	21762
849.057	21755
849.192	21759
849.328	21759
849.463	21694
849.598	21660
849.734	21538
849.869	21477
850.004	21367
850.14	21454
850.275	21401
850.41	21329
850.545	21313
850.68	21359
850.815	21386
850.95	21329
851.085	21431
851.22	21401
851.355	21435
851.49	21424
851.625	21370
851.76	21351
851.895	21268
852.03	21317
852.165	21412
852.299	21294
852.434	21283
852.569	21481
852.703	21439
852.838	21454
852.973	21492
853.107	21488
853.242	21351
853.376	21287
853.511	21093
853.645	21184
853.78	21321
853.914	21218
854.048	21207
854.183	21211
854.317	21176
854.451	21363
854.585	21287
854.72	21249
854.854	21294
854.988	21123
855.122	21100
855.256	21127
855.39	21203
855.524	21211
855.658	21195
855.792	21218
855.926	21275
856.06	21287
856.194	21207
856.327	21230
856.461	21142
856.595	21062
856.729	21165
856.862	21306
856.996	21256
857.13	21275
857.263	21207
857.397	21321
857.53	21138
857.664	21169
857.797	21325
857.931	21325
858.064	21241
858.197	21283
858.331	21195
858.464	21180
858.597	21195
858.731	21157
858.864	21157
858.997	21062
859.13	21116
859.263	21192
859.396	21272
859.529	21093
859.662	21173
859.795	21119
859.928	21173
860.061	21313
860.194	21447
860.327	21233
860.46	21249
860.592	21230
860.725	21294
860.858	21306
860.99	21180
861.123	21085
861.256	21233
861.388	21150
861.521	21835
861.653	21096
861.786	21039
861.918	21157
862.05	21066
862.183	21184
862.315	21180
862.447	21173
862.58	21203
862.712	20929
862.844	20921
862.976	20971
863.108	20887
863.24	21332
863.372	20750
863.504	20883
863.636	20960
863.768	20804
863.9	20906
864.032	20781
864.164	20880
864.296	20842
864.428	20906
864.559	20982
864.691	20918
864.823	20838
864.954	20857
865.086	20807
865.217	20785
865.349	20720
865.48	20697
865.612	20804
865.743	20914
865.875	20838
866.006	20689
866.137	20765
866.269	20746
866.4	20807
866.531	20743
866.662	20705
866.793	20716
866.924	20701
867.055	20609
867.186	20674
867.317	20701
867.448	20492
867.579	20629
867.71	20598
867.841	20727
867.972	20705
868.103	20625
868.233	20712
868.364	20720
868.495	20861
868.625	20979
868.756	21161
868.886	20914
869.017	20944
869.147	21081
869.278	20937
869.408	21089
869.539	21032
869.669	21017
869.799	21020
869.929	21100
870.06	21024
870.19	21226
870.32	21302
870.45	21256
870.58	21344
870.71	21405
870.84	21458
870.97	21283
871.1	21260
871.23	21629
871.36	21500
871.489	21367
871.619	21424
871.749	21595
871.879	21637
872.008	21622
872.138	21599
872.267	21564
872.397	21401
872.526	21393
872.656	21321
872.785	21382
872.915	21519
873.044	21770
873.173	21530
873.303	21599
873.432	21682
873.561	21671
873.69	21580
873.819	21397
873.948	21622
874.077	21458
874.206	21416
874.335	21488
874.464	21618
874.593	21861
874.722	21797
874.851	21819
874.979	21667
875.108	21800
875.237	21698
875.365	21656
875.494	21759
875.623	21842
875.751	21743
875.88	21827
876.008	21880
876.136	21994
876.265	22109
876.393	22295
876.521	22276
876.65	22287
876.778	22322
876.906	22185
877.034	22044
877.162	22021
877.29	22234
877.418	22162
877.546	22128
877.674	22238
877.802	22021
877.93	22116
878.058	22188
878.185	22013
878.313	22070
878.441	22063
878.568	22032
878.696	22154
878.824	22147
878.951	22253
879.079	22299
879.206	22504
879.333	22276
879.461	22177
879.588	22306
879.715	22246
879.842	22379
879.97	22131
880.097	21964
880.224	22002
880.351	21998
880.478	21827
880.605	21918
880.732	21949
880.859	22166
880.986	22074
881.112	21857
881.239	21854
881.366	21724
881.493	21587
881.619	21610
881.746	21519
881.872	21526
881.999	21439
882.125	21466
882.252	21488
882.378	21507
882.505	21530
882.631	21462
882.757	21272
882.883	21408
883.01	21272
883.136	21116
883.262	21226
883.388	21001
883.514	21264
883.64	21317
883.766	21096
883.892	21100
884.018	21116
884.143	21184
884.269	21245
884.395	21036
884.52	20902
884.646	20849
884.772	20785
884.897	20777
885.023	20960
885.148	20941
885.274	21104
885.399	20986
885.524	20895
885.65	20937
885.775	20895
885.9	20971
886.025	20914
886.15	20899
886.275	20857
886.4	20773
886.525	20849
886.65	20899
886.775	20785
886.9	21096
887.025	21108
887.149	20777
887.274	20686
887.399	20682
887.523	20659
887.648	20625
887.773	20568
887.897	20735
888.021	20670
888.146	20545
888.27	20720
888.395	20834
888.519	20602
888.643	20632
888.767	20762
888.891	20587
889.015	20408
889.139	20537
889.263	20499
889.387	20461
889.511	20659
889.635	20674
889.759	20408
889.883	20324
890.006	20370
890.13	20461
890.254	20332
890.377	20317
890.501	20248
890.624	20111
890.748	20221
890.871	20244
890.995	19909
891.118	19887
891.241	20035
891.364	19993
891.488	20092
891.611	20043
891.734	19970
891.857	20092
891.98	19921
892.103	20073
892.226	20027
892.349	19932
892.471	19860
892.594	19883
892.717	19909
892.839	19970
892.962	19925
893.085	19936
893.207	19940
893.33	19742
893.452	19898
893.575	19928
893.697	19913
893.819	19986
893.941	20130
894.064	19932
894.186	19890
894.308	19807
894.43	19993
894.552	20103
894.674	19944
894.796	19875
894.918	19982
895.04	19871
895.161	19993
895.283	19917
895.405	19906
895.526	19940
895.648	19852
895.769	19940
895.891	19944
896.012	19993
896.134	19932
896.255	19890
896.376	19811
896.498	19967
896.619	19974
896.74	19982
896.861	20020
896.982	20225
897.103	20434
897.224	20309
897.345	20138
897.466	20119
897.587	20240
897.708	20172
897.828	20301
897.949	20115
898.07	20005
898.19	20164
898.311	20157
898.431	20119
898.552	20069
898.672	20157
898.792	20164
898.913	20134
899.033	19936
899.153	19894
899.273	19860
899.393	19913
899.513	19925
899.633	19822
899.753	19932
899.873	19849
899.993	19856
900.113	19750
900.232	19795
900.352	19715
900.472	19693
900.591	19643
900.711	19719
900.83	19597
900.95	19742
901.069	19788
901.189	19556
901.308	19297
901.427	19304
901.546	19247
901.665	19225
901.784	19266
901.904	19133
902.023	18958
902.141	18772
902.26	18878
902.379	18757
902.498	18700
902.617	18715
902.735	18787
902.854	18661
902.973	18627
903.091	18441
903.21	18418
903.328	18251
903.446	18262
903.565	18213
903.683	18232
903.801	18030
903.919	18311
904.038	18220
904.156	18057
904.274	18129
904.392	17969
904.51	17958
904.627	17984
904.745	18053
904.863	17988
904.981	17737
905.098	17786
905.216	17589
905.334	17649
905.451	17718
905.569	17676
905.686	17786
905.803	17672
905.921	17402
906.038	17383
906.155	17467
906.272	17368
906.389	17341
906.506	17254
906.623	17330
906.74	17181
906.857	17128
906.974	17113
907.091	17265
907.208	17341
907.324	17128
907.441	17086
907.557	16919
907.674	16904
907.79	16877
907.907	16869
908.023	17018
908.139	16858
908.256	16828
908.372	16774
908.488	16736
908.604	16615
908.72	16660
908.836	16554
908.952	16451
909.068	16618
909.184	16702
909.3	16687
909.415	16675
909.531	16550
909.647	16424
909.762	16360
909.878	16257
909.993	16421
910.108	16390
910.224	16261
910.339	16246
910.454	16215
910.57	16139
910.685	16040
910.8	16310
910.915	16272
911.03	16139
911.145	15869
911.259	15831
911.374	15907
911.489	15823
911.604	15671
911.718	15663
911.833	15701
911.947	15553
912.062	15462
912.176	15603
912.291	15599
912.405	15656
912.519	15732
912.633	15831
912.748	15648
912.862	15538
912.976	15466
913.09	15359
913.204	15336
913.318	15393
913.431	15466
913.545	15492
913.659	15515
913.772	15420
913.886	15306
914	15283
914.113	15336
914.226	15416
914.34	15382
914.453	15104
914.566	15321
914.68	15150
914.793	15062
914.906	14979
915.019	14727
915.132	14838
915.245	14956
915.358	14906
915.47	15032
915.583	14819
915.696	15017
915.809	14986
915.921	15032
916.034	14845
916.146	14796
916.259	14746
916.371	14826
916.483	14899
916.595	14769
916.708	14682
916.82	14765
916.932	14651
917.044	14670
917.156	14693
917.268	14545
917.38	14590
917.491	14457
917.603	14431
917.715	14530
917.826	14644
917.938	14518
918.049	14389
918.161	14461
918.272	14503
918.384	14545
918.495	14503
918.606	14324
918.717	14256
918.828	14305
918.939	14355
919.05	14199
919.161	14180
919.272	14138
919.383	14073
919.494	14336
919.604	14507
919.715	14229
919.826	14138
919.936	14233
920.047	14324
920.157	14248
920.267	14404
920.378	14263
920.488	14172
920.598	14469
920.708	14583
920.818	14396
920.928	14377
921.038	14522
921.148	14377
921.258	14145
921.368	14145
921.477	13963
921.587	14050
921.697	13780
921.806	13978
921.916	13776
922.025	13677
922.134	13696
922.244	13537
922.353	13696
922.462	13521
922.571	13384
922.68	13301
922.789	13175
922.898	13266
923.007	13213
923.116	13228
923.224	13213
923.333	13217
923.442	13114
923.55	13129
923.659	13114
923.767	13175
923.876	13061
923.984	13194
924.092	12951
924.201	12981
924.309	12985
924.417	12970
924.525	12890
924.633	13031
924.741	13666
924.849	12722
924.956	12856
925.064	12730
925.172	12684
925.279	12719
925.387	12734
925.494	12669
925.602	12829
925.709	12772
925.816	12585
925.924	12673
926.031	12764
926.138	12662
926.245	12669
926.352	12528
926.459	12635
926.566	12722
926.673	12502
926.779	12490
926.886	12414
926.993	12319
927.099	12281
927.206	12216
927.312	12159
927.419	12289
927.525	12273
927.631	12213
927.737	12216
927.843	12083
927.95	11965
928.056	12095
928.162	12114
928.267	12159
928.373	12688
928.479	12175
928.585	11931
928.69	12053
928.796	12121
928.901	11931
929.007	11889
929.112	11973
929.218	11920
929.323	11954
929.428	11832
929.533	11980
929.638	11859
929.743	11779
929.848	11870
929.953	11737
930.058	11710
930.163	11493
930.267	11463
930.372	11604
930.477	11566
930.581	11703
930.685	11596
930.79	11448
930.894	11436
930.998	11406
931.103	11520
931.207	11140
931.311	11052
931.415	10942
931.519	10771
931.623	10736
