Data from test_V78500241_2363.txt Node
Date: Fri Mar 25 15:26:18 CST 2022
User: usil
Spectrometer: V785-0024
Trigger mode: 0
Integration Time (sec): 4.000000E-1
Scans to average: 1
Nonlinearity correction enabled: false
Boxcar width: 0
Storing dark spectrum: false
XAxis mode: Wavelengths
Number of Pixels in Spectrum: 1024
>>>>>Begin Spectral Data<<<<<
801.071	27344
801.214	27157
801.356	27108
801.499	26906
801.641	26804
801.783	26887
801.926	26906
802.068	26792
802.211	26720
802.353	26720
802.496	26522
802.638	26473
802.78	26423
802.923	26404
803.065	26358
803.208	26423
803.35	26526
803.492	26773
803.635	26533
803.777	26507
803.919	26545
804.061	26960
804.204	26651
804.346	26609
804.488	26431
804.63	26716
804.773	26594
804.915	26640
805.057	26727
805.199	26625
805.341	26807
805.483	26819
805.626	26670
805.768	26674
805.91	26864
806.052	26811
806.194	26625
806.336	26838
806.478	26826
806.62	26826
806.762	26880
806.904	27077
807.046	27184
807.188	26998
807.33	27211
807.472	27302
807.614	27165
807.756	27142
807.898	27089
808.04	26921
808.182	26933
808.324	27089
808.465	27043
808.607	27245
808.749	27367
808.891	27408
809.033	27469
809.174	27329
809.316	27321
809.458	27188
809.6	27294
809.741	27416
809.883	27511
810.025	27580
810.166	27675
810.308	27618
810.45	27580
810.591	27492
810.733	27351
810.875	27344
811.016	27256
811.158	27283
811.299	27401
811.441	27454
811.582	27386
811.724	27348
811.865	27321
812.007	27294
812.148	27329
812.29	27359
812.431	27447
812.573	27591
812.714	27827
812.855	27911
812.997	28055
813.138	28169
813.279	28067
813.421	27755
813.562	27899
813.703	27625
813.845	27557
813.986	27230
814.127	27096
814.268	27051
814.41	27119
814.551	26918
814.692	27062
814.833	26944
814.974	26960
815.115	26998
815.256	26826
815.397	26861
815.539	26887
815.68	26804
815.821	26682
815.962	26948
816.103	26815
816.244	26613
816.385	26617
816.526	26537
816.666	26434
816.807	26370
816.948	26328
817.089	26415
817.23	26408
817.371	26400
817.512	26358
817.653	26130
817.793	26233
817.934	26134
818.075	26252
818.216	26240
818.356	26195
818.497	26134
818.638	26145
818.778	26115
818.919	26054
819.06	26164
819.2	26324
819.341	26290
819.481	26240
819.622	26579
819.762	26678
819.903	26579
820.043	26377
820.184	26488
820.324	26366
820.465	26511
820.605	26476
820.746	26453
820.886	26267
821.026	26282
821.167	26393
821.307	26427
821.447	26275
821.588	26050
821.728	26062
821.868	25898
822.008	25780
822.149	25753
822.289	25814
822.429	25518
822.569	25426
822.709	25476
822.849	25282
822.99	25312
823.13	25213
823.27	25282
823.41	25141
823.55	25050
823.69	25133
823.83	25023
823.97	25012
824.11	24977
824.25	24920
824.389	24924
824.529	25050
824.669	24920
824.809	25088
824.949	25042
825.089	24989
825.228	24913
825.368	24837
825.508	24783
825.648	24783
825.787	24833
825.927	24913
826.067	24719
826.206	24795
826.346	24814
826.485	24909
826.625	24673
826.765	24939
826.904	24776
827.044	24486
827.183	24631
827.323	24407
827.462	24410
827.601	24494
827.741	24631
827.88	24563
828.02	24448
828.159	24376
828.298	24483
828.437	24563
828.577	24475
828.716	24604
828.855	24372
828.994	24224
829.134	24289
829.273	24304
829.412	24311
829.551	24281
829.69	24247
829.829	24270
829.968	24178
830.107	24216
830.246	24262
830.385	24079
830.524	24098
830.663	24038
830.802	24007
830.941	23786
831.08	23737
831.219	23882
831.357	23805
831.496	24087
831.635	23794
831.774	23714
831.913	23642
832.051	23687
832.19	23528
832.329	23455
832.467	23478
832.606	23417
832.744	23501
832.883	23497
833.022	23440
833.16	23387
833.299	23497
833.437	23543
833.576	23589
833.714	23554
833.852	23570
833.991	23634
834.129	23634
834.267	23573
834.406	23539
834.544	23589
834.682	23547
834.821	23486
834.959	23691
835.097	23551
835.235	23592
835.373	23543
835.511	23535
835.65	23444
835.788	23611
835.926	23307
836.064	23246
836.202	23265
836.34	23440
836.478	23356
836.615	23421
836.753	23379
836.891	23353
837.029	23284
837.167	23436
837.305	23303
837.443	23284
837.58	23311
837.718	23220
837.856	23311
837.993	23109
838.131	23307
838.269	23254
838.406	23117
838.544	23102
838.681	22972
838.819	22801
838.956	22706
839.094	22675
839.231	22835
839.369	22892
839.506	23155
839.643	22881
839.781	22656
839.918	22698
840.055	22672
840.193	22653
840.33	22645
840.467	22721
840.604	22679
840.742	22812
840.879	22603
841.016	22622
841.153	22470
841.29	22615
841.427	22634
841.564	22592
841.701	22618
841.838	22470
841.975	22523
842.112	22531
842.249	22398
842.385	22280
842.522	22637
842.659	22443
842.796	22447
842.933	22348
843.069	22375
843.206	22367
843.343	22519
843.479	22348
843.616	22238
843.752	22074
843.889	22188
844.025	22257
844.162	22185
844.298	22299
844.435	22196
844.571	22124
844.708	22265
844.844	22246
844.98	22280
845.117	22226
845.253	22063
845.389	22082
845.525	22086
845.661	21979
845.798	21975
845.934	21884
846.07	22010
846.206	21842
846.342	21964
846.478	21888
846.614	21743
846.75	21526
846.886	21667
847.022	21736
847.158	21606
847.294	21576
847.429	21633
847.565	21618
847.701	21842
847.837	21378
847.972	21363
848.108	21485
848.244	21389
848.379	21150
848.515	21150
848.65	21302
848.786	21249
848.921	21268
849.057	21363
849.192	21241
849.328	21233
849.463	21218
849.598	21150
849.734	21051
849.869	21100
850.004	20979
850.14	21108
850.275	21039
850.41	20929
850.545	20895
850.68	20925
850.815	20933
850.95	20994
851.085	21195
851.22	21043
851.355	20990
851.49	21013
851.625	21028
851.76	21093
851.895	20769
852.03	20826
852.165	21001
852.299	21131
852.434	21039
852.569	20952
852.703	21017
852.838	21036
852.973	21108
853.107	21169
853.242	20925
853.376	20857
853.511	20609
853.645	20781
853.78	20941
853.914	20891
854.048	20773
854.183	20880
854.317	20849
854.451	21058
854.585	20743
854.72	20830
854.854	20838
854.988	20674
855.122	20800
855.256	20590
855.39	20876
855.524	20929
855.658	20906
855.792	20773
855.926	20792
856.06	20811
856.194	20963
856.327	20849
856.461	20800
856.595	20712
856.729	20800
856.862	21032
856.996	20864
857.13	20815
857.263	20845
857.397	20960
857.53	20727
857.664	20861
857.797	20849
857.931	20971
858.064	20743
858.197	20853
858.331	20864
858.464	20670
858.597	20731
858.731	20765
858.864	20708
858.997	20724
859.13	20754
859.263	20857
859.396	20918
859.529	20769
859.662	20830
859.795	20727
859.928	20819
860.061	20929
860.194	20990
860.327	20727
860.46	20914
860.592	20918
860.725	20918
860.858	21001
860.99	20880
861.123	20549
861.256	20830
861.388	20796
861.521	21344
861.653	20708
861.786	20689
861.918	20720
862.05	20716
862.183	20689
862.315	20823
862.447	20792
862.58	20644
862.712	20526
862.844	20476
862.976	20602
863.108	20461
863.24	21081
863.372	20568
863.504	20602
863.636	20530
863.768	20644
863.9	20606
864.032	20522
864.164	20514
864.296	20575
864.428	20663
864.559	20625
864.691	20609
864.823	20450
864.954	20526
865.086	20511
865.217	20465
865.349	20366
865.48	20355
865.612	20408
865.743	20484
865.875	20499
866.006	20351
866.137	20381
866.269	20442
866.4	20370
866.531	20355
866.662	20317
866.793	20385
866.924	20362
867.055	20423
867.186	20370
867.317	20313
867.448	20271
867.579	20149
867.71	20324
867.841	20381
867.972	20336
868.103	20282
868.233	20419
868.364	20244
868.495	20423
868.625	20579
868.756	20701
868.886	20518
869.017	20762
869.147	20697
869.278	20731
869.408	20533
869.539	20621
869.669	20663
869.799	20655
869.929	20678
870.06	20682
870.19	20956
870.32	20861
870.45	20887
870.58	21005
870.71	21135
870.84	20986
870.97	20986
871.1	20929
871.23	21237
871.36	21207
871.489	21165
871.619	21165
871.749	21180
871.879	21268
872.008	21435
872.138	21207
872.267	21100
872.397	21009
872.526	21020
872.656	21070
872.785	20963
872.915	21077
873.044	21329
873.173	21256
873.303	21348
873.432	21332
873.561	21275
873.69	21302
873.819	21249
873.948	21104
874.077	21222
874.206	21176
874.335	21218
874.464	21428
874.593	21473
874.722	21359
874.851	21466
874.979	21504
875.108	21458
875.237	21378
875.365	21355
875.494	21272
875.623	21564
875.751	21355
875.88	21485
876.008	21553
876.136	21576
876.265	21816
876.393	21937
876.521	21922
876.65	21983
876.778	21930
876.906	21876
877.034	21747
877.162	21838
877.29	21793
877.418	21816
877.546	21899
877.674	21789
877.802	21857
877.93	21713
878.058	21770
878.185	21625
878.313	21698
878.441	21709
878.568	21667
878.696	21743
878.824	21880
878.951	21918
879.079	22067
879.206	22021
879.333	22036
879.461	21960
879.588	21895
879.715	22055
879.842	22036
879.97	21934
880.097	21705
880.224	21542
880.351	21675
880.478	21622
880.605	21519
880.732	21675
880.859	21869
880.986	21641
881.112	21656
881.239	21466
881.366	21428
881.493	21325
881.619	21096
881.746	21283
881.872	21142
881.999	21230
882.125	21161
882.252	21298
882.378	21157
882.505	21393
882.631	21116
882.757	20864
882.883	21013
883.01	20948
883.136	20960
883.262	20842
883.388	20697
883.514	21001
883.64	20918
883.766	20830
883.892	20804
884.018	20781
884.143	20880
884.269	20937
884.395	20667
884.52	20522
884.646	20579
884.772	20495
884.897	20484
885.023	20590
885.148	20724
885.274	20765
885.399	20655
885.524	20480
885.65	20625
885.775	20613
885.9	20442
886.025	20682
886.15	20697
886.275	20530
886.4	20423
886.525	20606
886.65	20511
886.775	20473
886.9	20765
887.025	20838
887.149	20511
887.274	20476
887.399	20286
887.523	20320
887.648	20244
887.773	20244
887.897	20309
888.021	20396
888.146	20332
888.27	20571
888.395	20465
888.519	20415
888.643	20366
888.767	20400
888.891	20309
889.015	20191
889.139	20180
889.263	20191
889.387	20187
889.511	20400
889.635	20305
889.759	20142
889.883	20145
890.006	20180
890.13	20218
890.254	19959
890.377	20035
890.501	19906
890.624	19833
890.748	19890
890.871	19788
890.995	19704
891.118	19643
891.241	19609
891.364	19761
891.488	19849
891.611	19738
891.734	19784
891.857	19788
891.98	19795
892.103	19887
892.226	19746
892.349	19681
892.471	19495
892.594	19655
892.717	19628
892.839	19563
892.962	19597
893.085	19651
893.207	19662
893.33	19597
893.452	19548
893.575	19662
893.697	19563
893.819	19693
893.941	19906
894.064	19807
894.186	19643
894.308	19430
894.43	19700
894.552	19814
894.674	19742
894.796	19559
894.918	19643
895.04	19750
895.161	19723
895.283	19655
895.405	19521
895.526	19693
895.648	19708
895.769	19639
895.891	19723
896.012	19799
896.134	19605
896.255	19655
896.376	19556
896.498	19609
896.619	19643
896.74	19670
896.861	19674
896.982	19963
897.103	20050
897.224	20001
897.345	19883
897.466	19807
897.587	19845
897.708	20043
897.828	19887
897.949	19795
898.07	19811
898.19	19765
898.311	19940
898.431	19727
898.552	19963
898.672	19894
898.792	19830
898.913	19830
899.033	19731
899.153	19715
899.273	19586
899.393	19651
899.513	19586
899.633	19502
899.753	19647
899.873	19578
899.993	19609
900.113	19582
900.232	19662
900.352	19430
900.472	19578
900.591	19312
900.711	19472
900.83	19396
900.95	19480
901.069	19388
901.189	19350
901.308	19110
901.427	19004
901.546	19027
901.665	19034
901.784	18981
901.904	18935
902.023	18753
902.141	18532
902.26	18460
902.379	18547
902.498	18509
902.617	18384
902.735	18665
902.854	18540
902.973	18445
903.091	18243
903.21	18182
903.328	18174
903.446	18087
903.565	18007
903.683	17859
903.801	18015
903.919	17893
904.038	17977
904.156	17790
904.274	17756
904.392	17687
904.51	17634
904.627	17676
904.745	17786
904.863	17874
904.981	17486
905.098	17433
905.216	17368
905.334	17493
905.451	17452
905.569	17436
905.686	17528
905.803	17372
905.921	17178
906.038	17383
906.155	17280
906.272	17174
906.389	17193
906.506	16953
906.623	16915
906.74	16972
906.857	16820
906.974	17048
907.091	17083
907.208	17102
907.324	16953
907.441	16877
907.557	16778
907.674	16706
907.79	16656
907.907	16679
908.023	16759
908.139	16675
908.256	16672
908.372	16641
908.488	16470
908.604	16421
908.72	16428
908.836	16352
908.952	16291
909.068	16367
909.184	16481
909.3	16382
909.415	16497
909.531	16455
909.647	16120
909.762	16116
909.878	16139
909.993	16230
910.108	16131
910.224	16143
910.339	16101
910.454	15994
910.57	15964
910.685	15781
910.8	16188
910.915	16112
911.03	15869
911.145	15766
911.259	15736
911.374	15739
911.489	15694
911.604	15701
911.718	15439
911.833	15485
911.947	15401
912.062	15272
912.176	15523
912.291	15374
912.405	15389
912.519	15736
912.633	15682
912.748	15618
912.862	15485
912.976	15317
913.09	15226
913.204	15268
913.318	15336
913.431	15424
913.545	15332
913.659	15283
913.772	15321
913.886	15226
914	15066
914.113	15146
914.226	15195
914.34	15199
914.453	14982
914.566	15127
914.68	15062
914.793	15013
914.906	14781
915.019	14796
915.132	14670
915.245	14754
915.358	14678
915.47	14731
915.583	14800
915.696	14792
915.809	14758
915.921	14899
916.034	14613
916.146	14579
916.259	14583
916.371	14667
916.483	14670
916.595	14625
916.708	14552
916.82	14503
916.932	14648
917.044	14499
917.156	14537
917.268	14374
917.38	14518
917.491	14298
917.603	14404
917.715	14492
917.826	14434
917.938	14256
918.049	14275
918.161	14343
918.272	14415
918.384	14476
918.495	14351
918.606	14214
918.717	14164
918.828	14202
918.939	14320
919.05	14077
919.161	14153
919.272	13879
919.383	13967
919.494	14176
919.604	14347
919.715	14199
919.826	14020
919.936	14168
920.047	14225
920.157	14202
920.267	14248
920.378	14142
920.488	14077
920.598	14278
920.708	14393
920.818	14244
920.928	14256
921.038	14336
921.148	14328
921.258	14142
921.368	14027
921.477	13913
921.587	13822
921.697	13830
921.806	13936
921.916	13689
922.025	13540
922.134	13552
922.244	13434
922.353	13529
922.462	13327
922.571	13331
922.68	13274
922.789	13206
922.898	13247
923.007	13141
923.116	13225
923.224	13247
923.333	13114
923.442	13103
923.55	13061
923.659	13080
923.767	13152
923.876	13008
923.984	13057
924.092	12833
924.201	12973
924.309	12894
924.417	12840
924.525	12840
924.633	12837
924.741	13795
924.849	12669
924.956	12719
925.064	12669
925.172	12547
925.279	12593
925.387	12574
925.494	12566
925.602	12749
925.709	12684
925.816	12437
925.924	12517
926.031	12623
926.138	12517
926.245	12597
926.352	12433
926.459	12623
926.566	12700
926.673	12483
926.779	12380
926.886	12395
926.993	12239
927.099	12201
927.206	12079
927.312	12133
927.419	12270
927.525	12175
927.631	12216
927.737	12175
927.843	12045
927.95	11920
928.056	12053
928.162	12087
928.267	12106
928.373	12669
928.479	12110
928.585	11870
928.69	11992
928.796	11996
928.901	11935
929.007	11737
929.112	11885
929.218	11794
929.323	11767
929.428	11729
929.533	11859
929.638	11745
929.743	11695
929.848	11790
929.953	11718
930.058	11699
930.163	11444
930.267	11478
930.372	11532
930.477	11433
930.581	11653
930.685	11497
930.79	11337
930.894	11341
930.998	11349
931.103	11463
931.207	11109
931.311	10923
931.415	10919
931.519	10767
931.623	10748
