Data from test_V78500241_2385.txt Node
Date: Fri Mar 25 15:26:27 CST 2022
User: usil
Spectrometer: V785-0024
Trigger mode: 0
Integration Time (sec): 4.000000E-1
Scans to average: 1
Nonlinearity correction enabled: false
Boxcar width: 0
Storing dark spectrum: false
XAxis mode: Wavelengths
Number of Pixels in Spectrum: 1024
>>>>>Begin Spectral Data<<<<<
801.071	27370
801.214	27275
801.356	27157
801.499	27096
801.641	26845
801.783	26781
801.926	26986
802.068	26781
802.211	26914
802.353	26823
802.496	26488
802.638	26530
802.78	26495
802.923	26446
803.065	26484
803.208	26526
803.35	26648
803.492	26743
803.635	26746
803.777	26537
803.919	26602
804.061	26940
804.204	26712
804.346	26670
804.488	26469
804.63	26609
804.773	26503
804.915	26750
805.057	26807
805.199	26522
805.341	26686
805.483	26686
805.626	26792
805.768	26590
805.91	26792
806.052	26792
806.194	26777
806.336	26853
806.478	26731
806.62	26838
806.762	26876
806.904	26956
807.046	27302
807.188	27184
807.33	27351
807.472	27264
807.614	27009
807.756	27222
807.898	27017
808.04	26933
808.182	27001
808.324	27123
808.465	27116
808.607	27154
808.749	27405
808.891	27401
809.033	27538
809.174	27447
809.316	27272
809.458	27370
809.6	27424
809.741	27526
809.883	27359
810.025	27507
810.166	27599
810.308	27644
810.45	27523
810.591	27538
810.733	27496
810.875	27473
811.016	27207
811.158	27218
811.299	27466
811.441	27458
811.582	27591
811.724	27321
811.865	27412
812.007	27351
812.148	27310
812.29	27359
812.431	27473
812.573	27591
812.714	27793
812.855	27823
812.997	27937
813.138	28173
813.279	27994
813.421	27869
813.562	27873
813.703	27819
813.845	27587
813.986	27382
814.127	27176
814.268	27032
814.41	27051
814.551	27013
814.692	27146
814.833	26918
814.974	26979
815.115	27058
815.256	26967
815.397	26960
815.539	26895
815.68	26735
815.821	26815
815.962	26834
816.103	26826
816.244	26644
816.385	26560
816.526	26625
816.666	26309
816.807	26286
816.948	26362
817.089	26419
817.23	26305
817.371	26290
817.512	26271
817.653	26438
817.793	26309
817.934	26183
818.075	26305
818.216	26328
818.356	26183
818.497	26183
818.638	26130
818.778	25970
818.919	26149
819.06	26119
819.2	26172
819.341	26305
819.481	26313
819.622	26457
819.762	26659
819.903	26609
820.043	26518
820.184	26488
820.324	26450
820.465	26499
820.605	26400
820.746	26275
820.886	26199
821.026	26453
821.167	26339
821.307	26377
821.447	26358
821.588	26172
821.728	26024
821.868	25822
822.008	25902
822.149	25628
822.289	25727
822.429	25639
822.569	25369
822.709	25460
822.849	25324
822.99	25270
823.13	25293
823.27	25244
823.41	25099
823.55	24939
823.69	24992
823.83	25145
823.97	25095
824.11	24833
824.25	24871
824.389	24913
824.529	25012
824.669	24905
824.809	24951
824.949	25038
825.089	25042
825.228	24920
825.368	24757
825.508	24650
825.648	24768
825.787	24859
825.927	24886
826.067	24745
826.206	24829
826.346	24654
826.485	24894
826.625	24726
826.765	24905
826.904	24753
827.044	24551
827.183	24551
827.323	24395
827.462	24639
827.601	24536
827.741	24448
827.88	24536
828.02	24422
828.159	24452
828.298	24505
828.437	24532
828.577	24429
828.716	24654
828.855	24437
828.994	24087
829.134	24213
829.273	24232
829.412	24110
829.551	24095
829.69	24155
829.829	24213
829.968	24262
830.107	24296
830.246	24258
830.385	24152
830.524	24083
830.663	23977
830.802	23996
830.941	23824
831.08	23760
831.219	23813
831.357	23923
831.496	24114
831.635	23847
831.774	23760
831.913	23726
832.051	23592
832.19	23497
832.329	23642
832.467	23512
832.606	23463
832.744	23524
832.883	23398
833.022	23490
833.16	23486
833.299	23512
833.437	23463
833.576	23444
833.714	23531
833.852	23539
833.991	23570
834.129	23752
834.267	23551
834.406	23501
834.544	23615
834.682	23558
834.821	23444
834.959	23665
835.097	23554
835.235	23497
835.373	23520
835.511	23516
835.65	23512
835.788	23360
835.926	23284
836.064	23159
836.202	23280
836.34	23334
836.478	23391
836.615	23372
836.753	23376
836.891	23414
837.029	23379
837.167	23406
837.305	23185
837.443	23246
837.58	23170
837.718	23250
837.856	23292
837.993	23151
838.131	23277
838.269	23048
838.406	23299
838.544	22961
838.681	22854
838.819	22854
838.956	22771
839.094	22672
839.231	22736
839.369	22930
839.506	23109
839.643	23079
839.781	22744
839.918	22626
840.055	22694
840.193	22645
840.33	22611
840.467	22755
840.604	22725
840.742	22927
840.879	22554
841.016	22546
841.153	22508
841.29	22668
841.427	22634
841.564	22641
841.701	22664
841.838	22542
841.975	22588
842.112	22489
842.249	22284
842.385	22447
842.522	22569
842.659	22447
842.796	22402
842.933	22405
843.069	22363
843.206	22375
843.343	22478
843.479	22443
843.616	22318
843.752	22131
843.889	22257
844.025	22265
844.162	22116
844.298	22276
844.435	22124
844.571	22097
844.708	22284
844.844	22371
844.98	22299
845.117	22356
845.253	22150
845.389	22017
845.525	22055
845.661	21983
845.798	21816
845.934	22025
846.07	21823
846.206	21846
846.342	22029
846.478	21884
846.614	21743
846.75	21545
846.886	21553
847.022	21709
847.158	21625
847.294	21576
847.429	21682
847.565	21686
847.701	21873
847.837	21336
847.972	21176
848.108	21473
848.244	21492
848.379	21291
848.515	21207
848.65	21211
848.786	21207
848.921	21252
849.057	21279
849.192	21298
849.328	21291
849.463	21180
849.598	21077
849.734	21108
849.869	21108
850.004	20948
850.14	21070
850.275	20971
850.41	20902
850.545	20941
850.68	20921
850.815	21017
850.95	20982
851.085	21074
851.22	21146
851.355	20937
851.49	21055
851.625	21005
851.76	20975
851.895	20982
852.03	20883
852.165	20948
852.299	20914
852.434	21051
852.569	20967
852.703	21032
852.838	21024
852.973	21199
853.107	21005
853.242	20971
853.376	20883
853.511	20571
853.645	20697
853.78	20883
853.914	20823
854.048	20674
854.183	20895
854.317	20796
854.451	21028
854.585	20842
854.72	20777
854.854	20918
854.988	20804
855.122	20800
855.256	20693
855.39	20883
855.524	20925
855.658	20975
855.792	20849
855.926	20842
856.06	20823
856.194	21005
856.327	20689
856.461	20739
856.595	20750
856.729	20807
856.862	20902
856.996	20910
857.13	20914
857.263	20861
857.397	20910
857.53	20804
857.664	20849
857.797	20956
857.931	20868
858.064	20891
858.197	20800
858.331	20830
858.464	20659
858.597	20659
858.731	20781
858.864	20762
858.997	20872
859.13	20849
859.263	20872
859.396	20838
859.529	20773
859.662	20769
859.795	20712
859.928	20838
860.061	20910
860.194	21017
860.327	20826
860.46	20697
860.592	20963
860.725	20872
860.858	20811
860.99	20948
861.123	20746
861.256	20708
861.388	20727
861.521	21321
861.653	20765
861.786	20533
861.918	20659
862.05	20644
862.183	20644
862.315	20731
862.447	20716
862.58	20735
862.712	20473
862.844	20503
862.976	20621
863.108	20598
863.24	21005
863.372	20526
863.504	20465
863.636	20514
863.768	20602
863.9	20446
864.032	20419
864.164	20492
864.296	20511
864.428	20648
864.559	20484
864.691	20602
864.823	20594
864.954	20590
865.086	20454
865.217	20499
865.349	20434
865.48	20408
865.612	20408
865.743	20503
865.875	20423
866.006	20366
866.137	20396
866.269	20290
866.4	20434
866.531	20324
866.662	20324
866.793	20267
866.924	20454
867.055	20351
867.186	20366
867.317	20237
867.448	20286
867.579	20370
867.71	20218
867.841	20362
867.972	20278
868.103	20305
868.233	20362
868.364	20362
868.495	20396
868.625	20594
868.756	20670
868.886	20636
869.017	20423
869.147	20750
869.278	20712
869.408	20655
869.539	20484
869.669	20735
869.799	20575
869.929	20731
870.06	20743
870.19	20960
870.32	20899
870.45	20971
870.58	20956
870.71	21005
870.84	21058
870.97	21028
871.1	20902
871.23	21176
871.36	21081
871.489	21146
871.619	21093
871.749	21188
871.879	21241
872.008	21374
872.138	21233
872.267	21252
872.397	20979
872.526	21058
872.656	21039
872.785	21123
872.915	21222
873.044	21351
873.173	21119
873.303	21313
873.432	21412
873.561	21245
873.69	21302
873.819	21165
873.948	21230
874.077	21184
874.206	21279
874.335	21226
874.464	21348
874.593	21447
874.722	21462
874.851	21507
874.979	21599
875.108	21515
875.237	21370
875.365	21252
875.494	21450
875.623	21526
875.751	21553
875.88	21530
876.008	21622
876.136	21614
876.265	21831
876.393	21934
876.521	22055
876.65	21953
876.778	21934
876.906	21781
877.034	21800
877.162	21781
877.29	21827
877.418	21865
877.546	21884
877.674	21953
877.802	21785
877.93	21679
878.058	21876
878.185	21785
878.313	21686
878.441	21736
878.568	21679
878.696	21720
878.824	21690
878.951	21816
879.079	21994
879.206	22154
879.333	21823
879.461	21755
879.588	21903
879.715	21953
879.842	22090
879.97	21926
880.097	21603
880.224	21667
880.351	21686
880.478	21603
880.605	21473
880.732	21671
880.859	21823
880.986	21679
881.112	21675
881.239	21523
881.366	21450
881.493	21283
881.619	21218
881.746	21317
881.872	21211
881.999	21237
882.125	21237
882.252	21310
882.378	21226
882.505	21435
882.631	21093
882.757	20971
882.883	21001
883.01	20902
883.136	20914
883.262	20830
883.388	20807
883.514	20868
883.64	20998
883.766	20804
883.892	20640
884.018	20765
884.143	20842
884.269	20933
884.395	20674
884.52	20514
884.646	20552
884.772	20484
884.897	20415
885.023	20499
885.148	20651
885.274	20686
885.399	20564
885.524	20606
885.65	20682
885.775	20629
885.9	20446
886.025	20636
886.15	20598
886.275	20526
886.4	20404
886.525	20473
886.65	20511
886.775	20571
886.9	20651
887.025	20785
887.149	20492
887.274	20389
887.399	20244
887.523	20351
887.648	20358
887.773	20294
887.897	20419
888.021	20377
888.146	20282
888.27	20438
888.395	20412
888.519	20362
888.643	20385
888.767	20400
888.891	20259
889.015	20259
889.139	20259
889.263	20084
889.387	20183
889.511	20229
889.635	20229
889.759	20096
889.883	20153
890.006	20191
890.13	20088
890.254	20043
890.377	20043
890.501	19963
890.624	19849
890.748	19955
890.871	19830
890.995	19833
891.118	19658
891.241	19814
891.364	19879
891.488	19841
891.611	19750
891.734	19712
891.857	19769
891.98	19727
892.103	19742
892.226	19727
892.349	19670
892.471	19594
892.594	19651
892.717	19662
892.839	19578
892.962	19552
893.085	19830
893.207	19689
893.33	19491
893.452	19525
893.575	19696
893.697	19681
893.819	19833
893.941	19746
894.064	19811
894.186	19483
894.308	19540
894.43	19738
894.552	19818
894.674	19841
894.796	19480
894.918	19647
895.04	19647
895.161	19708
895.283	19776
895.405	19483
895.526	19715
895.648	19670
895.769	19643
895.891	19696
896.012	19689
896.134	19708
896.255	19594
896.376	19620
896.498	19628
896.619	19616
896.74	19746
896.861	19689
896.982	19963
897.103	20187
897.224	19967
897.345	19856
897.466	19746
897.587	19864
897.708	20062
897.828	19917
897.949	19814
898.07	19715
898.19	19776
898.311	19959
898.431	19852
898.552	19913
898.672	20001
898.792	20008
898.913	19936
899.033	19837
899.153	19712
899.273	19559
899.393	19571
899.513	19575
899.633	19601
899.753	19677
899.873	19483
899.993	19578
900.113	19499
900.232	19628
900.352	19468
900.472	19616
900.591	19278
900.711	19480
900.83	19358
900.95	19434
901.069	19552
901.189	19263
901.308	19061
901.427	19015
901.546	19107
901.665	19069
901.784	19050
901.904	18928
902.023	18859
902.141	18509
902.26	18410
902.379	18684
902.498	18593
902.617	18464
902.735	18589
902.854	18551
902.973	18486
903.091	18254
903.21	18243
903.328	18110
903.446	18072
903.565	18045
903.683	18095
903.801	17946
903.919	17912
904.038	17901
904.156	17752
904.274	17927
904.392	17771
904.51	17737
904.627	17665
904.745	17726
904.863	17760
904.981	17554
905.098	17455
905.216	17528
905.334	17429
905.451	17444
905.569	17337
905.686	17459
905.803	17395
905.921	17204
906.038	17307
906.155	17242
906.272	17136
906.389	17197
906.506	17075
906.623	17098
906.74	16968
906.857	16839
906.974	16923
907.091	16961
907.208	17090
907.324	17022
907.441	16850
907.557	16778
907.674	16706
907.79	16615
907.907	16675
908.023	16721
908.139	16668
908.256	16649
908.372	16702
908.488	16603
908.604	16481
908.72	16443
908.836	16348
908.952	16375
909.068	16497
909.184	16542
909.3	16417
909.415	16500
909.531	16516
909.647	16215
909.762	16139
909.878	16166
909.993	16177
910.108	16063
910.224	16112
910.339	16101
910.454	15991
910.57	15941
910.685	15827
910.8	16185
910.915	15941
911.03	16002
911.145	15736
911.259	15663
911.374	15698
911.489	15698
911.604	15553
911.718	15481
911.833	15492
911.947	15336
912.062	15359
912.176	15473
912.291	15515
912.405	15485
912.519	15622
912.633	15580
912.748	15561
912.862	15466
912.976	15382
913.09	15169
913.204	15317
913.318	15283
913.431	15340
913.545	15348
913.659	15367
913.772	15249
913.886	15199
914	15074
914.113	15264
914.226	15256
914.34	15188
914.453	15020
914.566	15169
914.68	15013
914.793	14899
914.906	14819
915.019	14735
915.132	14788
915.245	14667
915.358	14777
915.47	14823
915.583	14651
915.696	14823
915.809	14826
915.921	14933
916.034	14686
916.146	14682
916.259	14617
916.371	14693
916.483	14678
916.595	14530
916.708	14480
916.82	14651
916.932	14533
917.044	14488
917.156	14480
917.268	14412
917.38	14366
917.491	14328
917.603	14423
917.715	14400
917.826	14594
917.938	14400
918.049	14286
918.161	14385
918.272	14503
918.384	14434
918.495	14404
918.606	14153
918.717	13978
918.828	14275
918.939	14202
919.05	14088
919.161	14180
919.272	13909
919.383	14077
919.494	14206
919.604	14343
919.715	14161
919.826	14050
919.936	14157
920.047	14252
920.157	14202
920.267	14362
920.378	14134
920.488	14126
920.598	14396
920.708	14438
920.818	14275
920.928	14301
921.038	14438
921.148	14309
921.258	14077
921.368	14054
921.477	13887
921.587	13833
921.697	13647
921.806	13837
921.916	13738
922.025	13518
922.134	13613
922.244	13567
922.353	13525
922.462	13400
922.571	13274
922.68	13183
922.789	13129
922.898	13179
923.007	13046
923.116	13270
923.224	13107
923.333	13145
923.442	13156
923.55	13133
923.659	13061
923.767	13084
923.876	13050
923.984	13099
924.092	12920
924.201	13004
924.309	12871
924.417	12875
924.525	12810
924.633	12844
924.741	13868
924.849	12639
924.956	12852
925.064	12692
925.172	12654
925.279	12582
925.387	12574
925.494	12631
925.602	12715
925.709	12707
925.816	12528
925.924	12467
926.031	12616
926.138	12551
926.245	12582
926.352	12475
926.459	12639
926.566	12654
926.673	12506
926.779	12475
926.886	12330
926.993	12251
927.099	12186
927.206	12148
927.312	12129
927.419	12182
927.525	12197
927.631	12171
927.737	12095
927.843	12072
927.95	11927
928.056	12041
928.162	11996
928.267	12015
928.373	12612
928.479	12182
928.585	11923
928.69	11999
928.796	12110
928.901	11866
929.007	11718
929.112	11931
929.218	11866
929.323	11790
929.428	11821
929.533	11874
929.638	11733
929.743	11710
929.848	11760
929.953	11680
930.058	11638
930.163	11440
930.267	11501
930.372	11535
930.477	11429
930.581	11623
930.685	11410
930.79	11330
930.894	11395
930.998	11349
931.103	11440
931.207	11083
931.311	11018
931.415	10942
931.519	10733
931.623	10740
