Data from test_V78500241_938.txt Node
Date: Fri Mar 25 15:16:23 CST 2022
User: usil
Spectrometer: V785-0024
Trigger mode: 0
Integration Time (sec): 4.000000E-1
Scans to average: 1
Nonlinearity correction enabled: false
Boxcar width: 0
Storing dark spectrum: false
XAxis mode: Wavelengths
Number of Pixels in Spectrum: 1024
>>>>>Begin Spectral Data<<<<<
801.071	27675
801.214	27564
801.356	27359
801.499	27355
801.641	27214
801.783	27218
801.926	27321
802.068	27127
802.211	27180
802.353	27123
802.496	26975
802.638	26727
802.78	26830
802.923	26819
803.065	26876
803.208	26872
803.35	27024
803.492	26952
803.635	27077
803.777	27009
803.919	27036
804.061	27192
804.204	27176
804.346	27146
804.488	26963
804.63	27077
804.773	26891
804.915	27036
805.057	27100
805.199	27127
805.341	27108
805.483	27313
805.626	27119
805.768	26986
805.91	27001
806.052	27135
806.194	27100
806.336	27294
806.478	27214
806.62	27131
806.762	27344
806.904	27485
807.046	27713
807.188	27488
807.33	27568
807.472	27568
807.614	27458
807.756	27542
807.898	27485
808.04	27477
808.182	27447
808.324	27492
808.465	27424
808.607	27637
808.749	27720
808.891	27876
809.033	27934
809.174	27823
809.316	27762
809.458	27774
809.6	27816
809.741	27983
809.883	28036
810.025	28025
810.166	28169
810.308	28048
810.45	28044
810.591	27949
810.733	27850
810.875	27755
811.016	27812
811.158	27629
811.299	27823
811.441	27922
811.582	27903
811.724	27922
811.865	27816
812.007	27728
812.148	27846
812.29	27785
812.431	27899
812.573	28181
812.714	28150
812.855	28398
812.997	28394
813.138	28508
813.279	28497
813.421	28455
813.562	28462
813.703	28147
813.845	27975
813.986	27861
814.127	27644
814.268	27538
814.41	27545
814.551	27374
814.692	27515
814.833	27526
814.974	27500
815.115	27515
815.256	27386
815.397	27401
815.539	27416
815.68	27279
815.821	27260
815.962	27458
816.103	27279
816.244	27226
816.385	27165
816.526	27100
816.666	26796
816.807	26807
816.948	26868
817.089	26952
817.23	26845
817.371	26887
817.512	26769
817.653	26762
817.793	26762
817.934	26796
818.075	26758
818.216	26693
818.356	26807
818.497	26674
818.638	26545
818.778	26583
818.919	26469
819.06	26598
819.2	26743
819.341	26880
819.481	26880
819.622	26937
819.762	27146
819.903	27085
820.043	26975
820.184	27020
820.324	26906
820.465	27001
820.605	26891
820.746	26857
820.886	26819
821.026	26876
821.167	26895
821.307	26925
821.447	26887
821.588	26781
821.728	26568
821.868	26541
822.008	26400
822.149	26225
822.289	26248
822.429	25966
822.569	26027
822.709	25940
822.849	25746
822.99	25780
823.13	25609
823.27	25780
823.41	25529
823.55	25613
823.69	25677
823.83	25506
823.97	25628
824.11	25343
824.25	25419
824.389	25441
824.529	25563
824.669	25438
824.809	25655
824.949	25468
825.089	25605
825.228	25521
825.368	25282
825.508	25244
825.648	25407
825.787	25301
825.927	25335
826.067	25350
826.206	25282
826.346	25308
826.485	25312
826.625	25266
826.765	25559
826.904	25266
827.044	24943
827.183	25053
827.323	25004
827.462	25061
827.601	25088
827.741	24977
827.88	25042
828.02	24981
828.159	24996
828.298	24985
828.437	25095
828.577	24977
828.716	25133
828.855	24954
828.994	24722
829.134	24814
829.273	24795
829.412	24658
829.551	24658
829.69	24661
829.829	24905
829.968	24692
830.107	24711
830.246	24677
830.385	24544
830.524	24650
830.663	24407
830.802	24422
830.941	24391
831.08	24361
831.219	24509
831.357	24422
831.496	24601
831.635	24300
831.774	24224
831.913	24205
832.051	24110
832.19	24171
832.329	24155
832.467	24038
832.606	24015
832.744	23996
832.883	23931
833.022	23954
833.16	23977
833.299	24079
833.437	24034
833.576	24079
833.714	24018
833.852	24079
833.991	24087
834.129	24159
834.267	24133
834.406	24060
834.544	24186
834.682	23958
834.821	24110
834.959	24232
835.097	24076
835.235	24201
835.373	23999
835.511	24182
835.65	23916
835.788	23920
835.926	23729
836.064	23760
836.202	23866
836.34	24018
836.478	23885
836.615	23843
836.753	23897
836.891	23950
837.029	24030
837.167	23942
837.305	23836
837.443	23760
837.58	23668
837.718	23920
837.856	23832
837.993	23668
838.131	23695
838.269	23589
838.406	23646
838.544	23478
838.681	23410
838.819	23433
838.956	23178
839.094	23345
839.231	23299
839.369	23436
839.506	23600
839.643	23455
839.781	23307
839.918	23132
840.055	23261
840.193	23193
840.33	23303
840.467	23193
840.604	23170
840.742	23391
840.879	23048
841.016	23052
841.153	22946
841.29	23136
841.427	23113
841.564	23147
841.701	23151
841.838	23132
841.975	23060
842.112	23048
842.249	22953
842.385	22862
842.522	23113
842.659	22953
842.796	22934
842.933	22869
843.069	22774
843.206	22915
843.343	22999
843.479	22930
843.616	22900
843.752	22653
843.889	22694
844.025	22873
844.162	22698
844.298	22721
844.435	22672
844.571	22801
844.708	22782
844.844	22862
844.98	22759
845.117	22649
845.253	22596
845.389	22512
845.525	22649
845.661	22565
845.798	22478
845.934	22394
846.07	22371
846.206	22508
846.342	22493
846.478	22322
846.614	22128
846.75	22055
846.886	22131
847.022	22246
847.158	22101
847.294	22090
847.429	22112
847.565	22097
847.701	22447
847.837	21865
847.972	21838
848.108	21835
848.244	21975
848.379	21854
848.515	21747
848.65	21720
848.786	21679
848.921	21816
849.057	21869
849.192	21846
849.328	21682
849.463	21698
849.598	21785
849.734	21622
849.869	21549
850.004	21488
850.14	21633
850.275	21454
850.41	21477
850.545	21492
850.68	21485
850.815	21576
850.95	21496
851.085	21641
851.22	21614
851.355	21561
851.49	21515
851.625	21374
851.76	21515
851.895	21378
852.03	21462
852.165	21481
852.299	21610
852.434	21580
852.569	21557
852.703	21568
852.838	21553
852.973	21477
853.107	21583
853.242	21469
853.376	21298
853.511	21214
853.645	21260
853.78	21443
853.914	21420
854.048	21329
854.183	21249
854.317	21382
854.451	21553
854.585	21245
854.72	21374
854.854	21268
854.988	21230
855.122	21199
855.256	21192
855.39	21298
855.524	21348
855.658	21416
855.792	21431
855.926	21378
856.06	21332
856.194	21393
856.327	21272
856.461	21317
856.595	21283
856.729	21329
856.862	21435
856.996	21260
857.13	21348
857.263	21344
857.397	21431
857.53	21260
857.664	21466
857.797	21355
857.931	21511
858.064	21351
858.197	21359
858.331	21340
858.464	21298
858.597	21264
858.731	21306
858.864	21218
858.997	21173
859.13	21154
859.263	21272
859.396	21401
859.529	21329
859.662	21310
859.795	21298
859.928	21222
860.061	21473
860.194	21462
860.327	21408
860.46	21325
860.592	21492
860.725	21466
860.858	21462
860.99	21275
861.123	21294
861.256	21268
861.388	21317
861.521	22013
861.653	21131
861.786	21043
861.918	21146
862.05	21222
862.183	21348
862.315	21302
862.447	21428
862.58	21195
862.712	21112
862.844	21032
862.976	21085
863.108	21161
863.24	21279
863.372	20998
863.504	21036
863.636	20872
863.768	21123
863.9	21032
864.032	20925
864.164	21024
864.296	21116
864.428	21173
864.559	21066
864.691	21165
864.823	21085
864.954	21005
865.086	21066
865.217	20929
865.349	20762
865.48	20899
865.612	20872
865.743	21039
865.875	20895
866.006	20845
866.137	20876
866.269	20792
866.4	21028
866.531	20845
866.662	20777
866.793	20826
866.924	20773
867.055	20800
867.186	20998
867.317	20807
867.448	20720
867.579	20758
867.71	20697
867.841	20701
867.972	20842
868.103	20910
868.233	20804
868.364	20804
868.495	20918
868.625	20990
868.756	21165
868.886	20960
869.017	21047
869.147	21264
869.278	21245
869.408	21154
869.539	21104
869.669	21275
869.799	21207
869.929	21306
870.06	21275
870.19	21355
870.32	21291
870.45	21408
870.58	21564
870.71	21644
870.84	21610
870.97	21504
871.1	21530
871.23	21743
871.36	21610
871.489	21637
871.619	21690
871.749	21739
871.879	21808
872.008	21751
872.138	21641
872.267	21660
872.397	21511
872.526	21500
872.656	21507
872.785	21507
872.915	21778
873.044	21766
873.173	21762
873.303	21770
873.432	21831
873.561	21663
873.69	21713
873.819	21797
873.948	21865
874.077	21698
874.206	21705
874.335	21747
874.464	21880
874.593	21949
874.722	21835
874.851	21934
874.979	21972
875.108	21926
875.237	21907
875.365	21819
875.494	21911
875.623	22070
875.751	21812
875.88	21930
876.008	22044
876.136	22029
876.265	22344
876.393	22386
876.521	22394
876.65	22363
876.778	22268
876.906	22261
877.034	22287
877.162	22352
877.29	22329
877.418	22287
877.546	22284
877.674	22215
877.802	22280
877.93	22219
878.058	22234
878.185	22185
878.313	22257
878.441	22284
878.568	22051
878.696	22246
878.824	22322
878.951	22211
879.079	22523
879.206	22596
879.333	22489
879.461	22299
879.588	22371
879.715	22398
879.842	22535
879.97	22436
880.097	22082
880.224	22109
880.351	22135
880.478	22246
880.605	22013
880.732	22135
880.859	22276
880.986	22215
881.112	22211
881.239	22044
881.366	21774
881.493	21732
881.619	21679
881.746	21827
881.872	21698
881.999	21709
882.125	21667
882.252	21701
882.378	21610
882.505	21804
882.631	21469
882.757	21378
882.883	21557
883.01	21485
883.136	21340
883.262	21252
883.388	21222
883.514	21329
883.64	21420
883.766	21416
883.892	21131
884.018	21173
884.143	21237
884.269	21549
884.395	21192
884.52	21036
884.646	21009
884.772	20845
884.897	20899
885.023	21051
885.148	21199
885.274	21291
885.399	21036
885.524	20975
885.65	21024
885.775	20921
885.9	20975
886.025	21138
886.15	21058
886.275	20994
886.4	20876
886.525	21074
886.65	20906
886.775	20956
886.9	21089
887.025	21249
887.149	21020
887.274	20849
887.399	20781
887.523	20769
887.648	20773
887.773	20739
887.897	20861
888.021	20891
888.146	20788
888.27	20902
888.395	20902
888.519	20735
888.643	20838
888.767	20765
888.891	20792
889.015	20667
889.139	20590
889.263	20606
889.387	20708
889.511	20807
889.635	20716
889.759	20564
889.883	20495
890.006	20651
890.13	20625
890.254	20568
890.377	20484
890.501	20389
890.624	20320
890.748	20336
890.871	20259
890.995	20054
891.118	20138
891.241	20164
891.364	20263
891.488	20408
891.611	20206
891.734	20122
891.857	20180
891.98	20119
892.103	20332
892.226	20111
892.349	20069
892.471	19989
892.594	20229
892.717	20084
892.839	20008
892.962	20100
893.085	20145
893.207	20001
893.33	19993
893.452	20050
893.575	20126
893.697	19997
893.819	20218
893.941	20278
894.064	20073
894.186	20054
894.308	20020
894.43	20134
894.552	20267
894.674	20126
894.796	20012
894.918	20008
895.04	20103
895.161	20168
895.283	20035
895.405	20027
895.526	20058
895.648	20157
895.769	20107
895.891	20012
896.012	20126
896.134	20092
896.255	20012
896.376	20077
896.498	20088
896.619	20168
896.74	20069
896.861	20115
896.982	20400
897.103	20461
897.224	20381
897.345	20263
897.466	20134
897.587	20134
897.708	20362
897.828	20351
897.949	20195
898.07	20252
898.19	20187
898.311	20271
898.431	20252
898.552	20252
898.672	20339
898.792	20431
898.913	20332
899.033	20214
899.153	20054
899.273	20035
899.393	20050
899.513	20088
899.633	20103
899.753	20024
899.873	19982
899.993	20020
900.113	20001
900.232	20035
900.352	19982
900.472	19822
900.591	19845
900.711	19959
900.83	19852
900.95	19826
901.069	19830
901.189	19639
901.308	19457
901.427	19392
901.546	19438
901.665	19373
901.784	19407
901.904	19278
902.023	19247
902.141	19012
902.26	18894
902.379	19015
902.498	18985
902.617	18878
902.735	18863
902.854	18905
902.973	18916
903.091	18738
903.21	18559
903.328	18585
903.446	18391
903.565	18422
903.683	18365
903.801	18190
903.919	18346
904.038	18315
904.156	18110
904.274	18186
904.392	18140
904.51	18144
904.627	18098
904.745	18239
904.863	18148
904.981	17980
905.098	17798
905.216	17866
905.334	17832
905.451	17851
905.569	17710
905.686	17813
905.803	17783
905.921	17653
906.038	17756
906.155	17611
906.272	17482
906.389	17581
906.506	17402
906.623	17345
906.74	17436
906.857	17254
906.974	17208
907.091	17490
907.208	17463
907.324	17455
907.441	17181
907.557	17124
907.674	17136
907.79	16972
907.907	16961
908.023	17083
908.139	17151
908.256	16984
908.372	16957
908.488	16927
908.604	16930
908.72	16774
908.836	16801
908.952	16694
909.068	16847
909.184	16843
909.3	16885
909.415	16854
909.531	16786
909.647	16451
909.762	16596
909.878	16523
909.993	16588
910.108	16546
910.224	16512
910.339	16523
910.454	16447
910.57	16352
910.685	16322
910.8	16512
910.915	16459
911.03	16337
911.145	16131
911.259	16063
911.374	16116
911.489	16067
911.604	16051
911.718	15873
911.833	15838
911.947	15633
912.062	15690
912.176	15888
912.291	15884
912.405	15907
912.519	16017
912.633	15991
912.748	15808
912.862	15838
912.976	15751
913.09	15610
913.204	15663
913.318	15701
913.431	15739
913.545	15717
913.659	15736
913.772	15622
913.886	15534
914	15412
914.113	15500
914.226	15701
914.34	15488
914.453	15420
914.566	15492
914.68	15355
914.793	15329
914.906	15188
915.019	15005
915.132	14944
915.245	15154
915.358	15173
915.47	15100
915.583	15104
915.696	15123
915.809	15154
915.921	15135
916.034	14952
916.146	14891
916.259	14819
916.371	15119
916.483	15013
916.595	14937
916.708	14971
916.82	14952
916.932	14891
917.044	14861
917.156	14910
917.268	14697
917.38	14705
917.491	14792
917.603	14686
917.715	14781
917.826	14857
917.938	14781
918.049	14556
918.161	14701
918.272	14853
918.384	14815
918.495	14712
918.606	14552
918.717	14336
918.828	14461
918.939	14522
919.05	14408
919.161	14446
919.272	14377
919.383	14423
919.494	14575
919.604	14678
919.715	14503
919.826	14362
919.936	14476
920.047	14507
920.157	14438
920.267	14613
920.378	14381
920.488	14503
920.598	14678
920.708	14716
920.818	14632
920.928	14571
921.038	14807
921.148	14659
921.258	14450
921.368	14313
921.477	14206
921.587	14187
921.697	14050
921.806	14199
921.916	14035
922.025	13921
922.134	13788
922.244	13708
922.353	13830
922.462	13738
922.571	13578
922.68	13552
922.789	13381
922.898	13514
923.007	13449
923.116	13487
923.224	13487
923.333	13403
923.442	13331
923.55	13255
923.659	13411
923.767	13346
923.876	13236
923.984	13297
924.092	13213
924.201	13213
924.309	13171
924.417	13221
924.525	13225
924.633	13312
924.741	13936
924.849	12947
924.956	13179
925.064	12920
925.172	12840
925.279	12890
925.387	12890
925.494	12897
925.602	13034
925.709	13019
925.816	12901
925.924	12924
926.031	12993
926.138	12814
926.245	12943
926.352	12768
926.459	12837
926.566	12882
926.673	12745
926.779	12681
926.886	12635
926.993	12517
927.099	12498
927.206	12376
927.312	12479
927.419	12456
927.525	12460
927.631	12471
927.737	12407
927.843	12296
927.95	12251
928.056	12281
928.162	12270
928.267	12296
928.373	12848
928.479	12346
928.585	12186
928.69	12194
928.796	12277
928.901	12159
929.007	12053
929.112	12209
929.218	12175
929.323	12072
929.428	12114
929.533	12186
929.638	12030
929.743	12019
929.848	12068
929.953	11992
930.058	11817
930.163	11611
930.267	11676
930.372	11866
930.477	11680
930.581	11912
930.685	11817
930.79	11573
930.894	11627
930.998	11570
931.103	11718
931.207	11391
931.311	11212
931.415	11197
931.519	11064
931.623	10934
