Data from test_V78500241_2141.txt Node
Date: Fri Mar 25 15:24:46 CST 2022
User: usil
Spectrometer: V785-0024
Trigger mode: 0
Integration Time (sec): 4.000000E-1
Scans to average: 1
Nonlinearity correction enabled: false
Boxcar width: 0
Storing dark spectrum: false
XAxis mode: Wavelengths
Number of Pixels in Spectrum: 1024
>>>>>Begin Spectral Data<<<<<
801.071	27500
801.214	27538
801.356	27260
801.499	27207
801.641	27112
801.783	27039
801.926	27138
802.068	26960
802.211	26895
802.353	26880
802.496	26670
802.638	26739
802.78	26648
802.923	26644
803.065	26640
803.208	26598
803.35	26686
803.492	26796
803.635	26891
803.777	26765
803.919	26883
804.061	27119
804.204	26971
804.346	26785
804.488	26739
804.63	26876
804.773	26697
804.915	26830
805.057	26982
805.199	26792
805.341	26918
805.483	27028
805.626	26921
805.768	26861
805.91	26925
806.052	26975
806.194	26895
806.336	27131
806.478	27093
806.62	27013
806.762	27252
806.904	27321
807.046	27378
807.188	27374
807.33	27359
807.472	27507
807.614	27340
807.756	27195
807.898	27222
808.04	27241
808.182	27047
808.324	27279
808.465	27340
808.607	27405
808.749	27572
808.891	27766
809.033	27701
809.174	27610
809.316	27477
809.458	27694
809.6	27523
809.741	27603
809.883	27682
810.025	27888
810.166	27842
810.308	27770
810.45	27755
810.591	27842
810.733	27576
810.875	27580
811.016	27477
811.158	27466
811.299	27633
811.441	27797
811.582	27762
811.724	27595
811.865	27545
812.007	27648
812.148	27614
812.29	27690
812.431	27778
812.573	27797
812.714	27892
812.855	28166
812.997	28177
813.138	28360
813.279	28185
813.421	28169
813.562	28067
813.703	27762
813.845	27797
813.986	27545
814.127	27287
814.268	27397
814.41	27344
814.551	27260
814.692	27199
814.833	27112
814.974	27169
815.115	27321
815.256	27138
815.397	27264
815.539	27116
815.68	26887
815.821	26925
815.962	27036
816.103	26929
816.244	26887
816.385	26785
816.526	26750
816.666	26678
816.807	26568
816.948	26499
817.089	26579
817.23	26450
817.371	26530
817.512	26412
817.653	26571
817.793	26503
817.934	26545
818.075	26579
818.216	26533
818.356	26480
818.497	26370
818.638	26339
818.778	26233
818.919	26214
819.06	26408
819.2	26343
819.341	26492
819.481	26374
819.622	26663
819.762	26754
819.903	26727
820.043	26648
820.184	26552
820.324	26594
820.465	26716
820.605	26590
820.746	26594
820.886	26541
821.026	26556
821.167	26522
821.307	26537
821.447	26560
821.588	26355
821.728	26408
821.868	26142
822.008	25947
822.149	25986
822.289	25970
822.429	25616
822.569	25715
822.709	25590
822.849	25518
822.99	25578
823.13	25499
823.27	25510
823.41	25331
823.55	25236
823.69	25316
823.83	25244
823.97	25080
824.11	25069
824.25	25031
824.389	25240
824.529	25099
824.669	25156
824.809	25126
824.949	25190
825.089	25129
825.228	25183
825.368	24981
825.508	25046
825.648	24951
825.787	24985
825.927	24947
826.067	24871
826.206	24962
826.346	25038
826.485	25095
826.625	25034
826.765	25141
826.904	24954
827.044	24814
827.183	24734
827.323	24627
827.462	24757
827.601	24608
827.741	24566
827.88	24802
828.02	24578
828.159	24669
828.298	24741
828.437	24776
828.577	24517
828.716	24650
828.855	24608
828.994	24350
829.134	24323
829.273	24330
829.412	24365
829.551	24304
829.69	24304
829.829	24422
829.968	24388
830.107	24353
830.246	24490
830.385	24235
830.524	24251
830.663	24171
830.802	24098
830.941	23984
831.08	23939
831.219	24045
831.357	24003
831.496	24197
831.635	23851
831.774	23821
831.913	23729
832.051	23821
832.19	23726
832.329	23737
832.467	23729
832.606	23649
832.744	23611
832.883	23627
833.022	23615
833.16	23627
833.299	23646
833.437	23668
833.576	23798
833.714	23687
833.852	23741
833.991	23733
834.129	23748
834.267	23817
834.406	23729
834.544	23756
834.682	23783
834.821	23687
834.959	23916
835.097	23684
835.235	23843
835.373	23642
835.511	23684
835.65	23585
835.788	23551
835.926	23414
836.064	23391
836.202	23368
836.34	23524
836.478	23623
836.615	23455
836.753	23558
836.891	23608
837.029	23634
837.167	23497
837.305	23402
837.443	23482
837.58	23372
837.718	23448
837.856	23391
837.993	23296
838.131	23208
838.269	23193
838.406	23292
838.544	23075
838.681	23025
838.819	23010
838.956	23014
839.094	22881
839.231	22839
839.369	23003
839.506	23322
839.643	23098
839.781	22862
839.918	22740
840.055	22774
840.193	22801
840.33	22611
840.467	22828
840.604	22824
840.742	22984
840.879	22694
841.016	22611
841.153	22603
841.29	22771
841.427	22755
841.564	22843
841.701	22786
841.838	22729
841.975	22641
842.112	22725
842.249	22542
842.385	22561
842.522	22748
842.659	22580
842.796	22626
842.933	22497
843.069	22478
843.206	22466
843.343	22649
843.479	22603
843.616	22542
843.752	22306
843.889	22200
844.025	22500
844.162	22325
844.298	22432
844.435	22287
844.571	22306
844.708	22394
844.844	22386
844.98	22356
845.117	22333
845.253	22185
845.389	22207
845.525	22177
845.661	22181
845.798	22002
845.934	22192
846.07	22010
846.206	22093
846.342	22109
846.478	21964
846.614	21793
846.75	21622
846.886	21644
847.022	21846
847.158	21835
847.294	21816
847.429	21816
847.565	21675
847.701	21956
847.837	21507
847.972	21469
848.108	21656
848.244	21530
848.379	21401
848.515	21325
848.65	21332
848.786	21397
848.921	21268
849.057	21386
849.192	21405
849.328	21378
849.463	21367
849.598	21329
849.734	21131
849.869	21241
850.004	21214
850.14	21188
850.275	21112
850.41	21108
850.545	21077
850.68	21077
850.815	21131
850.95	21077
851.085	21291
851.22	21306
851.355	21203
851.49	21093
851.625	21184
851.76	21093
851.895	21093
852.03	20899
852.165	21112
852.299	21157
852.434	21157
852.569	21085
852.703	21176
852.838	21165
852.973	21230
853.107	21207
853.242	21100
853.376	20975
853.511	20929
853.645	20895
853.78	20937
853.914	21005
854.048	20937
854.183	20979
854.317	20925
854.451	21222
854.585	20979
854.72	20925
854.854	21032
854.988	20914
855.122	20979
855.256	20804
855.39	20906
855.524	21001
855.658	20998
855.792	20872
855.926	20982
856.06	20967
856.194	20994
856.327	20887
856.461	20826
856.595	20921
856.729	20914
856.862	20925
856.996	20921
857.13	21047
857.263	20914
857.397	20994
857.53	20857
857.664	20921
857.797	21013
857.931	21051
858.064	20948
858.197	21005
858.331	20864
858.464	20842
858.597	20735
858.731	20880
858.864	20937
858.997	20952
859.13	20864
859.263	20918
859.396	21055
859.529	20906
859.662	20902
859.795	20929
859.928	21017
860.061	21100
860.194	21074
860.327	21062
860.46	20902
860.592	21013
860.725	21146
860.858	21127
860.99	21013
861.123	20906
861.256	20891
861.388	20902
861.521	21583
861.653	20857
861.786	20705
861.918	20693
862.05	20796
862.183	20769
862.315	20853
862.447	20921
862.58	20914
862.712	20564
862.844	20602
862.976	20674
863.108	20705
863.24	21150
863.372	20579
863.504	20670
863.636	20686
863.768	20625
863.9	20533
864.032	20705
864.164	20674
864.296	20560
864.428	20708
864.559	20674
864.691	20701
864.823	20655
864.954	20655
865.086	20762
865.217	20556
865.349	20495
865.48	20446
865.612	20568
865.743	20712
865.875	20450
866.006	20469
866.137	20514
866.269	20579
866.4	20648
866.531	20442
866.662	20473
866.793	20438
866.924	20469
867.055	20488
867.186	20545
867.317	20389
867.448	20381
867.579	20457
867.71	20317
867.841	20495
867.972	20366
868.103	20385
868.233	20575
868.364	20495
868.495	20537
868.625	20602
868.756	20849
868.886	20716
869.017	20663
869.147	20918
869.278	20788
869.408	20765
869.539	20693
869.669	20781
869.799	20785
869.929	20823
870.06	20807
870.19	21047
870.32	21195
870.45	21017
870.58	21150
870.71	21260
870.84	21211
870.97	21055
871.1	21085
871.23	21226
871.36	21222
871.489	21154
871.619	21306
871.749	21370
871.879	21462
872.008	21424
872.138	21370
872.267	21260
872.397	21195
872.526	21131
872.656	21123
872.785	21199
872.915	21306
873.044	21389
873.173	21405
873.303	21393
873.432	21378
873.561	21397
873.69	21431
873.819	21256
873.948	21348
874.077	21428
874.206	21275
874.335	21317
874.464	21389
874.593	21595
874.722	21477
874.851	21583
874.979	21641
875.108	21610
875.237	21492
875.365	21481
875.494	21496
875.623	21660
875.751	21485
875.88	21587
876.008	21770
876.136	21755
876.265	22006
876.393	22147
876.521	22029
876.65	22040
876.778	21956
876.906	21903
877.034	21816
877.162	21880
877.29	21865
877.418	21949
877.546	21953
877.674	21797
877.802	21838
877.93	21945
878.058	21850
878.185	21857
878.313	21827
878.441	21827
878.568	21762
878.696	21827
878.824	22055
878.951	21949
879.079	22078
879.206	22207
879.333	22013
879.461	22017
879.588	21964
879.715	22044
879.842	22226
879.97	21945
880.097	21812
880.224	21690
880.351	21884
880.478	21675
880.605	21698
880.732	21804
880.859	21934
880.986	21705
881.112	21850
881.239	21629
881.366	21462
881.493	21450
881.619	21275
881.746	21287
881.872	21348
881.999	21332
882.125	21207
882.252	21401
882.378	21348
882.505	21344
882.631	21249
882.757	21043
882.883	21017
883.01	20998
883.136	20971
883.262	20849
883.388	20872
883.514	20990
883.64	21127
883.766	21005
883.892	20845
884.018	20823
884.143	21009
884.269	21081
884.395	20785
884.52	20636
884.646	20651
884.772	20644
884.897	20602
885.023	20590
885.148	20724
885.274	20864
885.399	20720
885.524	20712
885.65	20735
885.775	20579
885.9	20693
886.025	20804
886.15	20697
886.275	20674
886.4	20537
886.525	20655
886.65	20545
886.775	20579
886.9	20800
887.025	20834
887.149	20625
887.274	20473
887.399	20370
887.523	20476
887.648	20362
887.773	20358
887.897	20522
888.021	20503
888.146	20298
888.27	20560
888.395	20598
888.519	20480
888.643	20438
888.767	20507
888.891	20309
889.015	20229
889.139	20298
889.263	20252
889.387	20332
889.511	20495
889.635	20336
889.759	20206
889.883	20233
890.006	20271
890.13	20385
890.254	20206
890.377	20149
890.501	20043
890.624	19921
890.748	20058
890.871	19974
890.995	19780
891.118	19753
891.241	19757
891.364	19795
891.488	19944
891.611	19826
891.734	19780
891.857	19814
891.98	19864
892.103	19830
892.226	19871
892.349	19772
892.471	19647
892.594	19818
892.717	19841
892.839	19620
892.962	19765
893.085	19932
893.207	19696
893.33	19594
893.452	19712
893.575	19795
893.697	19685
893.819	19902
893.941	19887
894.064	19814
894.186	19578
894.308	19765
894.43	19841
894.552	19849
894.674	19814
894.796	19643
894.918	19734
895.04	19647
895.161	19841
895.283	19818
895.405	19613
895.526	19761
895.648	19620
895.769	19715
895.891	19689
896.012	19887
896.134	19658
896.255	19670
896.376	19689
896.498	19765
896.619	19902
896.74	19795
896.861	19719
896.982	20138
897.103	20145
897.224	20012
897.345	19982
897.466	19822
897.587	19989
897.708	20088
897.828	20062
897.949	19879
898.07	19761
898.19	19830
898.311	20031
898.431	19890
898.552	19852
898.672	20020
898.792	20031
898.913	20012
899.033	19822
899.153	19753
899.273	19731
899.393	19719
899.513	19750
899.633	19799
899.753	19685
899.873	19746
899.993	19727
900.113	19742
900.232	19658
900.352	19502
900.472	19609
900.591	19632
900.711	19578
900.83	19419
900.95	19597
901.069	19670
901.189	19358
901.308	19152
901.427	19126
901.546	19141
901.665	19179
901.784	19190
901.904	19004
902.023	18848
902.141	18665
902.26	18597
902.379	18681
902.498	18525
902.617	18589
902.735	18669
902.854	18597
902.973	18585
903.091	18296
903.21	18380
903.328	18304
903.446	18224
903.565	18186
903.683	18106
903.801	18011
903.919	18155
904.038	17999
904.156	17946
904.274	17916
904.392	17878
904.51	17840
904.627	17828
904.745	17912
904.863	17821
904.981	17646
905.098	17566
905.216	17535
905.334	17619
905.451	17604
905.569	17505
905.686	17505
905.803	17509
905.921	17242
906.038	17379
906.155	17341
906.272	17296
906.389	17197
906.506	17143
906.623	17258
906.74	17052
906.857	16991
906.974	17025
907.091	17090
907.208	17220
907.324	17094
907.441	17014
907.557	16938
907.674	16835
907.79	16679
907.907	16679
908.023	16873
908.139	16824
908.256	16710
908.372	16710
908.488	16596
908.604	16584
908.72	16402
908.836	16443
908.952	16348
909.068	16550
909.184	16573
909.3	16493
909.415	16592
909.531	16558
909.647	16272
909.762	16265
909.878	16150
909.993	16246
910.108	16249
910.224	16124
910.339	16116
910.454	16090
910.57	15987
910.685	15964
910.8	16276
910.915	16105
911.03	16044
911.145	15926
911.259	15865
911.374	15838
911.489	15766
911.604	15637
911.718	15534
911.833	15534
911.947	15458
912.062	15428
912.176	15580
912.291	15469
912.405	15553
912.519	15717
912.633	15751
912.748	15644
912.862	15530
912.976	15389
913.09	15207
913.204	15408
913.318	15382
913.431	15477
913.545	15424
913.659	15450
913.772	15416
913.886	15214
914	15207
914.113	15214
914.226	15291
914.34	15268
914.453	15104
914.566	15154
914.68	14971
914.793	15070
914.906	14826
915.019	14804
915.132	14754
915.245	14876
915.358	14868
915.47	14857
915.583	14876
915.696	14811
915.809	14891
915.921	14998
916.034	14765
916.146	14663
916.259	14613
916.371	14781
916.483	14765
916.595	14621
916.708	14701
916.82	14712
916.932	14655
917.044	14590
917.156	14598
917.268	14454
917.38	14575
917.491	14423
917.603	14427
917.715	14564
917.826	14533
917.938	14461
918.049	14336
918.161	14431
918.272	14499
918.384	14495
918.495	14427
918.606	14263
918.717	14164
918.828	14374
918.939	14252
919.05	14119
919.161	14240
919.272	14016
919.383	14035
919.494	14294
919.604	14469
919.715	14256
919.826	14069
919.936	14286
920.047	14259
920.157	14237
920.267	14347
920.378	14214
920.488	14157
920.598	14385
920.708	14503
920.818	14377
920.928	14248
921.038	14484
921.148	14507
921.258	14157
921.368	14081
921.477	14001
921.587	13944
921.697	13742
921.806	13963
921.916	13803
922.025	13708
922.134	13586
922.244	13575
922.353	13556
922.462	13457
922.571	13365
922.68	13316
922.789	13232
922.898	13213
923.007	13202
923.116	13255
923.224	13236
923.333	13251
923.442	13133
923.55	13057
923.659	13057
923.767	13053
923.876	12989
923.984	13137
924.092	12856
924.201	13046
924.309	12996
924.417	13031
924.525	12856
924.633	12863
924.741	13647
924.849	12734
924.956	12932
925.064	12829
925.172	12612
925.279	12650
925.387	12623
925.494	12722
925.602	12787
925.709	12757
925.816	12536
925.924	12601
926.031	12658
926.138	12612
926.245	12642
926.352	12547
926.459	12635
926.566	12741
926.673	12574
926.779	12483
926.886	12441
926.993	12369
927.099	12232
927.206	12197
927.312	12224
927.419	12243
927.525	12216
927.631	12270
927.737	12133
927.843	12083
927.95	12003
928.056	12087
928.162	12091
928.267	12133
928.373	12825
928.479	12091
928.585	11927
928.69	12045
928.796	12030
928.901	11969
929.007	11855
929.112	11828
929.218	11935
929.323	11870
929.428	11805
929.533	11912
929.638	11790
929.743	11745
929.848	11771
929.953	11813
930.058	11691
930.163	11490
930.267	11532
930.372	11657
930.477	11467
930.581	11703
930.685	11611
930.79	11372
930.894	11395
930.998	11296
931.103	11425
931.207	11124
931.311	11048
931.415	11025
931.519	10774
931.623	10778
