Data from test_V78500241_2084.txt Node
Date: Fri Mar 25 15:24:22 CST 2022
User: usil
Spectrometer: V785-0024
Trigger mode: 0
Integration Time (sec): 4.000000E-1
Scans to average: 1
Nonlinearity correction enabled: false
Boxcar width: 0
Storing dark spectrum: false
XAxis mode: Wavelengths
Number of Pixels in Spectrum: 1024
>>>>>Begin Spectral Data<<<<<
801.071	27888
801.214	27705
801.356	27530
801.499	27382
801.641	27355
801.783	27363
801.926	27310
802.068	27279
802.211	27367
802.353	27169
802.496	26990
802.638	26986
802.78	26880
802.923	26899
803.065	26979
803.208	27055
803.35	26880
803.492	27051
803.635	27199
803.777	27043
803.919	27165
804.061	27363
804.204	27287
804.346	27165
804.488	27207
804.63	27135
804.773	27199
804.915	27222
805.057	27157
805.199	27173
805.341	27260
805.483	27431
805.626	27287
805.768	27287
805.91	27336
806.052	27412
806.194	27287
806.336	27549
806.478	27359
806.62	27329
806.762	27378
806.904	27637
807.046	27774
807.188	27633
807.33	27591
807.472	27945
807.614	27591
807.756	27679
807.898	27587
808.04	27542
808.182	27644
808.324	27603
808.465	27549
808.607	27895
808.749	28025
808.891	27979
809.033	28116
809.174	27968
809.316	27804
809.458	27998
809.6	27956
809.741	28036
809.883	28162
810.025	28363
810.166	28128
810.308	28128
810.45	28207
810.591	28078
810.733	28059
810.875	28006
811.016	27888
811.158	27770
811.299	27914
811.441	28093
811.582	28032
811.724	27953
811.865	27838
812.007	27892
812.148	27922
812.29	28112
812.431	28147
812.573	28257
812.714	28398
812.855	28371
812.997	28565
813.138	28698
813.279	28687
813.421	28325
813.562	28405
813.703	28314
813.845	28166
813.986	27998
814.127	27698
814.268	27641
814.41	27648
814.551	27572
814.692	27713
814.833	27511
814.974	27644
815.115	27679
815.256	27523
815.397	27595
815.539	27511
815.68	27477
815.821	27317
815.962	27473
816.103	27458
816.244	27249
816.385	27268
816.526	27085
816.666	27032
816.807	26940
816.948	26781
817.089	27047
817.23	26864
817.371	26883
817.512	26921
817.653	27009
817.793	26758
817.934	26842
818.075	26823
818.216	26940
818.356	26910
818.497	26758
818.638	26590
818.778	26823
818.919	26697
819.06	26712
819.2	26670
819.341	26929
819.481	26853
819.622	27043
819.762	27146
819.903	27233
820.043	27028
820.184	27028
820.324	27043
820.465	27112
820.605	26975
820.746	26937
820.886	27032
821.026	27005
821.167	26899
821.307	27047
821.447	26929
821.588	26826
821.728	26724
821.868	26545
822.008	26438
822.149	26301
822.289	26218
822.429	26024
822.569	26065
822.709	26073
822.849	25879
822.99	25887
823.13	25818
823.27	25898
823.41	25742
823.55	25586
823.69	25860
823.83	25712
823.97	25613
824.11	25571
824.25	25548
824.389	25422
824.529	25483
824.669	25567
824.809	25567
824.949	25643
825.089	25586
825.228	25563
825.368	25297
825.508	25282
825.648	25384
825.787	25263
825.927	25476
826.067	25403
826.206	25346
826.346	25419
826.485	25460
826.625	25331
826.765	25487
826.904	25419
827.044	25133
827.183	25274
827.323	25198
827.462	25122
827.601	25137
827.741	25023
827.88	25076
828.02	25031
828.159	25103
828.298	25038
828.437	25122
828.577	25091
828.716	25099
828.855	25019
828.994	24817
829.134	24882
829.273	24783
829.412	24856
829.551	24707
829.69	24783
829.829	24829
829.968	24844
830.107	24856
830.246	24791
830.385	24703
830.524	24798
830.663	24677
830.802	24437
830.941	24441
831.08	24414
831.219	24437
831.357	24505
831.496	24635
831.635	24372
831.774	24448
831.913	24277
832.051	24178
832.19	24190
832.329	24098
832.467	24041
832.606	24064
832.744	23999
832.883	24182
833.022	24087
833.16	24079
833.299	24114
833.437	24049
833.576	24152
833.714	24053
833.852	24174
833.991	24171
834.129	24155
834.267	24205
834.406	24140
834.544	24194
834.682	24018
834.821	24003
834.959	24361
835.097	24030
835.235	24163
835.373	24235
835.511	24102
835.65	23897
835.788	23912
835.926	23855
836.064	23722
836.202	23722
836.34	24003
836.478	24091
836.615	23866
836.753	23927
836.891	23950
837.029	23980
837.167	24007
837.305	23783
837.443	23783
837.58	23805
837.718	23771
837.856	23809
837.993	23870
838.131	23726
838.269	23687
838.406	23767
838.544	23672
838.681	23585
838.819	23448
838.956	23478
839.094	23277
839.231	23414
839.369	23383
839.506	23752
839.643	23497
839.781	23273
839.918	23318
840.055	23277
840.193	23181
840.33	23200
840.467	23181
840.604	23288
840.742	23589
840.879	23006
841.016	23155
841.153	23102
841.29	23360
841.427	23197
841.564	23273
841.701	23010
841.838	23231
841.975	23105
842.112	23079
842.249	23018
842.385	23014
842.522	23170
842.659	22854
842.796	22873
842.933	23033
843.069	22820
843.206	22877
843.343	22957
843.479	23006
843.616	22904
843.752	22725
843.889	22752
844.025	22824
844.162	22816
844.298	22740
844.435	22797
844.571	22736
844.708	22630
844.844	22896
844.98	22919
845.117	22812
845.253	22725
845.389	22611
845.525	22637
845.661	22592
845.798	22455
845.934	22493
846.07	22356
846.206	22542
846.342	22588
846.478	22466
846.614	22265
846.75	22147
846.886	22173
847.022	22242
847.158	22242
847.294	22090
847.429	22207
847.565	22147
847.701	22417
847.837	21903
847.972	21869
848.108	21991
848.244	22067
848.379	21873
848.515	21755
848.65	21861
848.786	21884
848.921	21736
849.057	21918
849.192	21953
849.328	21907
849.463	21770
849.598	21759
849.734	21686
849.869	21720
850.004	21492
850.14	21526
850.275	21530
850.41	21424
850.545	21355
850.68	21454
850.815	21549
850.95	21450
851.085	21755
851.22	21713
851.355	21603
851.49	21393
851.625	21538
851.76	21595
851.895	21382
852.03	21488
852.165	21629
852.299	21595
852.434	21648
852.569	21553
852.703	21599
852.838	21610
852.973	21724
853.107	21648
853.242	21534
853.376	21332
853.511	21344
853.645	21336
853.78	21511
853.914	21523
854.048	21386
854.183	21230
854.317	21370
854.451	21469
854.585	21325
854.72	21367
854.854	21488
854.988	21386
855.122	21428
855.256	21302
855.39	21344
855.524	21488
855.658	21302
855.792	21336
855.926	21412
856.06	21485
856.194	21466
856.327	21348
856.461	21416
856.595	21466
856.729	21458
856.862	21374
856.996	21382
857.13	21507
857.263	21317
857.397	21523
857.53	21355
857.664	21317
857.797	21530
857.931	21450
858.064	21389
858.197	21306
858.331	21412
858.464	21241
858.597	21287
858.731	21332
858.864	21237
858.997	21298
859.13	21252
859.263	21355
859.396	21466
859.529	21268
859.662	21466
859.795	21249
859.928	21408
860.061	21561
860.194	21526
860.327	21302
860.46	21500
860.592	21481
860.725	21564
860.858	21439
860.99	21291
861.123	21237
861.256	21428
861.388	21313
861.521	22044
861.653	21154
861.786	21188
861.918	21272
862.05	21180
862.183	21321
862.315	21344
862.447	21332
862.58	21268
862.712	21039
862.844	21005
862.976	21211
863.108	21108
863.24	21435
863.372	21108
863.504	21119
863.636	21051
863.768	21169
863.9	21218
864.032	20857
864.164	21017
864.296	21116
864.428	21108
864.559	21157
864.691	21245
864.823	21100
864.954	21062
865.086	21062
865.217	20944
865.349	20838
865.48	20929
865.612	21017
865.743	21070
865.875	20921
866.006	20887
866.137	21024
866.269	21001
866.4	20838
866.531	20956
866.662	20838
866.793	20819
866.924	20838
867.055	21028
867.186	20842
867.317	20880
867.448	20800
867.579	20887
867.71	20796
867.841	20868
867.972	20853
868.103	20857
868.233	20849
868.364	20941
868.495	20956
868.625	21207
868.756	21146
868.886	21039
869.017	21199
869.147	21245
869.278	21245
869.408	21154
869.539	21062
869.669	21237
869.799	21169
869.929	21169
870.06	21272
870.19	21298
870.32	21412
870.45	21397
870.58	21568
870.71	21606
870.84	21603
870.97	21606
871.1	21496
871.23	21762
871.36	21728
871.489	21663
871.619	21800
871.749	21808
871.879	21690
872.008	21907
872.138	21747
872.267	21720
872.397	21629
872.526	21698
872.656	21614
872.785	21549
872.915	21736
873.044	21831
873.173	21728
873.303	21755
873.432	21770
873.561	21903
873.69	21724
873.819	21728
873.948	21850
874.077	21781
874.206	21778
874.335	21743
874.464	21915
874.593	22074
874.722	22002
874.851	22017
874.979	21934
875.108	22093
875.237	21941
875.365	21899
875.494	21918
875.623	21994
875.751	21907
875.88	21903
876.008	22082
876.136	22223
876.265	22261
876.393	22512
876.521	22428
876.65	22508
876.778	22382
876.906	22280
877.034	22318
877.162	22284
877.29	22207
877.418	22169
877.546	22325
877.674	22306
877.802	22272
877.93	22242
878.058	22272
878.185	22177
878.313	22291
878.441	22352
878.568	22181
878.696	22173
878.824	22386
878.951	22306
879.079	22497
879.206	22618
879.333	22512
879.461	22284
879.588	22379
879.715	22459
879.842	22641
879.97	22371
880.097	22154
880.224	22120
880.351	22162
880.478	22185
880.605	22192
880.732	22128
880.859	22382
880.986	22200
881.112	22070
881.239	22105
881.366	21991
881.493	21762
881.619	21804
881.746	21724
881.872	21762
881.999	21701
882.125	21568
882.252	21622
882.378	21720
882.505	21800
882.631	21606
882.757	21443
882.883	21519
883.01	21447
883.136	21450
883.262	21321
883.388	21207
883.514	21412
883.64	21447
883.766	21298
883.892	21116
884.018	21329
884.143	21431
884.269	21458
884.395	21249
884.52	21112
884.646	21096
884.772	20998
884.897	20960
885.023	21176
885.148	21142
885.274	21260
885.399	21173
885.524	21013
885.65	21089
885.775	20990
885.9	21032
886.025	21180
886.15	21104
886.275	20883
886.4	21028
886.525	20975
886.65	20986
886.775	20990
886.9	21123
887.025	21336
887.149	20956
887.274	20941
887.399	20781
887.523	20819
887.648	20845
887.773	20758
887.897	20891
888.021	20830
888.146	20899
888.27	20944
888.395	20902
888.519	20823
888.643	20811
888.767	20811
888.891	20655
889.015	20629
889.139	20632
889.263	20514
889.387	20701
889.511	20724
889.635	20705
889.759	20651
889.883	20632
890.006	20571
890.13	20689
890.254	20469
890.377	20522
890.501	20298
890.624	20374
890.748	20438
890.871	20404
890.995	20206
891.118	20214
891.241	20183
891.364	20221
891.488	20275
891.611	20199
891.734	20244
891.857	20278
891.98	20225
892.103	20320
892.226	20183
892.349	20122
892.471	20020
892.594	20134
892.717	20191
892.839	20035
892.962	20164
893.085	20130
893.207	20081
893.33	19928
893.452	20027
893.575	20016
893.697	20073
893.819	20180
893.941	20355
894.064	20336
894.186	20058
894.308	20054
894.43	20077
894.552	20202
894.674	20218
894.796	19932
894.918	19986
895.04	20145
895.161	20134
895.283	20271
895.405	20081
895.526	20065
895.648	20039
895.769	20218
895.891	20214
896.012	20016
896.134	20119
896.255	20172
896.376	20096
896.498	20126
896.619	20237
896.74	20138
896.861	20180
896.982	20400
897.103	20564
897.224	20366
897.345	20278
897.466	20278
897.587	20366
897.708	20457
897.828	20248
897.949	20206
898.07	20195
898.19	20298
898.311	20533
898.431	20278
898.552	20385
898.672	20423
898.792	20431
898.913	20370
899.033	20126
899.153	20062
899.273	20119
899.393	20149
899.513	20134
899.633	20096
899.753	20115
899.873	20031
899.993	20183
900.113	20126
900.232	20084
900.352	20005
900.472	19890
900.591	19852
900.711	19936
900.83	19803
900.95	19925
901.069	20005
901.189	19734
901.308	19419
901.427	19453
901.546	19552
901.665	19449
901.784	19453
901.904	19206
902.023	19171
902.141	19053
902.26	18962
902.379	19023
902.498	19012
902.617	18920
902.735	18913
902.854	18802
902.973	18821
903.091	18623
903.21	18521
903.328	18707
903.446	18555
903.565	18369
903.683	18521
903.801	18285
903.919	18323
904.038	18403
904.156	18186
904.274	18323
904.392	18117
904.51	18110
904.627	18159
904.745	18201
904.863	18197
904.981	18007
905.098	17798
905.216	17863
905.334	17897
905.451	17870
905.569	17798
905.686	17939
905.803	17863
905.921	17592
906.038	17699
906.155	17821
906.272	17543
906.389	17455
906.506	17368
906.623	17364
906.74	17345
906.857	17280
906.974	17288
907.091	17444
907.208	17444
907.324	17383
907.441	17311
907.557	17265
907.674	17162
907.79	16915
907.907	17083
908.023	17155
908.139	17086
908.256	17075
908.372	16957
908.488	17071
908.604	16786
908.72	16835
908.836	16809
908.952	16702
909.068	16843
909.184	16885
909.3	16835
909.415	16801
909.531	16752
909.647	16580
909.762	16546
909.878	16481
909.993	16493
910.108	16478
910.224	16443
910.339	16516
910.454	16413
910.57	16386
910.685	16207
910.8	16493
910.915	16500
911.03	16352
911.145	16150
911.259	16249
911.374	16147
911.489	15937
911.604	15975
911.718	15846
911.833	15835
911.947	15785
912.062	15663
912.176	15857
912.291	15728
912.405	15759
912.519	16074
912.633	16059
912.748	15926
912.862	15892
912.976	15736
913.09	15523
913.204	15580
913.318	15641
913.431	15842
913.545	15732
913.659	15785
913.772	15705
913.886	15610
914	15507
914.113	15587
914.226	15564
914.34	15572
914.453	15389
914.566	15511
914.68	15306
914.793	15389
914.906	15199
915.019	15123
915.132	14979
915.245	15077
915.358	15062
915.47	15089
915.583	15123
915.696	15142
915.809	15203
915.921	15211
916.034	15058
916.146	14929
916.259	14979
916.371	15097
916.483	14918
916.595	14967
916.708	15051
916.82	14914
916.932	14849
917.044	14906
917.156	14830
917.268	14735
917.38	14849
917.491	14735
917.603	14804
917.715	14834
917.826	14792
917.938	14632
918.049	14648
918.161	14655
918.272	14842
918.384	14720
918.495	14670
918.606	14552
918.717	14393
918.828	14552
918.939	14579
919.05	14518
919.161	14450
919.272	14298
919.383	14347
919.494	14461
919.604	14583
919.715	14469
919.826	14374
919.936	14514
920.047	14556
920.157	14465
920.267	14678
920.378	14412
920.488	14385
920.598	14625
920.708	14792
920.818	14514
920.928	14602
921.038	14826
921.148	14720
921.258	14412
921.368	14358
921.477	14214
921.587	14138
921.697	14073
921.806	14271
921.916	14100
922.025	13989
922.134	13807
922.244	13837
922.353	13913
922.462	13757
922.571	13613
922.68	13521
922.789	13518
922.898	13499
923.007	13441
923.116	13449
923.224	13521
923.333	13537
923.442	13438
923.55	13388
923.659	13304
923.767	13362
923.876	13209
923.984	13274
924.092	13190
924.201	13225
924.309	13206
924.417	13213
924.525	13046
924.633	13156
924.741	13944
924.849	13008
924.956	13126
925.064	12913
925.172	12791
925.279	12894
925.387	12897
925.494	12871
925.602	13118
925.709	13019
925.816	12875
925.924	12825
926.031	13008
926.138	12779
926.245	12890
926.352	12779
926.459	12905
926.566	12939
926.673	12791
926.779	12627
926.886	12681
926.993	12574
927.099	12456
927.206	12483
927.312	12445
927.419	12483
927.525	12486
927.631	12570
927.737	12319
927.843	12258
927.95	12251
928.056	12232
928.162	12266
928.267	12414
928.373	12909
928.479	12243
928.585	12178
928.69	12296
928.796	12323
928.901	12121
929.007	12015
929.112	12182
929.218	12159
929.323	12110
929.428	12049
929.533	12224
929.638	11946
929.743	11965
929.848	12019
929.953	12003
930.058	11882
930.163	11745
930.267	11737
930.372	11851
930.477	11653
930.581	11904
930.685	11817
930.79	11573
930.894	11649
930.998	11623
931.103	11668
931.207	11345
931.311	11315
931.415	11121
931.519	11018
931.623	10957
