Data from test_V78500241_2445.txt Node
Date: Fri Mar 25 15:26:53 CST 2022
User: usil
Spectrometer: V785-0024
Trigger mode: 0
Integration Time (sec): 4.000000E-1
Scans to average: 1
Nonlinearity correction enabled: false
Boxcar width: 0
Storing dark spectrum: false
XAxis mode: Wavelengths
Number of Pixels in Spectrum: 1024
>>>>>Begin Spectral Data<<<<<
801.071	27013
801.214	27024
801.356	26807
801.499	26731
801.641	26533
801.783	26469
801.926	26636
802.068	26530
802.211	26560
802.353	26526
802.496	26381
802.638	26202
802.78	26191
802.923	26176
803.065	26122
803.208	26130
803.35	26214
803.492	26275
803.635	26370
803.777	26298
803.919	26431
804.061	26693
804.204	26480
804.346	26214
804.488	26286
804.63	26431
804.773	26195
804.915	26377
805.057	26423
805.199	26347
805.341	26438
805.483	26507
805.626	26503
805.768	26488
805.91	26347
806.052	26438
806.194	26370
806.336	26708
806.478	26389
806.62	26488
806.762	26522
806.904	26674
807.046	26883
807.188	26975
807.33	26948
807.472	26952
807.614	26876
807.756	26720
807.898	26746
808.04	26621
808.182	26693
808.324	26796
808.465	26644
808.607	26994
808.749	26971
808.891	26986
809.033	27393
809.174	27146
809.316	26925
809.458	27039
809.6	26948
809.741	27108
809.883	27081
810.025	27382
810.166	27203
810.308	27272
810.45	27146
810.591	27089
810.733	27169
810.875	27001
811.016	26838
811.158	26849
811.299	27036
811.441	27013
811.582	27169
811.724	26906
811.865	26990
812.007	26929
812.148	27127
812.29	27100
812.431	27100
812.573	27211
812.714	27329
812.855	27462
812.997	27622
813.138	27751
813.279	27660
813.421	27606
813.562	27492
813.703	27321
813.845	27207
813.986	26899
814.127	26807
814.268	26773
814.41	26746
814.551	26560
814.692	26735
814.833	26564
814.974	26625
815.115	26739
815.256	26651
815.397	26442
815.539	26602
815.68	26473
815.821	26393
815.962	26503
816.103	26339
816.244	26370
816.385	26191
816.526	26191
816.666	26001
816.807	25917
816.948	25928
817.089	26035
817.23	26035
817.371	25932
817.512	25871
817.653	25909
817.793	25902
817.934	25890
818.075	26077
818.216	26039
818.356	25955
818.497	25852
818.638	25677
818.778	25594
818.919	25639
819.06	25620
819.2	25864
819.341	25902
819.481	25951
819.622	26145
819.762	26210
819.903	26145
820.043	26062
820.184	26027
820.324	25982
820.465	26145
820.605	26062
820.746	26084
820.886	25738
821.026	26054
821.167	25955
821.307	26122
821.447	25898
821.588	25860
821.728	25662
821.868	25578
822.008	25350
822.149	25434
822.289	25434
822.429	25209
822.569	25244
822.709	25095
822.849	24924
822.99	24962
823.13	24764
823.27	24871
823.41	24574
823.55	24650
823.69	24840
823.83	24703
823.97	24646
824.11	24528
824.25	24555
824.389	24623
824.529	24578
824.669	24585
824.809	24551
824.949	24700
825.089	24604
825.228	24620
825.368	24399
825.508	24270
825.648	24350
825.787	24414
825.927	24483
826.067	24437
826.206	24410
826.346	24513
826.485	24589
826.625	24395
826.765	24490
826.904	24403
827.044	24049
827.183	24171
827.323	24133
827.462	24095
827.601	24133
827.741	24003
827.88	24136
828.02	24125
828.159	24015
828.298	24110
828.437	24171
828.577	24114
828.716	24273
828.855	24041
828.994	23840
829.134	23912
829.273	23802
829.412	23882
829.551	23783
829.69	23870
829.829	23885
829.968	23992
830.107	23901
830.246	23935
830.385	23748
830.524	23771
830.663	23691
830.802	23581
830.941	23436
831.08	23402
831.219	23528
831.357	23372
831.496	23779
831.635	23539
831.774	23376
831.913	23250
832.051	23235
832.19	23216
832.329	23185
832.467	23117
832.606	23025
832.744	22995
832.883	23056
833.022	23147
833.16	23193
833.299	23090
833.437	23216
833.576	23235
833.714	23250
833.852	23151
833.991	23235
834.129	23360
834.267	23235
834.406	23254
834.544	23284
834.682	23048
834.821	23197
834.959	23326
835.097	23166
835.235	23189
835.373	23250
835.511	23170
835.65	23044
835.788	23025
835.926	22896
836.064	22706
836.202	22881
836.34	23044
836.478	23109
836.615	22953
836.753	22980
836.891	23033
837.029	23090
837.167	22991
837.305	22968
837.443	23041
837.58	22828
837.718	23010
837.856	22938
837.993	22839
838.131	22820
838.269	22793
838.406	22771
838.544	22797
838.681	22512
838.819	22405
838.956	22333
839.094	22405
839.231	22508
839.369	22607
839.506	22656
839.643	22535
839.781	22314
839.918	22314
840.055	22310
840.193	22481
840.33	22215
840.467	22249
840.604	22276
840.742	22550
840.879	22158
841.016	22223
841.153	22070
841.29	22390
841.427	22166
841.564	22348
841.701	22234
841.838	22211
841.975	22200
842.112	22169
842.249	22086
842.385	22002
842.522	22318
842.659	22207
842.796	21865
842.933	22105
843.069	22112
843.206	21918
843.343	21975
843.479	22013
843.616	22090
843.752	21827
843.889	21865
844.025	22067
844.162	21743
844.298	21907
844.435	21892
844.571	21793
844.708	21880
844.844	22010
844.98	22025
845.117	22013
845.253	21873
845.389	21755
845.525	21698
845.661	21644
845.798	21641
845.934	21583
846.07	21507
846.206	21686
846.342	21679
846.478	21500
846.614	21450
846.75	21340
846.886	21256
847.022	21507
847.158	21492
847.294	21321
847.429	21374
847.565	21256
847.701	21507
847.837	21055
847.972	21020
848.108	21211
848.244	21066
848.379	20925
848.515	20895
848.65	20876
848.786	20800
848.921	20921
849.057	20960
849.192	21036
849.328	20967
849.463	21032
849.598	20815
849.734	20720
849.869	20815
850.004	20590
850.14	20617
850.275	20689
850.41	20636
850.545	20636
850.68	20697
850.815	20701
850.95	20617
851.085	20845
851.22	20861
851.355	20739
851.49	20765
851.625	20667
851.76	20613
851.895	20621
852.03	20537
852.165	20693
852.299	20625
852.434	20758
852.569	20739
852.703	20724
852.838	20739
852.973	20880
853.107	20823
853.242	20629
853.376	20408
853.511	20358
853.645	20385
853.78	20663
853.914	20568
854.048	20507
854.183	20503
854.317	20640
854.451	20731
854.585	20526
854.72	20484
854.854	20670
854.988	20381
855.122	20457
855.256	20351
855.39	20488
855.524	20495
855.658	20598
855.792	20518
855.926	20530
856.06	20609
856.194	20712
856.327	20499
856.461	20511
856.595	20358
856.729	20503
856.862	20549
856.996	20419
857.13	20537
857.263	20564
857.397	20648
857.53	20457
857.664	20575
857.797	20571
857.931	20655
858.064	20571
858.197	20632
858.331	20438
858.464	20434
858.597	20427
858.731	20499
858.864	20408
858.997	20305
859.13	20537
859.263	20457
859.396	20705
859.529	20427
859.662	20598
859.795	20419
859.928	20556
860.061	20674
860.194	20678
860.327	20473
860.46	20511
860.592	20632
860.725	20701
860.858	20602
860.99	20530
861.123	20431
861.256	20396
861.388	20495
861.521	21039
861.653	20381
861.786	20431
861.918	20309
862.05	20271
862.183	20431
862.315	20362
862.447	20560
862.58	20419
862.712	20187
862.844	20218
862.976	20275
863.108	20317
863.24	20617
863.372	20153
863.504	20286
863.636	20210
863.768	20256
863.9	20206
864.032	20138
864.164	20153
864.296	20271
864.428	20347
864.559	20320
864.691	20282
864.823	20183
864.954	20252
865.086	20218
865.217	20043
865.349	20119
865.48	20103
865.612	20024
865.743	20077
865.875	20164
866.006	19986
866.137	20183
866.269	20130
866.4	20081
866.531	20035
866.662	20172
866.793	20115
866.924	19997
867.055	20199
867.186	20046
867.317	20043
867.448	20035
867.579	19955
867.71	19959
867.841	20012
867.972	20031
868.103	20016
868.233	20145
868.364	20119
868.495	20225
868.625	20252
868.756	20358
868.886	20206
869.017	20176
869.147	20415
869.278	20434
869.408	20229
869.539	20271
869.669	20419
869.799	20473
869.929	20355
870.06	20476
870.19	20667
870.32	20613
870.45	20659
870.58	20750
870.71	20804
870.84	20823
870.97	20750
871.1	20682
871.23	20746
871.36	20910
871.489	20792
871.619	20902
871.749	20883
871.879	20918
872.008	21077
872.138	20918
872.267	20960
872.397	20712
872.526	20792
872.656	20739
872.785	20785
872.915	20887
873.044	21009
873.173	21058
873.303	21005
873.432	21013
873.561	21005
873.69	20975
873.819	20986
873.948	21074
874.077	20986
874.206	20876
874.335	20891
874.464	20937
874.593	21199
874.722	21150
874.851	21146
874.979	21138
875.108	21302
875.237	21119
875.365	21077
875.494	21077
875.623	21214
875.751	21077
875.88	21351
876.008	21355
876.136	21420
876.265	21507
876.393	21709
876.521	21660
876.65	21553
876.778	21545
876.906	21549
877.034	21511
877.162	21545
877.29	21473
877.418	21568
877.546	21473
877.674	21507
877.802	21473
877.93	21606
878.058	21583
878.185	21401
878.313	21416
878.441	21500
878.568	21336
878.696	21473
878.824	21587
878.951	21629
879.079	21720
879.206	21945
879.333	21679
879.461	21652
879.588	21488
879.715	21705
879.842	21827
879.97	21701
880.097	21443
880.224	21275
880.351	21424
880.478	21416
880.605	21302
880.732	21405
880.859	21603
880.986	21424
881.112	21454
881.239	21165
881.366	21093
881.493	21009
881.619	21017
881.746	20899
881.872	20906
881.999	20944
882.125	20891
882.252	20948
882.378	20952
882.505	21135
882.631	20868
882.757	20667
882.883	20678
883.01	20712
883.136	20682
883.262	20438
883.388	20476
883.514	20712
883.64	20724
883.766	20469
883.892	20408
884.018	20533
884.143	20571
884.269	20727
884.395	20408
884.52	20294
884.646	20248
884.772	20252
884.897	20195
885.023	20396
885.148	20366
885.274	20537
885.399	20427
885.524	20313
885.65	20278
885.775	20358
885.9	20301
886.025	20389
886.15	20370
886.275	20218
886.4	20237
886.525	20317
886.65	20221
886.775	20313
886.9	20412
887.025	20522
887.149	20374
887.274	20153
887.399	20122
887.523	20218
887.648	19947
887.773	19928
887.897	20100
888.021	20054
888.146	19982
888.27	20183
888.395	20145
888.519	20134
888.643	20206
888.767	20092
888.891	19947
889.015	19879
889.139	20008
889.263	19909
889.387	20062
889.511	20195
889.635	20027
889.759	19883
889.883	19951
890.006	19856
890.13	19947
890.254	19769
890.377	19875
890.501	19601
890.624	19643
890.748	19696
890.871	19575
890.995	19365
891.118	19499
891.241	19567
891.364	19472
891.488	19586
891.611	19533
891.734	19472
891.857	19556
891.98	19419
892.103	19628
892.226	19460
892.349	19419
892.471	19266
892.594	19533
892.717	19365
892.839	19358
892.962	19457
893.085	19468
893.207	19483
893.33	19346
893.452	19324
893.575	19392
893.697	19415
893.819	19422
893.941	19586
894.064	19430
894.186	19304
894.308	19350
894.43	19521
894.552	19590
894.674	19476
894.796	19244
894.918	19388
895.04	19297
895.161	19441
895.283	19449
895.405	19289
895.526	19293
895.648	19297
895.769	19377
895.891	19430
896.012	19552
896.134	19506
896.255	19343
896.376	19350
896.498	19320
896.619	19422
896.74	19449
896.861	19510
896.982	19693
897.103	19871
897.224	19670
897.345	19575
897.466	19575
897.587	19605
897.708	19776
897.828	19674
897.949	19651
898.07	19441
898.19	19696
898.311	19704
898.431	19658
898.552	19620
898.672	19727
898.792	19651
898.913	19681
899.033	19594
899.153	19449
899.273	19388
899.393	19384
899.513	19251
899.633	19468
899.753	19392
899.873	19327
899.993	19453
900.113	19331
900.232	19411
900.352	19327
900.472	19278
900.591	19164
900.711	19190
900.83	19137
900.95	19274
901.069	19278
901.189	19129
901.308	18867
901.427	18798
901.546	18848
901.665	18798
901.784	18715
901.904	18631
902.023	18555
902.141	18239
902.26	18270
902.379	18270
902.498	18220
902.617	18311
902.735	18281
902.854	18357
902.973	18292
903.091	18072
903.21	17980
903.328	17904
903.446	17889
903.565	17760
903.683	17843
903.801	17748
903.919	17798
904.038	17798
904.156	17611
904.274	17710
904.392	17600
904.51	17551
904.627	17471
904.745	17611
904.863	17573
904.981	17261
905.098	17166
905.216	17315
905.334	17151
905.451	17231
905.569	17307
905.686	17212
905.803	17166
905.921	17079
906.038	17018
906.155	17022
906.272	16987
906.389	16820
906.506	16847
906.623	16717
906.74	16793
906.857	16717
906.974	16668
907.091	16736
907.208	16942
907.324	16828
907.441	16672
907.557	16535
907.674	16577
907.79	16417
907.907	16523
908.023	16519
908.139	16508
908.256	16398
908.372	16295
908.488	16356
908.604	16234
908.72	16211
908.836	16268
908.952	16105
909.068	16280
909.184	16276
909.3	16280
909.415	16246
909.531	16204
909.647	15968
909.762	15918
909.878	15915
909.993	15941
910.108	15857
910.224	15915
910.339	15907
910.454	15785
910.57	15842
910.685	15698
910.8	15850
910.915	15865
911.03	15705
911.145	15576
911.259	15580
911.374	15519
911.489	15435
911.604	15458
911.718	15302
911.833	15348
911.947	15112
912.062	15173
912.176	15317
912.291	15310
912.405	15131
912.519	15363
912.633	15507
912.748	15310
912.862	15256
912.976	15199
913.09	14990
913.204	15089
913.318	15104
913.431	15241
913.545	15226
913.659	15256
913.772	15043
913.886	14994
914	14967
914.113	14998
914.226	14971
914.34	14910
914.453	14769
914.566	15055
914.68	14861
914.793	14773
914.906	14564
915.019	14530
915.132	14530
915.245	14488
915.358	14549
915.47	14598
915.583	14499
915.696	14579
915.809	14594
915.921	14724
916.034	14495
916.146	14473
916.259	14522
916.371	14590
916.483	14560
916.595	14438
916.708	14351
916.82	14393
916.932	14423
917.044	14301
917.156	14419
917.268	14210
917.38	14206
917.491	14233
917.603	14218
917.715	14282
917.826	14320
917.938	14176
918.049	14100
918.161	14134
918.272	14305
918.384	14336
918.495	14123
918.606	14005
918.717	13959
918.828	14031
918.939	14046
919.05	13906
919.161	13974
919.272	13715
919.383	13799
919.494	13947
919.604	14161
919.715	13970
919.826	13921
919.936	13951
920.047	14046
920.157	13906
920.267	14107
920.378	14008
920.488	13940
920.598	14176
920.708	14248
920.818	14088
920.928	14096
921.038	14286
921.148	14195
921.258	13906
921.368	13860
921.477	13666
921.587	13712
921.697	13639
921.806	13727
921.916	13559
922.025	13331
922.134	13377
922.244	13377
922.353	13350
922.462	13221
922.571	13202
922.68	13072
922.789	12981
922.898	13088
923.007	12951
923.116	13004
923.224	12901
923.333	12985
923.442	12840
923.55	12821
923.659	12894
923.767	12909
923.876	12817
923.984	12871
924.092	12677
924.201	12791
924.309	12760
924.417	12817
924.525	12738
924.633	12696
924.741	13662
924.849	12407
924.956	12627
925.064	12506
925.172	12452
925.279	12498
925.387	12464
925.494	12414
925.602	12589
925.709	12479
925.816	12380
925.924	12403
926.031	12525
926.138	12350
926.245	12490
926.352	12369
926.459	12460
926.566	12471
926.673	12350
926.779	12273
926.886	12243
926.993	12117
927.099	12072
927.206	11973
927.312	12034
927.419	12003
927.525	12076
927.631	12102
927.737	11904
927.843	11988
927.95	11771
928.056	11824
928.162	11984
928.267	11942
928.373	12540
928.479	11946
928.585	11729
928.69	11821
928.796	11767
928.901	11790
929.007	11619
929.112	11767
929.218	11684
929.323	11630
929.428	11543
929.533	11699
929.638	11512
929.743	11528
929.848	11581
929.953	11551
930.058	11429
930.163	11372
930.267	11315
930.372	11471
930.477	11261
930.581	11501
930.685	11433
930.79	11189
930.894	11311
930.998	11185
931.103	11322
931.207	10904
931.311	10839
931.415	10793
931.519	10584
931.623	10538
