Data from test_V78500241_740.txt Node
Date: Fri Mar 25 15:15:00 CST 2022
User: usil
Spectrometer: V785-0024
Trigger mode: 0
Integration Time (sec): 4.000000E-1
Scans to average: 1
Nonlinearity correction enabled: false
Boxcar width: 0
Storing dark spectrum: false
XAxis mode: Wavelengths
Number of Pixels in Spectrum: 1024
>>>>>Begin Spectral Data<<<<<
801.071	27698
801.214	27485
801.356	27367
801.499	27252
801.641	27226
801.783	27089
801.926	27272
802.068	27192
802.211	27017
802.353	26834
802.496	26785
802.638	26724
802.78	26811
802.923	26815
803.065	26701
803.208	26689
803.35	26933
803.492	26834
803.635	26982
803.777	26830
803.919	27001
804.061	27249
804.204	27051
804.346	26952
804.488	26838
804.63	26899
804.773	26933
804.915	27020
805.057	26994
805.199	26956
805.341	27066
805.483	27131
805.626	26982
805.768	26914
805.91	27001
806.052	27032
806.194	26986
806.336	27256
806.478	27096
806.62	27017
806.762	27184
806.904	27363
807.046	27530
807.188	27583
807.33	27321
807.472	27363
807.614	27450
807.756	27439
807.898	27393
808.04	27351
808.182	27313
808.324	27420
808.465	27382
808.607	27511
808.749	27720
808.891	27720
809.033	27816
809.174	27736
809.316	27774
809.458	27865
809.6	27819
809.741	27926
809.883	27899
810.025	27956
810.166	28109
810.308	27865
810.45	27797
810.591	27964
810.733	27926
810.875	27610
811.016	27641
811.158	27564
811.299	27808
811.441	27865
811.582	27816
811.724	27656
811.865	27587
812.007	27701
812.148	27770
812.29	27690
812.431	27857
812.573	28112
812.714	28162
812.855	28265
812.997	28398
813.138	28436
813.279	28394
813.421	28238
813.562	28223
813.703	28188
813.845	28025
813.986	27759
814.127	27485
814.268	27576
814.41	27431
814.551	27279
814.692	27485
814.833	27416
814.974	27416
815.115	27386
815.256	27378
815.397	27332
815.539	27325
815.68	27245
815.821	27150
815.962	27272
816.103	27135
816.244	27036
816.385	27036
816.526	26982
816.666	26792
816.807	26716
816.948	26762
817.089	26773
817.23	26807
817.371	26705
817.512	26796
817.653	26708
817.793	26659
817.934	26735
818.075	26727
818.216	26807
818.356	26754
818.497	26503
818.638	26552
818.778	26431
818.919	26358
819.06	26537
819.2	26590
819.341	26670
819.481	26773
819.622	26804
819.762	27154
819.903	26705
820.043	26891
820.184	26674
820.324	26864
820.465	26971
820.605	26868
820.746	26796
820.886	26716
821.026	26845
821.167	26758
821.307	26746
821.447	26701
821.588	26621
821.728	26484
821.868	26453
822.008	26111
822.149	26111
822.289	26119
822.429	25947
822.569	25898
822.709	25871
822.849	25655
822.99	25567
823.13	25712
823.27	25670
823.41	25483
823.55	25487
823.69	25540
823.83	25472
823.97	25525
824.11	25244
824.25	25209
824.389	25384
824.529	25415
824.669	25400
824.809	25548
824.949	25377
825.089	25525
825.228	25335
825.368	25145
825.508	25350
825.648	25168
825.787	25289
825.927	25251
826.067	25217
826.206	25122
826.346	25308
826.485	25270
826.625	25088
826.765	25244
826.904	25190
827.044	24970
827.183	25000
827.323	24897
827.462	24806
827.601	25019
827.741	24772
827.88	24920
828.02	24707
828.159	24954
828.298	24947
828.437	25061
828.577	24932
828.716	24962
828.855	24753
828.994	24631
829.134	24620
829.273	24582
829.412	24570
829.551	24559
829.69	24612
829.829	24585
829.968	24734
830.107	24631
830.246	24661
830.385	24498
830.524	24585
830.663	24426
830.802	24448
830.941	24243
831.08	24171
831.219	24346
831.357	24273
831.496	24448
831.635	24197
831.774	24194
831.913	24140
832.051	24049
832.19	23942
832.329	24041
832.467	23935
832.606	23889
832.744	23923
832.883	23847
833.022	23920
833.16	23843
833.299	23969
833.437	23882
833.576	23973
833.714	24045
833.852	23935
833.991	24045
834.129	24129
834.267	23980
834.406	23927
834.544	23954
834.682	23939
834.821	24045
834.959	24011
835.097	23897
835.235	23996
835.373	23908
835.511	23897
835.65	23843
835.788	23927
835.926	23767
836.064	23562
836.202	23543
836.34	23824
836.478	23882
836.615	23722
836.753	23889
836.891	23901
837.029	23764
837.167	23699
837.305	23748
837.443	23642
837.58	23627
837.718	23707
837.856	23577
837.993	23566
838.131	23562
838.269	23482
838.406	23391
838.544	23398
838.681	23292
838.819	23132
838.956	23025
839.094	23041
839.231	23292
839.369	23345
839.506	23345
839.643	23288
839.781	23090
839.918	23052
840.055	23102
840.193	23121
840.33	23037
840.467	23041
840.604	23041
840.742	23269
840.879	22847
841.016	22805
841.153	22968
841.29	23064
841.427	22976
841.564	23033
841.701	22927
841.838	22881
841.975	22930
842.112	22938
842.249	22869
842.385	22702
842.522	22869
842.659	22771
842.796	22812
842.933	22805
843.069	22649
843.206	22694
843.343	22763
843.479	22774
843.616	22763
843.752	22611
843.889	22508
844.025	22656
844.162	22493
844.298	22645
844.435	22398
844.571	22451
844.708	22561
844.844	22679
844.98	22523
845.117	22596
845.253	22546
845.389	22360
845.525	22421
845.661	22386
845.798	22215
845.934	22379
846.07	22299
846.206	22291
846.342	22394
846.478	22223
846.614	22067
846.75	21964
846.886	21983
847.022	22128
847.158	21983
847.294	22048
847.429	22002
847.565	21956
847.701	22173
847.837	21603
847.972	21827
848.108	21869
848.244	21816
848.379	21610
848.515	21614
848.65	21644
848.786	21511
848.921	21545
849.057	21739
849.192	21663
849.328	21724
849.463	21675
849.598	21568
849.734	21507
849.869	21431
850.004	21431
850.14	21496
850.275	21294
850.41	21157
850.545	21389
850.68	21283
850.815	21344
850.95	21367
851.085	21591
851.22	21374
851.355	21351
851.49	21321
851.625	21199
851.76	21268
851.895	21256
852.03	21287
852.165	21363
852.299	21344
852.434	21462
852.569	21428
852.703	21310
852.838	21397
852.973	21431
853.107	21488
853.242	21294
853.376	21150
853.511	21017
853.645	20998
853.78	21287
853.914	21195
854.048	21195
854.183	21192
854.317	21218
854.451	21294
854.585	21119
854.72	21184
854.854	21279
854.988	21116
855.122	21077
855.256	21066
855.39	21195
855.524	21245
855.658	21207
855.792	21245
855.926	21180
856.06	21154
856.194	21199
856.327	21100
856.461	21085
856.595	21112
856.729	21058
856.862	21279
856.996	21241
857.13	21252
857.263	21249
857.397	21222
857.53	21009
857.664	21176
857.797	21249
857.931	21192
858.064	21214
858.197	21291
858.331	21146
858.464	21131
858.597	21173
858.731	21241
858.864	21100
858.997	21199
859.13	21260
859.263	21241
859.396	21272
859.529	21112
859.662	21119
859.795	21146
859.928	21146
860.061	21233
860.194	21389
860.327	21203
860.46	21150
860.592	21355
860.725	21313
860.858	21173
860.99	21233
861.123	21180
861.256	21112
861.388	21195
861.521	21743
861.653	21161
861.786	20948
861.918	20982
862.05	21096
862.183	21100
862.315	21089
862.447	21169
862.58	21077
862.712	20899
862.844	20902
862.976	21047
863.108	20979
863.24	21237
863.372	20944
863.504	20883
863.636	20800
863.768	20933
863.9	20845
864.032	20796
864.164	20830
864.296	20956
864.428	20944
864.559	20986
864.691	20979
864.823	20830
864.954	20815
865.086	20891
865.217	20796
865.349	20785
865.48	20849
865.612	20785
865.743	20944
865.875	20788
866.006	20765
866.137	20876
866.269	20762
866.4	20716
866.531	20693
866.662	20727
866.793	20663
866.924	20788
867.055	20735
867.186	20705
867.317	20769
867.448	20640
867.579	20765
867.71	20636
867.841	20587
867.972	20697
868.103	20674
868.233	20678
868.364	20720
868.495	20838
868.625	21001
868.756	21032
868.886	20918
869.017	20975
869.147	21032
869.278	20982
869.408	21036
869.539	20830
869.669	21039
869.799	21009
869.929	21009
870.06	21028
870.19	21389
870.32	21264
870.45	21260
870.58	21325
870.71	21523
870.84	21340
870.97	21306
871.1	21317
871.23	21545
871.36	21416
871.489	21428
871.619	21591
871.749	21564
871.879	21538
872.008	21595
872.138	21534
872.267	21553
872.397	21317
872.526	21488
872.656	21412
872.785	21291
872.915	21458
873.044	21580
873.173	21603
873.303	21473
873.432	21603
873.561	21739
873.69	21542
873.819	21500
873.948	21572
874.077	21572
874.206	21663
874.335	21656
874.464	21701
874.593	21842
874.722	21724
874.851	21751
874.979	21774
875.108	21797
875.237	21774
875.365	21705
875.494	21778
875.623	21838
875.751	21667
875.88	21793
876.008	21827
876.136	22017
876.265	22166
876.393	22295
876.521	22150
876.65	22257
876.778	22166
876.906	22063
877.034	22116
877.162	22086
877.29	22139
877.418	22211
877.546	22105
877.674	22112
877.802	22025
877.93	22078
878.058	22131
878.185	21968
878.313	22055
878.441	22124
878.568	21937
878.696	22059
878.824	22185
878.951	22295
879.079	22242
879.206	22375
879.333	22299
879.461	22192
879.588	22226
879.715	22272
879.842	22451
879.97	22246
880.097	21979
880.224	21945
880.351	21953
880.478	21956
880.605	21991
880.732	21975
880.859	22131
880.986	22048
881.112	21949
881.239	21755
881.366	21652
881.493	21606
881.619	21500
881.746	21599
881.872	21488
881.999	21523
882.125	21530
882.252	21667
882.378	21500
882.505	21618
882.631	21435
882.757	21272
882.883	21241
883.01	21313
883.136	21275
883.262	21104
883.388	21119
883.514	21237
883.64	21264
883.766	21150
883.892	21013
884.018	21131
884.143	21199
884.269	21169
884.395	20933
884.52	20948
884.646	20868
884.772	20830
884.897	20819
885.023	20883
885.148	21013
885.274	20967
885.399	20872
885.524	20823
885.65	20929
885.775	20895
885.9	20883
886.025	20979
886.15	20941
886.275	20765
886.4	20743
886.525	20826
886.65	20792
886.775	20849
886.9	21077
887.025	21146
887.149	20868
887.274	20579
887.399	20644
887.523	20640
887.648	20552
887.773	20533
887.897	20617
888.021	20689
888.146	20587
888.27	20720
888.395	20819
888.519	20735
888.643	20621
888.767	20826
888.891	20526
889.015	20419
889.139	20469
889.263	20499
889.387	20583
889.511	20712
889.635	20537
889.759	20469
889.883	20492
890.006	20434
890.13	20484
890.254	20442
890.377	20419
890.501	20218
890.624	20115
890.748	20347
890.871	20062
890.995	19967
891.118	19944
891.241	20058
891.364	20134
891.488	20176
891.611	20126
891.734	19978
891.857	20081
891.98	20043
892.103	20008
892.226	20043
892.349	20088
892.471	19807
892.594	19989
892.717	19944
892.839	19898
892.962	19913
893.085	20103
893.207	19986
893.33	19822
893.452	19936
893.575	20031
893.697	19860
893.819	20092
893.941	20119
894.064	19917
894.186	19852
894.308	19780
894.43	20119
894.552	20062
894.674	20027
894.796	19727
894.918	20020
895.04	19879
895.161	19959
895.283	19959
895.405	19890
895.526	19906
895.648	19936
895.769	20081
895.891	19978
896.012	20046
896.134	19997
896.255	20001
896.376	19955
896.498	19875
896.619	19928
896.74	19909
896.861	19982
896.982	20259
897.103	20343
897.224	20187
897.345	20100
897.466	20058
897.587	20103
897.708	20336
897.828	20081
897.949	20157
898.07	19955
898.19	20149
898.311	20172
898.431	20176
898.552	20103
898.672	20202
898.792	20122
898.913	20305
899.033	20039
899.153	19940
899.273	19868
899.393	20039
899.513	19928
899.633	19940
899.753	19951
899.873	19864
899.993	19830
900.113	19826
900.232	19902
900.352	19788
900.472	19712
900.591	19624
900.711	19746
900.83	19571
900.95	19712
901.069	19772
901.189	19537
901.308	19407
901.427	19259
901.546	19407
901.665	19354
901.784	19354
901.904	19141
902.023	19053
902.141	18875
902.26	18894
902.379	18958
902.498	18749
902.617	18768
902.735	18856
902.854	18779
902.973	18696
903.091	18498
903.21	18448
903.328	18445
903.446	18395
903.565	18357
903.683	18232
903.801	18171
903.919	18182
904.038	18216
904.156	18125
904.274	18129
904.392	17996
904.51	18064
904.627	18015
904.745	18201
904.863	18095
904.981	17870
905.098	17771
905.216	17729
905.334	17752
905.451	17718
905.569	17600
905.686	17668
905.803	17748
905.921	17482
906.038	17634
906.155	17543
906.272	17315
906.389	17383
906.506	17273
906.623	17235
906.74	17239
906.857	17071
906.974	17132
907.091	17250
907.208	17406
907.324	17273
907.441	17181
907.557	17003
907.674	16961
907.79	16900
907.907	16866
908.023	17018
908.139	16980
908.256	16934
908.372	16900
908.488	16774
908.604	16828
908.72	16691
908.836	16656
908.952	16706
909.068	16611
909.184	16805
909.3	16672
909.415	16755
909.531	16641
909.647	16409
909.762	16413
909.878	16276
909.993	16356
910.108	16428
910.224	16379
910.339	16341
910.454	16211
910.57	16348
910.685	16154
910.8	16356
910.915	16322
911.03	16093
911.145	16086
911.259	15972
911.374	15991
911.489	15953
911.604	15812
911.718	15743
911.833	15800
911.947	15561
912.062	15538
912.176	15656
912.291	15770
912.405	15656
912.519	15945
912.633	15945
912.748	15785
912.862	15671
912.976	15606
913.09	15447
913.204	15428
913.318	15523
913.431	15663
913.545	15682
913.659	15637
913.772	15587
913.886	15359
914	15367
914.113	15428
914.226	15462
914.34	15473
914.453	15203
914.566	15332
914.68	15203
914.793	15256
914.906	15020
915.019	14979
915.132	14941
915.245	14967
915.358	15051
915.47	14956
915.583	14929
915.696	14929
915.809	15039
915.921	15119
916.034	14800
916.146	14750
916.259	14800
916.371	15013
916.483	14937
916.595	14781
916.708	14781
916.82	14872
916.932	14777
917.044	14724
917.156	14674
917.268	14640
917.38	14651
917.491	14667
917.603	14613
917.715	14617
917.826	14648
917.938	14659
918.049	14362
918.161	14598
918.272	14659
918.384	14636
918.495	14503
918.606	14347
918.717	14351
918.828	14446
918.939	14396
919.05	14259
919.161	14320
919.272	14233
919.383	14290
919.494	14301
919.604	14511
919.715	14427
919.826	14210
919.936	14412
920.047	14317
920.157	14351
920.267	14522
920.378	14351
920.488	14320
920.598	14484
920.708	14644
920.818	14511
920.928	14450
921.038	14670
921.148	14526
921.258	14404
921.368	14195
921.477	14138
921.587	14100
921.697	13928
921.806	14103
921.916	14020
922.025	13799
922.134	13784
922.244	13655
922.353	13772
922.462	13514
922.571	13430
922.68	13453
922.789	13411
922.898	13369
923.007	13346
923.116	13369
923.224	13426
923.333	13392
923.442	13285
923.55	13312
923.659	13221
923.767	13301
923.876	13168
923.984	13194
924.092	13126
924.201	13149
924.309	13110
924.417	13149
924.525	13008
924.633	13034
924.741	13837
924.849	12863
924.956	12981
925.064	12798
925.172	12837
925.279	12791
925.387	12753
925.494	12871
925.602	12985
925.709	12859
925.816	12639
925.924	12707
926.031	12863
926.138	12707
926.245	12715
926.352	12734
926.459	12768
926.566	12787
926.673	12696
926.779	12517
926.886	12559
926.993	12422
927.099	12300
927.206	12357
927.312	12311
927.419	12410
927.525	12304
927.631	12372
927.737	12300
927.843	12194
927.95	12178
928.056	12220
928.162	12190
928.267	12300
928.373	12806
928.479	12171
928.585	12022
928.69	12125
928.796	12163
928.901	12057
929.007	11958
929.112	12106
929.218	11965
929.323	11958
929.428	11939
929.533	12041
929.638	11878
929.743	11939
929.848	11942
929.953	11927
930.058	11691
930.163	11581
930.267	11615
930.372	11779
930.477	11642
930.581	11794
930.685	11604
930.79	11551
930.894	11516
930.998	11562
931.103	11592
931.207	11265
931.311	11208
931.415	11041
931.519	10923
931.623	10854
