Data from test_V78500241_1110.txt Node
Date: Fri Mar 25 15:17:35 CST 2022
User: usil
Spectrometer: V785-0024
Trigger mode: 0
Integration Time (sec): 4.000000E-1
Scans to average: 1
Nonlinearity correction enabled: false
Boxcar width: 0
Storing dark spectrum: false
XAxis mode: Wavelengths
Number of Pixels in Spectrum: 1024
>>>>>Begin Spectral Data<<<<<
801.071	28348
801.214	28166
801.356	27884
801.499	27892
801.641	27736
801.783	27846
801.926	27903
802.068	27869
802.211	27732
802.353	27732
802.496	27454
802.638	27439
802.78	27412
802.923	27496
803.065	27370
803.208	27340
803.35	27363
803.492	27568
803.635	27564
803.777	27568
803.919	27679
804.061	27857
804.204	27648
804.346	27625
804.488	27606
804.63	27625
804.773	27454
804.915	27644
805.057	27892
805.199	27728
805.341	27751
805.483	27819
805.626	27793
805.768	27781
805.91	27705
806.052	27766
806.194	27728
806.336	27994
806.478	27949
806.62	27865
806.762	28044
806.904	27979
807.046	28246
807.188	28135
807.33	28147
807.472	28143
807.614	28207
807.756	28295
807.898	28120
808.04	28097
808.182	28040
808.324	28135
808.465	28063
808.607	28215
808.749	28428
808.891	28554
809.033	28470
809.174	28565
809.316	28497
809.458	28516
809.6	28417
809.741	28641
809.883	28634
810.025	28675
810.166	28816
810.308	28763
810.45	28691
810.591	28755
810.733	28519
810.875	28466
811.016	28379
811.158	28459
811.299	28618
811.441	28759
811.582	28649
811.724	28535
811.865	28470
812.007	28569
812.148	28341
812.29	28451
812.431	28687
812.573	28824
812.714	28976
812.855	28976
812.997	29189
813.138	29277
813.279	29254
813.421	29079
813.562	28843
813.703	28904
813.845	28641
813.986	28459
814.127	28344
814.268	28086
814.41	28280
814.551	28207
814.692	28215
814.833	28135
814.974	28223
815.115	28135
815.256	27994
815.397	28105
815.539	28067
815.68	28101
815.821	27869
815.962	27991
816.103	28173
816.244	27914
816.385	27972
816.526	27884
816.666	27439
816.807	27412
816.948	27599
817.089	27652
817.23	27420
817.371	27572
817.512	27481
817.653	27557
817.793	27447
817.934	27492
818.075	27469
818.216	27466
818.356	27481
818.497	27431
818.638	27173
818.778	27203
818.919	27203
819.06	27340
819.2	27332
819.341	27386
819.481	27378
819.622	27610
819.762	27975
819.903	27717
820.043	27671
820.184	27610
820.324	27629
820.465	27694
820.605	27778
820.746	27622
820.886	27447
821.026	27812
821.167	27603
821.307	27774
821.447	27469
821.588	27427
821.728	27408
821.868	27226
822.008	26918
822.149	27070
822.289	26902
822.429	26686
822.569	26594
822.709	26579
822.849	26632
822.99	26663
823.13	26587
823.27	26461
823.41	26511
823.55	26149
823.69	26309
823.83	26320
823.97	26275
824.11	26225
824.25	26225
824.389	26248
824.529	26183
824.669	26107
824.809	26339
824.949	26286
825.089	26191
825.228	26138
825.368	25936
825.508	26069
825.648	26031
825.787	26081
825.927	26058
826.067	25974
826.206	26001
826.346	26100
826.485	25997
826.625	26035
826.765	26084
826.904	26134
827.044	25780
827.183	25757
827.323	25818
827.462	25780
827.601	25780
827.741	25757
827.88	25814
828.02	25666
828.159	25693
828.298	25909
828.437	25852
828.577	25715
828.716	25871
828.855	25677
828.994	25400
829.134	25476
829.273	25552
829.412	25518
829.551	25476
829.69	25514
829.829	25578
829.968	25548
830.107	25582
830.246	25563
830.385	25502
830.524	25472
830.663	25270
830.802	25285
830.941	25008
831.08	25080
831.219	25202
831.357	25312
831.496	25190
831.635	25053
831.774	25038
831.913	24943
832.051	24989
832.19	24886
832.329	24741
832.467	24795
832.606	24654
832.744	24692
832.883	24856
833.022	24677
833.16	24859
833.299	24810
833.437	24890
833.576	24787
833.714	24722
833.852	24890
833.991	24924
834.129	24947
834.267	24882
834.406	24905
834.544	24886
834.682	24985
834.821	24916
834.959	24954
835.097	24806
835.235	24989
835.373	24886
835.511	24764
835.65	24612
835.788	24684
835.926	24521
836.064	24452
836.202	24654
836.34	24730
836.478	24787
836.615	24749
836.753	24688
836.891	24665
837.029	24639
837.167	24559
837.305	24555
837.443	24654
837.58	24490
837.718	24555
837.856	24525
837.993	24388
838.131	24551
838.269	24422
838.406	24490
838.544	24380
838.681	24205
838.819	24197
838.956	23992
839.094	24057
839.231	24194
839.369	24129
839.506	24334
839.643	24273
839.781	24003
839.918	23870
840.055	24091
840.193	23946
840.33	23912
840.467	23904
840.604	23878
840.742	24213
840.879	23707
841.016	23916
841.153	23878
841.29	23980
841.427	23980
841.564	23843
841.701	23904
841.838	23901
841.975	23840
842.112	23828
842.249	23718
842.385	23653
842.522	23824
842.659	23718
842.796	23672
842.933	23623
843.069	23474
843.206	23665
843.343	23840
843.479	23646
843.616	23585
843.752	23444
843.889	23368
844.025	23539
844.162	23459
844.298	23589
844.435	23398
844.571	23444
844.708	23486
844.844	23589
844.98	23649
845.117	23611
845.253	23376
845.389	23288
845.525	23379
845.661	23212
845.798	23208
845.934	23299
846.07	23231
846.206	23132
846.342	23216
846.478	23193
846.614	22927
846.75	22850
846.886	22927
847.022	22987
847.158	22896
847.294	23033
847.429	22923
847.565	22824
847.701	22927
847.837	22615
847.972	22694
848.108	22771
848.244	22763
848.379	22622
848.515	22554
848.65	22390
848.786	22580
848.921	22481
849.057	22592
849.192	22516
849.328	22573
849.463	22432
849.598	22344
849.734	22428
849.869	22413
850.004	22303
850.14	22318
850.275	22204
850.41	22204
850.545	22265
850.68	22036
850.815	22234
850.95	22219
851.085	22443
851.22	22325
851.355	22265
851.49	22272
851.625	22299
851.76	22124
851.895	22109
852.03	22226
852.165	22303
852.299	22291
852.434	22474
852.569	22276
852.703	22284
852.838	22352
852.973	22428
853.107	22363
853.242	22112
853.376	22105
853.511	22006
853.645	22078
853.78	22139
853.914	22154
854.048	22105
854.183	22025
854.317	22124
854.451	22226
854.585	22040
854.72	21968
854.854	22097
854.988	21941
855.122	22109
855.256	21934
855.39	22105
855.524	22074
855.658	22120
855.792	22055
855.926	22143
856.06	22101
856.194	22188
856.327	21987
856.461	22082
856.595	22055
856.729	22044
856.862	22166
856.996	22109
857.13	22139
857.263	22196
857.397	22185
857.53	22097
857.664	22120
857.797	22120
857.931	22200
858.064	22082
858.197	22314
858.331	22051
858.464	21975
858.597	21979
858.731	21964
858.864	22101
858.997	22090
859.13	21998
859.263	22025
859.396	22105
859.529	22002
859.662	22059
859.795	22078
859.928	22162
860.061	22158
860.194	22295
860.327	22177
860.46	22154
860.592	22154
860.725	22196
860.858	22109
860.99	22200
861.123	22021
861.256	22082
861.388	21998
861.521	22816
861.653	21991
861.786	21884
861.918	21941
862.05	21968
862.183	21930
862.315	21998
862.447	22101
862.58	21899
862.712	21743
862.844	21759
862.976	21911
863.108	21846
863.24	22166
863.372	21667
863.504	21774
863.636	21884
863.768	21918
863.9	21766
864.032	21747
864.164	21660
864.296	21892
864.428	21934
864.559	21857
864.691	21778
864.823	21800
864.954	21747
865.086	21667
865.217	21694
865.349	21443
865.48	21675
865.612	21629
865.743	21793
865.875	21652
866.006	21606
866.137	21526
866.269	21656
866.4	21728
866.531	21507
866.662	21435
866.793	21576
866.924	21507
867.055	21648
867.186	21618
867.317	21587
867.448	21428
867.579	21523
867.71	21504
867.841	21504
867.972	21603
868.103	21420
868.233	21717
868.364	21492
868.495	21785
868.625	21793
868.756	21846
868.886	21682
869.017	21728
869.147	21842
869.278	21960
869.408	21922
869.539	21739
869.669	21819
869.799	21998
869.929	21785
870.06	21899
870.19	22268
870.32	22150
870.45	22207
870.58	22257
870.71	22379
870.84	22276
870.97	22154
871.1	22280
871.23	22402
871.36	22329
871.489	22249
871.619	22363
871.749	22402
871.879	22379
872.008	22405
872.138	22390
872.267	22440
872.397	22226
872.526	22234
872.656	22291
872.785	22219
872.915	22447
873.044	22504
873.173	22603
873.303	22493
873.432	22519
873.561	22451
873.69	22504
873.819	22436
873.948	22500
874.077	22481
874.206	22352
874.335	22413
874.464	22557
874.593	22626
874.722	22630
874.851	22592
874.979	22588
875.108	22596
875.237	22634
875.365	22478
875.494	22580
875.623	22615
875.751	22565
875.88	22580
876.008	22698
876.136	22778
876.265	22911
876.393	23227
876.521	23121
876.65	23147
876.778	23060
876.906	22904
877.034	22908
877.162	23018
877.29	22949
877.418	22934
877.546	23064
877.674	23014
877.802	23018
877.93	22946
878.058	22862
878.185	22805
878.313	22900
878.441	22896
878.568	22843
878.696	22953
878.824	23025
878.951	23136
879.079	23098
879.206	23235
879.333	23159
879.461	23018
879.588	23105
879.715	23041
879.842	23353
879.97	23124
880.097	22904
880.224	22869
880.351	22843
880.478	22786
880.605	22793
880.732	22809
880.859	22991
880.986	22877
881.112	22763
881.239	22782
881.366	22554
881.493	22512
881.619	22360
881.746	22421
881.872	22325
881.999	22280
882.125	22238
882.252	22474
882.378	22325
882.505	22470
882.631	22166
882.757	22048
882.883	22116
883.01	22040
883.136	22025
883.262	21876
883.388	21865
883.514	22036
883.64	22082
883.766	22036
883.892	21854
884.018	21781
884.143	21975
884.269	22070
884.395	21812
884.52	21842
884.646	21675
884.772	21599
884.897	21591
885.023	21797
885.148	21690
885.274	21842
885.399	21739
885.524	21667
885.65	21713
885.775	21759
885.9	21583
886.025	21808
886.15	21789
886.275	21686
886.4	21542
886.525	21797
886.65	21656
886.775	21652
886.9	21808
887.025	21880
887.149	21637
887.274	21492
887.399	21515
887.523	21458
887.648	21393
887.773	21298
887.897	21397
888.021	21526
888.146	21485
888.27	21523
888.395	21553
888.519	21549
888.643	21458
888.767	21538
888.891	21412
889.015	21241
889.139	21363
889.263	21260
889.387	21313
889.511	21485
889.635	21355
889.759	21203
889.883	21211
890.006	21329
890.13	21340
890.254	21165
890.377	21150
890.501	20948
890.624	20960
890.748	21116
890.871	20853
890.995	20872
891.118	20712
891.241	20773
891.364	20883
891.488	20914
891.611	20800
891.734	20838
891.857	20864
891.98	20819
892.103	20857
892.226	20765
892.349	20800
892.471	20625
892.594	20811
892.717	20769
892.839	20674
892.962	20758
893.085	20769
893.207	20667
893.33	20511
893.452	20549
893.575	20644
893.697	20640
893.819	20754
893.941	20826
894.064	20834
894.186	20549
894.308	20606
894.43	20800
894.552	20853
894.674	20777
894.796	20670
894.918	20693
895.04	20667
895.161	20743
895.283	20788
895.405	20621
895.526	20720
895.648	20541
895.769	20720
895.891	20689
896.012	20899
896.134	20819
896.255	20568
896.376	20606
896.498	20640
896.619	20682
896.74	20609
896.861	20792
896.982	21005
897.103	21096
897.224	20914
897.345	21009
897.466	20769
897.587	20880
897.708	20967
897.828	21024
897.949	20918
898.07	20739
898.19	20811
898.311	20967
898.431	20712
898.552	20895
898.672	20845
898.792	21051
898.913	20963
899.033	20750
899.153	20674
899.273	20545
899.393	20674
899.513	20564
899.633	20708
899.753	20670
899.873	20659
899.993	20609
900.113	20518
900.232	20648
900.352	20431
900.472	20389
900.591	20400
900.711	20271
900.83	20374
900.95	20621
901.069	20393
901.189	20218
901.308	19986
901.427	19887
901.546	19997
901.665	19898
901.784	19959
901.904	19837
902.023	19761
902.141	19666
902.26	19533
902.379	19571
902.498	19559
902.617	19506
902.735	19449
902.854	19438
902.973	19502
903.091	19171
903.21	19107
903.328	19103
903.446	18901
903.565	19019
903.683	18996
903.801	18833
903.919	18886
904.038	19000
904.156	18688
904.274	18707
904.392	18677
904.51	18658
904.627	18623
904.745	18612
904.863	18753
904.981	18555
905.098	18410
905.216	18254
905.334	18365
905.451	18346
905.569	18380
905.686	18456
905.803	18452
905.921	18205
906.038	18319
906.155	18224
906.272	18003
906.389	18091
906.506	18053
906.623	17912
906.74	17920
906.857	17863
906.974	17908
907.091	17992
907.208	18041
907.324	17885
907.441	17805
907.557	17596
907.674	17661
907.79	17493
907.907	17493
908.023	17608
908.139	17581
908.256	17589
908.372	17497
908.488	17490
908.604	17414
908.72	17322
908.836	17239
908.952	17345
909.068	17341
909.184	17459
909.3	17315
909.415	17345
909.531	17296
909.647	17014
909.762	17102
909.878	16980
909.993	17052
910.108	16980
910.224	16942
910.339	16976
910.454	16873
910.57	16919
910.685	16786
910.8	17010
910.915	17056
911.03	16748
911.145	16622
911.259	16637
911.374	16675
911.489	16519
911.604	16573
911.718	16440
911.833	16341
911.947	16226
912.062	16173
912.176	16363
912.291	16363
912.405	16382
912.519	16478
912.633	16478
912.748	16337
912.862	16318
912.976	16154
913.09	16044
913.204	16090
913.318	16238
913.431	16314
913.545	16223
913.659	16242
913.772	16078
913.886	16044
914	16013
914.113	16017
914.226	15941
914.34	15979
914.453	15793
914.566	16006
914.68	15854
914.793	15823
914.906	15679
915.019	15538
915.132	15530
915.245	15606
915.358	15591
915.47	15553
915.583	15526
915.696	15584
915.809	15682
915.921	15603
916.034	15561
916.146	15447
916.259	15397
916.371	15542
916.483	15511
916.595	15378
916.708	15325
916.82	15336
916.932	15317
917.044	15275
917.156	15306
917.268	15123
917.38	15165
917.491	15264
917.603	15123
917.715	15256
917.826	15332
917.938	15154
918.049	15020
918.161	15104
918.272	15195
918.384	15268
918.495	15070
918.606	14902
918.717	14899
918.828	14990
918.939	15039
919.05	14853
919.161	14845
919.272	14750
919.383	14765
919.494	14872
919.604	15150
919.715	14937
919.826	14750
919.936	14914
920.047	14971
920.157	14849
920.267	15032
920.378	14910
920.488	14914
920.598	15062
920.708	15207
920.818	15032
920.928	14994
921.038	15192
921.148	15131
921.258	14861
921.368	14758
921.477	14621
921.587	14651
921.697	14571
921.806	14651
921.916	14442
922.025	14320
922.134	14248
922.244	14111
922.353	14210
922.462	14248
922.571	14073
922.68	13879
922.789	13856
922.898	13955
923.007	13784
923.116	13963
923.224	13845
923.333	13803
923.442	13750
923.55	13651
923.659	13719
923.767	13769
923.876	13670
923.984	13696
924.092	13693
924.201	13693
924.309	13575
924.417	13681
924.525	13537
924.633	13609
924.741	14480
924.849	13400
924.956	13495
925.064	13358
925.172	13346
925.279	13228
925.387	13362
925.494	13289
925.602	13415
925.709	13350
925.816	13221
925.924	13194
926.031	13327
926.138	13259
926.245	13293
926.352	13072
926.459	13278
926.566	13263
926.673	13095
926.779	13091
926.886	13057
926.993	12825
927.099	12886
927.206	12787
927.312	12810
927.419	12924
927.525	12810
927.631	12878
927.737	12711
927.843	12734
927.95	12528
928.056	12745
928.162	12642
928.267	12734
928.373	13190
928.479	12749
928.585	12479
928.69	12563
928.796	12604
928.901	12513
929.007	12407
929.112	12475
929.218	12490
929.323	12429
929.428	12277
929.533	12483
929.638	12296
929.743	12327
929.848	12418
929.953	12346
930.058	12228
930.163	12083
930.267	12068
930.372	12213
930.477	12079
930.581	12239
930.685	12079
930.79	11923
930.894	11923
930.998	11942
931.103	12026
931.207	11665
931.311	11600
931.415	11436
931.519	11296
931.623	11280
