Data from test_V78500241_2356.txt Node
Date: Fri Mar 25 15:26:15 CST 2022
User: usil
Spectrometer: V785-0024
Trigger mode: 0
Integration Time (sec): 4.000000E-1
Scans to average: 1
Nonlinearity correction enabled: false
Boxcar width: 0
Storing dark spectrum: false
XAxis mode: Wavelengths
Number of Pixels in Spectrum: 1024
>>>>>Begin Spectral Data<<<<<
801.071	27412
801.214	27466
801.356	27211
801.499	27104
801.641	26982
801.783	26925
801.926	27093
802.068	27028
802.211	26921
802.353	26891
802.496	26655
802.638	26705
802.78	26560
802.923	26625
803.065	26503
803.208	26556
803.35	26594
803.492	26743
803.635	26963
803.777	26640
803.919	26800
804.061	27024
804.204	26845
804.346	26868
804.488	26640
804.63	26792
804.773	26716
804.915	26838
805.057	27032
805.199	26693
805.341	26792
805.483	26963
805.626	26845
805.768	26693
805.91	26811
806.052	26887
806.194	26899
806.336	27089
806.478	26800
806.62	26914
806.762	27028
806.904	27150
807.046	27427
807.188	27336
807.33	27344
807.472	27283
807.614	27310
807.756	27340
807.898	27127
808.04	27192
808.182	27093
808.324	27150
808.465	27207
808.607	27386
808.749	27458
808.891	27553
809.033	27717
809.174	27488
809.316	27435
809.458	27507
809.6	27450
809.741	27637
809.883	27557
810.025	27819
810.166	27804
810.308	27625
810.45	27739
810.591	27682
810.733	27469
810.875	27466
811.016	27408
811.158	27401
811.299	27538
811.441	27618
811.582	27675
811.724	27466
811.865	27477
812.007	27450
812.148	27462
812.29	27374
812.431	27701
812.573	27827
812.714	27949
812.855	27975
812.997	28082
813.138	28120
813.279	28109
813.421	28040
813.562	27876
813.703	27774
813.845	27622
813.986	27427
814.127	27359
814.268	27264
814.41	27176
814.551	27161
814.692	27268
814.833	27058
814.974	27119
815.115	27268
815.256	27066
815.397	27024
815.539	27093
815.68	26762
815.821	26887
815.962	26948
816.103	26933
816.244	26762
816.385	26629
816.526	26758
816.666	26480
816.807	26214
816.948	26457
817.089	26549
817.23	26453
817.371	26533
817.512	26415
817.653	26358
817.793	26423
817.934	26503
818.075	26374
818.216	26499
818.356	26195
818.497	26199
818.638	26088
818.778	26248
818.919	26176
819.06	26142
819.2	26237
819.341	26381
819.481	26484
819.622	26598
819.762	26720
819.903	26773
820.043	26533
820.184	26545
820.324	26522
820.465	26674
820.605	26583
820.746	26480
820.886	26419
821.026	26511
821.167	26461
821.307	26590
821.447	26404
821.588	26355
821.728	26237
821.868	26069
822.008	25894
822.149	25868
822.289	25856
822.429	25666
822.569	25514
822.709	25594
822.849	25464
822.99	25411
823.13	25407
823.27	25316
823.41	25217
823.55	25084
823.69	25316
823.83	25232
823.97	25141
824.11	24916
824.25	25099
824.389	25012
824.529	25095
824.669	25004
824.809	25156
824.949	25194
825.089	25156
825.228	25046
825.368	24719
825.508	25015
825.648	24954
825.787	24814
825.927	24901
826.067	24795
826.206	24878
826.346	25019
826.485	24935
826.625	24859
826.765	24924
826.904	24924
827.044	24616
827.183	24821
827.323	24532
827.462	24738
827.601	24502
827.741	24646
827.88	24654
828.02	24479
828.159	24582
828.298	24574
828.437	24608
828.577	24578
828.716	24894
828.855	24521
828.994	24239
829.134	24300
829.273	24338
829.412	24243
829.551	24239
829.69	24365
829.829	24296
829.968	24456
830.107	24403
830.246	24361
830.385	24273
830.524	24270
830.663	24152
830.802	24171
830.941	23920
831.08	23916
831.219	24003
831.357	24098
831.496	24228
831.635	23942
831.774	23977
831.913	23794
832.051	23699
832.19	23752
832.329	23786
832.467	23642
832.606	23642
832.744	23535
832.883	23547
833.022	23570
833.16	23676
833.299	23623
833.437	23627
833.576	23646
833.714	23714
833.852	23668
833.991	23691
834.129	23714
834.267	23790
834.406	23855
834.544	23680
834.682	23783
834.821	23687
834.959	23920
835.097	23771
835.235	23775
835.373	23752
835.511	23684
835.65	23562
835.788	23520
835.926	23429
836.064	23273
836.202	23440
836.34	23490
836.478	23493
836.615	23490
836.753	23528
836.891	23699
837.029	23638
837.167	23512
837.305	23444
837.443	23406
837.58	23398
837.718	23463
837.856	23406
837.993	23318
838.131	23391
838.269	23273
838.406	23330
838.544	23220
838.681	23048
838.819	23159
838.956	22862
839.094	22889
839.231	22824
839.369	23025
839.506	23258
839.643	23003
839.781	22790
839.918	22767
840.055	22748
840.193	22694
840.33	22752
840.467	22759
840.604	22790
840.742	22984
840.879	22550
841.016	22675
841.153	22592
841.29	22816
841.427	22725
841.564	22748
841.701	22744
841.838	22733
841.975	22733
842.112	22656
842.249	22535
842.385	22512
842.522	22683
842.659	22592
842.796	22596
842.933	22493
843.069	22557
843.206	22577
843.343	22417
843.479	22523
843.616	22512
843.752	22287
843.889	22329
844.025	22493
844.162	22215
844.298	22322
844.435	22219
844.571	22253
844.708	22436
844.844	22413
844.98	22459
845.117	22455
845.253	22219
845.389	22185
845.525	22192
845.661	22173
845.798	22253
845.934	22112
846.07	21994
846.206	22044
846.342	22272
846.478	22067
846.614	21831
846.75	21675
846.886	21705
847.022	21812
847.158	21804
847.294	21804
847.429	21766
847.565	21717
847.701	22025
847.837	21477
847.972	21496
848.108	21622
848.244	21576
848.379	21393
848.515	21443
848.65	21214
848.786	21310
848.921	21321
849.057	21523
849.192	21439
849.328	21351
849.463	21431
849.598	21306
849.734	21184
849.869	21214
850.004	21055
850.14	21230
850.275	21062
850.41	20994
850.545	21032
850.68	21135
850.815	21146
850.95	21195
851.085	21176
851.22	21142
851.355	21146
851.49	21119
851.625	21165
851.76	21093
851.895	21036
852.03	21051
852.165	21051
852.299	21058
852.434	21051
852.569	21237
852.703	21112
852.838	21123
852.973	21188
853.107	21256
853.242	20982
853.376	20979
853.511	20792
853.645	20933
853.78	21039
853.914	20937
854.048	20933
854.183	21001
854.317	20918
854.451	21096
854.585	20910
854.72	20960
854.854	21142
854.988	20910
855.122	20929
855.256	20819
855.39	20963
855.524	21062
855.658	20868
855.792	21043
855.926	20975
856.06	20986
856.194	20998
856.327	20956
856.461	20921
856.595	20823
856.729	20986
856.862	21108
856.996	20883
857.13	20952
857.263	20948
857.397	21169
857.53	20948
857.664	21081
857.797	21013
857.931	21074
858.064	20937
858.197	21013
858.331	20986
858.464	20960
858.597	20944
858.731	20880
858.864	20948
858.997	20796
859.13	20960
859.263	21028
859.396	21039
859.529	20842
859.662	20979
859.795	20925
859.928	20937
860.061	21180
860.194	21077
860.327	20982
860.46	20925
860.592	21024
860.725	21070
860.858	21062
860.99	20918
861.123	20819
861.256	20826
861.388	20979
861.521	21382
861.653	20834
861.786	20625
861.918	20857
862.05	20921
862.183	20868
862.315	20925
862.447	20918
862.58	20868
862.712	20629
862.844	20583
862.976	20819
863.108	20644
863.24	21218
863.372	20693
863.504	20625
863.636	20682
863.768	20697
863.9	20701
864.032	20541
864.164	20545
864.296	20651
864.428	20712
864.559	20705
864.691	20743
864.823	20716
864.954	20644
865.086	20568
865.217	20587
865.349	20469
865.48	20644
865.612	20564
865.743	20769
865.875	20590
866.006	20530
866.137	20511
866.269	20507
866.4	20526
866.531	20415
866.662	20332
866.793	20396
866.924	20533
867.055	20415
867.186	20545
867.317	20488
867.448	20336
867.579	20473
867.71	20427
867.841	20476
867.972	20613
868.103	20511
868.233	20431
868.364	20450
868.495	20571
868.625	20686
868.756	20781
868.886	20712
869.017	20644
869.147	20883
869.278	20800
869.408	20769
869.539	20777
869.669	20758
869.799	20804
869.929	20899
870.06	20804
870.19	21131
870.32	21036
870.45	21085
870.58	21188
870.71	21241
870.84	21230
870.97	21104
871.1	21161
871.23	21211
871.36	21294
871.489	21241
871.619	21287
871.749	21447
871.879	21382
872.008	21469
872.138	21325
872.267	21291
872.397	21085
872.526	21188
872.656	21203
872.785	21131
872.915	21431
873.044	21431
873.173	21317
873.303	21462
873.432	21412
873.561	21473
873.69	21386
873.819	21351
873.948	21386
874.077	21386
874.206	21313
874.335	21302
874.464	21496
874.593	21511
874.722	21511
874.851	21705
874.979	21618
875.108	21606
875.237	21553
875.365	21511
875.494	21553
875.623	21667
875.751	21538
875.88	21545
876.008	21705
876.136	21701
876.265	21930
876.393	22143
876.521	22074
876.65	22029
876.778	21998
876.906	22063
877.034	21876
877.162	21941
877.29	21861
877.418	21922
877.546	22002
877.674	21983
877.802	21861
877.93	22017
878.058	21941
878.185	21846
878.313	21975
878.441	21930
878.568	21781
878.696	21793
878.824	22006
878.951	22086
879.079	22215
879.206	22265
879.333	22173
879.461	21945
879.588	22048
879.715	22116
879.842	22207
879.97	21991
880.097	21785
880.224	21732
880.351	21724
880.478	21838
880.605	21728
880.732	21671
880.859	22048
880.986	21682
881.112	21736
881.239	21686
881.366	21641
881.493	21542
881.619	21283
881.746	21397
881.872	21370
881.999	21135
882.125	21252
882.252	21450
882.378	21363
882.505	21542
882.631	21260
882.757	21032
882.883	21032
883.01	21051
883.136	20925
883.262	20941
883.388	20861
883.514	21013
883.64	21005
883.766	20895
883.892	20838
884.018	20781
884.143	20979
884.269	21074
884.395	20754
884.52	20727
884.646	20746
884.772	20651
884.897	20762
885.023	20659
885.148	20762
885.274	20910
885.399	20853
885.524	20720
885.65	20712
885.775	20644
885.9	20632
886.025	20769
886.15	20765
886.275	20693
886.4	20617
886.525	20678
886.65	20644
886.775	20644
886.9	20720
887.025	20891
887.149	20533
887.274	20492
887.399	20454
887.523	20377
887.648	20469
887.773	20339
887.897	20552
888.021	20571
888.146	20415
888.27	20507
888.395	20602
888.519	20438
888.643	20480
888.767	20507
888.891	20298
889.015	20259
889.139	20381
889.263	20343
889.387	20377
889.511	20408
889.635	20400
889.759	20183
889.883	20294
890.006	20248
890.13	20374
890.254	20199
890.377	20195
890.501	20107
890.624	20077
890.748	20210
890.871	19894
890.995	19830
891.118	19795
891.241	19788
891.364	19894
891.488	19864
891.611	19906
891.734	19845
891.857	19864
891.98	19814
892.103	19925
892.226	19959
892.349	19791
892.471	19605
892.594	19860
892.717	19769
892.839	19734
892.962	19734
893.085	19860
893.207	19826
893.33	19757
893.452	19727
893.575	19864
893.697	19856
893.819	19807
893.941	19963
894.064	19955
894.186	19674
894.308	19693
894.43	19894
894.552	19906
894.674	19871
894.796	19658
894.918	19651
895.04	19757
895.161	19757
895.283	19746
895.405	19616
895.526	19849
895.648	19750
895.769	19674
895.891	19769
896.012	19807
896.134	19784
896.255	19776
896.376	19799
896.498	19753
896.619	19822
896.74	19670
896.861	19841
896.982	20199
897.103	20271
897.224	19982
897.345	19917
897.466	19947
897.587	20020
897.708	20142
897.828	19921
897.949	19928
898.07	19833
898.19	19864
898.311	20058
898.431	19841
898.552	20035
898.672	19989
898.792	20180
898.913	20062
899.033	19788
899.153	19849
899.273	19734
899.393	19723
899.513	19677
899.633	19746
899.753	19738
899.873	19723
899.993	19776
900.113	19803
900.232	19681
900.352	19635
900.472	19643
900.591	19521
900.711	19506
900.83	19548
900.95	19624
901.069	19609
901.189	19434
901.308	19148
901.427	19126
901.546	19209
901.665	19091
901.784	19156
901.904	19072
902.023	18909
902.141	18703
902.26	18703
902.379	18757
902.498	18627
902.617	18582
902.735	18677
902.854	18642
902.973	18566
903.091	18209
903.21	18232
903.328	18361
903.446	18251
903.565	18197
903.683	18076
903.801	17897
903.919	18034
904.038	18068
904.156	17908
904.274	17996
904.392	17832
904.51	17908
904.627	17980
904.745	17946
904.863	17958
904.981	17707
905.098	17547
905.216	17676
905.334	17668
905.451	17554
905.569	17589
905.686	17581
905.803	17554
905.921	17353
906.038	17410
906.155	17414
906.272	17364
906.389	17326
906.506	17159
906.623	17204
906.74	17075
906.857	16911
906.974	17029
907.091	17204
907.208	17197
907.324	17220
907.441	17102
907.557	16896
907.674	16908
907.79	16729
907.907	16847
908.023	16843
908.139	16866
908.256	16862
908.372	16649
908.488	16668
908.604	16535
908.72	16565
908.836	16611
908.952	16352
909.068	16626
909.184	16550
909.3	16561
909.415	16615
909.531	16527
909.647	16299
909.762	16329
909.878	16310
909.993	16337
910.108	16234
910.224	16173
910.339	16124
910.454	16071
910.57	16071
910.685	15960
910.8	16238
910.915	16276
911.03	16093
911.145	15918
911.259	15797
911.374	15774
911.489	15827
911.604	15793
911.718	15618
911.833	15671
911.947	15576
912.062	15416
912.176	15530
912.291	15580
912.405	15603
912.519	15713
912.633	15698
912.748	15698
912.862	15599
912.976	15454
913.09	15397
913.204	15496
913.318	15469
913.431	15591
913.545	15405
913.659	15568
913.772	15431
913.886	15241
914	15256
914.113	15321
914.226	15283
914.34	15279
914.453	15135
914.566	15260
914.68	15233
914.793	15127
914.906	14857
915.019	14849
915.132	14880
915.245	14792
915.358	14895
915.47	14826
915.583	14895
915.696	14948
915.809	15020
915.921	14963
916.034	14708
916.146	14720
916.259	14686
916.371	14811
916.483	14720
916.595	14689
916.708	14750
916.82	14659
916.932	14629
917.044	14613
917.156	14644
917.268	14514
917.38	14613
917.491	14495
917.603	14503
917.715	14552
917.826	14541
917.938	14476
918.049	14267
918.161	14488
918.272	14674
918.384	14583
918.495	14507
918.606	14225
918.717	14153
918.828	14324
918.939	14282
919.05	14210
919.161	14237
919.272	14035
919.383	14111
919.494	14355
919.604	14457
919.715	14221
919.826	14157
919.936	14256
920.047	14271
920.157	14225
920.267	14370
920.378	14271
920.488	14199
920.598	14427
920.708	14492
920.818	14377
920.928	14366
921.038	14473
921.148	14518
921.258	14252
921.368	14096
921.477	14005
921.587	13986
921.697	13955
921.806	13955
921.916	13822
922.025	13590
922.134	13677
922.244	13613
922.353	13651
922.462	13609
922.571	13426
922.68	13285
922.789	13304
922.898	13373
923.007	13266
923.116	13270
923.224	13274
923.333	13217
923.442	13141
923.55	13065
923.659	13183
923.767	13202
923.876	13072
923.984	13126
924.092	12962
924.201	13126
924.309	12973
924.417	13027
924.525	12947
924.633	12939
924.741	13887
924.849	12776
924.956	12951
925.064	12795
925.172	12589
925.279	12734
925.387	12787
925.494	12669
925.602	12791
925.709	12768
925.816	12692
925.924	12631
926.031	12711
926.138	12669
926.245	12753
926.352	12544
926.459	12719
926.566	12719
926.673	12521
926.779	12448
926.886	12506
926.993	12311
927.099	12319
927.206	12270
927.312	12209
927.419	12346
927.525	12330
927.631	12334
927.737	12110
927.843	12224
927.95	12026
928.056	12144
928.162	12079
928.267	12201
928.373	12631
928.479	12114
928.585	11984
928.69	12117
928.796	12057
928.901	11984
929.007	11840
929.112	11950
929.218	11939
929.323	11882
929.428	11870
929.533	12060
929.638	11840
929.743	11813
929.848	11722
929.953	11851
930.058	11668
930.163	11596
930.267	11657
930.372	11657
930.477	11604
930.581	11737
930.685	11729
930.79	11452
930.894	11467
930.998	11425
931.103	11524
931.207	11277
931.311	11105
931.415	11124
931.519	10847
931.623	10854
