Data from test_V78500241_1547.txt Node
Date: Fri Mar 25 15:20:37 CST 2022
User: usil
Spectrometer: V785-0024
Trigger mode: 0
Integration Time (sec): 4.000000E-1
Scans to average: 1
Nonlinearity correction enabled: false
Boxcar width: 0
Storing dark spectrum: false
XAxis mode: Wavelengths
Number of Pixels in Spectrum: 1024
>>>>>Begin Spectral Data<<<<<
801.071	27857
801.214	27713
801.356	27583
801.499	27310
801.641	27287
801.783	27420
801.926	27321
802.068	27313
802.211	27249
802.353	27154
802.496	27146
802.638	27047
802.78	26929
802.923	26773
803.065	26842
803.208	26994
803.35	26986
803.492	27146
803.635	27233
803.777	27218
803.919	27233
804.061	27576
804.204	27180
804.346	27138
804.488	27112
804.63	27233
804.773	26986
804.915	27199
805.057	27233
805.199	27116
805.341	27138
805.483	27230
805.626	27363
805.768	27173
805.91	27336
806.052	27302
806.194	27188
806.336	27538
806.478	27348
806.62	27272
806.762	27450
806.904	27458
807.046	27800
807.188	27675
807.33	27701
807.472	27709
807.614	27515
807.756	27622
807.898	27439
808.04	27526
808.182	27599
808.324	27507
808.465	27580
808.607	27800
808.749	28082
808.891	27987
809.033	28086
809.174	28067
809.316	27876
809.458	27873
809.6	27930
809.741	28101
809.883	28063
810.025	28173
810.166	28356
810.308	28223
810.45	28090
810.591	28059
810.733	28025
810.875	28013
811.016	27838
811.158	27698
811.299	27968
811.441	27991
811.582	27956
811.724	27823
811.865	27865
812.007	27880
812.148	28010
812.29	27880
812.431	28082
812.573	28188
812.714	28367
812.855	28424
812.997	28535
813.138	28713
813.279	28474
813.421	28462
813.562	28363
813.703	28284
813.845	28078
813.986	27838
814.127	27766
814.268	27644
814.41	27682
814.551	27610
814.692	27561
814.833	27675
814.974	27660
815.115	27542
815.256	27568
815.397	27496
815.539	27504
815.68	27416
815.821	27279
815.962	27454
816.103	27504
816.244	27233
816.385	27184
816.526	27226
816.666	26910
816.807	26921
816.948	26914
817.089	27009
817.23	27024
817.371	26937
817.512	26910
817.653	26864
817.793	26781
817.934	26887
818.075	26971
818.216	26872
818.356	26765
818.497	26667
818.638	26636
818.778	26632
818.919	26678
819.06	26651
819.2	26788
819.341	26857
819.481	26826
819.622	27142
819.762	27112
819.903	27089
820.043	26982
820.184	26963
820.324	27028
820.465	27176
820.605	27077
820.746	27005
820.886	27028
821.026	26918
821.167	26944
821.307	26963
821.447	26899
821.588	26925
821.728	26811
821.868	26522
822.008	26442
822.149	26336
822.289	26286
822.429	26062
822.569	26069
822.709	25978
822.849	25803
822.99	25921
823.13	25906
823.27	25708
823.41	25597
823.55	25502
823.69	25753
823.83	25731
823.97	25597
824.11	25373
824.25	25426
824.389	25457
824.529	25567
824.669	25476
824.809	25529
824.949	25548
825.089	25438
825.228	25476
825.368	25331
825.508	25441
825.648	25240
825.787	25369
825.927	25343
826.067	25415
826.206	25388
826.346	25506
826.485	25449
826.625	25365
826.765	25449
826.904	25415
827.044	25072
827.183	25148
827.323	24989
827.462	25034
827.601	25118
827.741	25000
827.88	25145
828.02	24962
828.159	25137
828.298	25031
828.437	25183
828.577	25156
828.716	25057
828.855	24996
828.994	24757
829.134	24810
829.273	24882
829.412	24722
829.551	24544
829.69	24711
829.829	24745
829.968	24897
830.107	24810
830.246	24669
830.385	24601
830.524	24525
830.663	24505
830.802	24517
830.941	24418
831.08	24395
831.219	24528
831.357	24441
831.496	24715
831.635	24475
831.774	24308
831.913	24277
832.051	24041
832.19	24197
832.329	24087
832.467	23980
832.606	24106
832.744	24060
832.883	24045
833.022	24064
833.16	24106
833.299	24152
833.437	24190
833.576	24034
833.714	24087
833.852	24136
833.991	24190
834.129	24133
834.267	24205
834.406	24030
834.544	24136
834.682	24213
834.821	24076
834.959	24209
835.097	23984
835.235	24174
835.373	24041
835.511	24068
835.65	23984
835.788	23980
835.926	23840
836.064	23847
836.202	23882
836.34	23855
836.478	23920
836.615	23809
836.753	23878
836.891	24163
837.029	23988
837.167	24003
837.305	23756
837.443	23805
837.58	23805
837.718	23882
837.856	23790
837.993	23752
838.131	23680
838.269	23623
838.406	23707
838.544	23558
838.681	23478
838.819	23395
838.956	23250
839.094	23227
839.231	23200
839.369	23364
839.506	23649
839.643	23471
839.781	23334
839.918	23151
840.055	23318
840.193	23155
840.33	23128
840.467	23200
840.604	23109
840.742	23353
840.879	23060
841.016	23071
841.153	23044
841.29	23269
841.427	23128
841.564	23197
841.701	23273
841.838	23151
841.975	22919
842.112	22965
842.249	22869
842.385	22869
842.522	23071
842.659	22896
842.796	22881
842.933	22934
843.069	22984
843.206	22889
843.343	22946
843.479	22908
843.616	23044
843.752	22763
843.889	22683
844.025	22866
844.162	22618
844.298	22717
844.435	22656
844.571	22630
844.708	22683
844.844	22889
844.98	22782
845.117	22850
845.253	22580
845.389	22721
845.525	22664
845.661	22478
845.798	22455
845.934	22466
846.07	22409
846.206	22443
846.342	22500
846.478	22481
846.614	22128
846.75	22010
846.886	22059
847.022	22211
847.158	22169
847.294	22128
847.429	22086
847.565	22025
847.701	22356
847.837	21895
847.972	21831
848.108	21956
848.244	21972
848.379	21770
848.515	21728
848.65	21682
848.786	21835
848.921	21701
849.057	21800
849.192	21846
849.328	21857
849.463	21804
849.598	21663
849.734	21614
849.869	21686
850.004	21519
850.14	21519
850.275	21526
850.41	21378
850.545	21500
850.68	21469
850.815	21561
850.95	21557
851.085	21671
851.22	21603
851.355	21564
851.49	21545
851.625	21561
851.76	21507
851.895	21469
852.03	21374
852.165	21603
852.299	21542
852.434	21618
852.569	21542
852.703	21481
852.838	21424
852.973	21622
853.107	21736
853.242	21382
853.376	21336
853.511	21142
853.645	21428
853.78	21416
853.914	21416
854.048	21428
854.183	21416
854.317	21431
854.451	21481
854.585	21340
854.72	21462
854.854	21355
854.988	21298
855.122	21298
855.256	21260
855.39	21298
855.524	21363
855.658	21397
855.792	21336
855.926	21367
856.06	21389
856.194	21397
856.327	21321
856.461	21222
856.595	21214
856.729	21214
856.862	21420
856.996	21393
857.13	21405
857.263	21454
857.397	21382
857.53	21256
857.664	21378
857.797	21500
857.931	21469
858.064	21363
858.197	21542
858.331	21382
858.464	21264
858.597	21279
858.731	21310
858.864	21214
858.997	21321
859.13	21313
859.263	21332
859.396	21447
859.529	21116
859.662	21241
859.795	21176
859.928	21321
860.061	21466
860.194	21523
860.327	21454
860.46	21272
860.592	21523
860.725	21526
860.858	21496
860.99	21401
861.123	21298
861.256	21363
861.388	21294
861.521	21953
861.653	21169
861.786	21138
861.918	21226
862.05	21249
862.183	21252
862.315	21237
862.447	21310
862.58	21188
862.712	21062
862.844	21089
862.976	21089
863.108	21017
863.24	21450
863.372	20963
863.504	21188
863.636	20963
863.768	21017
863.9	21096
864.032	20906
864.164	20960
864.296	21024
864.428	21135
864.559	21108
864.691	21043
864.823	21070
864.954	21074
865.086	20975
865.217	20899
865.349	20891
865.48	20891
865.612	20906
865.743	21161
865.875	20910
866.006	20777
866.137	20811
866.269	20895
866.4	20933
866.531	20960
866.662	20716
866.793	20838
866.924	20895
867.055	20952
867.186	20944
867.317	20815
867.448	20735
867.579	20902
867.71	20792
867.841	20697
867.972	20899
868.103	20910
868.233	20918
868.364	20853
868.495	20914
868.625	21066
868.756	21291
868.886	21085
869.017	21195
869.147	21195
869.278	21233
869.408	21157
869.539	21154
869.669	21230
869.799	21176
869.929	21192
870.06	21146
870.19	21329
870.32	21355
870.45	21382
870.58	21416
870.71	21553
870.84	21743
870.97	21443
871.1	21454
871.23	21652
871.36	21701
871.489	21622
871.619	21778
871.749	21720
871.879	21724
872.008	21831
872.138	21797
872.267	21717
872.397	21648
872.526	21477
872.656	21576
872.785	21561
872.915	21759
873.044	21793
873.173	21728
873.303	21827
873.432	21789
873.561	21785
873.69	21720
873.819	21667
873.948	21816
874.077	21797
874.206	21580
874.335	21747
874.464	21770
874.593	22010
874.722	21823
874.851	22029
874.979	22006
875.108	22067
875.237	21937
875.365	21979
875.494	21964
875.623	21956
875.751	21987
875.88	22029
876.008	22010
876.136	22097
876.265	22371
876.393	22440
876.521	22375
876.65	22436
876.778	22367
876.906	22337
877.034	22333
877.162	22192
877.29	22219
877.418	22246
877.546	22268
877.674	22303
877.802	22341
877.93	22265
878.058	22185
878.185	22268
878.313	22253
878.441	22367
878.568	22131
878.696	22192
878.824	22268
878.951	22440
879.079	22371
879.206	22580
879.333	22440
879.461	22341
879.588	22424
879.715	22428
879.842	22622
879.97	22382
880.097	22219
880.224	22124
880.351	22154
880.478	22067
880.605	22143
880.732	22036
880.859	22375
880.986	22188
881.112	22124
881.239	21907
881.366	21827
881.493	21827
881.619	21663
881.746	21709
881.872	21690
881.999	21728
882.125	21572
882.252	21778
882.378	21667
882.505	21781
882.631	21481
882.757	21302
882.883	21496
883.01	21412
883.136	21329
883.262	21294
883.388	21218
883.514	21401
883.64	21428
883.766	21336
883.892	21161
884.018	21203
884.143	21287
884.269	21389
884.395	21218
884.52	21001
884.646	21070
884.772	20929
884.897	20986
885.023	21154
885.148	21116
885.274	21188
885.399	21138
885.524	21051
885.65	21058
885.775	21123
885.9	21131
886.025	21085
886.15	21028
886.275	20929
886.4	20963
886.525	20944
886.65	20986
886.775	20952
886.9	21119
887.025	21214
887.149	21055
887.274	20785
887.399	20842
887.523	20785
887.648	20754
887.773	20682
887.897	20902
888.021	20895
888.146	20720
888.27	20956
888.395	20929
888.519	20948
888.643	20861
888.767	20864
888.891	20689
889.015	20598
889.139	20621
889.263	20575
889.387	20720
889.511	20716
889.635	20678
889.759	20575
889.883	20602
890.006	20537
890.13	20667
890.254	20503
890.377	20541
890.501	20431
890.624	20240
890.748	20358
890.871	20259
890.995	20225
891.118	20084
891.241	20126
891.364	20172
891.488	20301
891.611	20221
891.734	20229
891.857	20320
891.98	20092
892.103	20187
892.226	20145
892.349	20111
892.471	20024
892.594	20012
892.717	20130
892.839	20054
892.962	20206
893.085	20107
893.207	19925
893.33	20008
893.452	19986
893.575	20218
893.697	19993
893.819	20180
893.941	20244
894.064	20145
894.186	19982
894.308	19845
894.43	20138
894.552	20122
894.674	20065
894.796	19845
894.918	20016
895.04	19993
895.161	20111
895.283	20058
895.405	19890
895.526	19974
895.648	19936
895.769	20062
895.891	20229
896.012	20240
896.134	20115
896.255	20126
896.376	20111
896.498	20058
896.619	19978
896.74	19986
896.861	20218
896.982	20423
897.103	20457
897.224	20301
897.345	20286
897.466	20153
897.587	20218
897.708	20393
897.828	20362
897.949	20271
898.07	20062
898.19	20199
898.311	20336
898.431	20081
898.552	20195
898.672	20271
898.792	20355
898.913	20305
899.033	20282
899.153	20050
899.273	19978
899.393	20073
899.513	20062
899.633	20065
899.753	20157
899.873	19967
899.993	20065
900.113	19978
900.232	20054
900.352	19890
900.472	19845
900.591	19818
900.711	19849
900.83	19772
900.95	19864
901.069	19841
901.189	19803
901.308	19415
901.427	19365
901.546	19232
901.665	19339
901.784	19540
901.904	19236
902.023	19274
902.141	18909
902.26	18996
902.379	18989
902.498	18817
902.617	18909
902.735	19015
902.854	18916
902.973	18833
903.091	18604
903.21	18589
903.328	18612
903.446	18479
903.565	18437
903.683	18395
903.801	18262
903.919	18319
904.038	18216
904.156	18243
904.274	18338
904.392	18144
904.51	18243
904.627	18197
904.745	18098
904.863	18262
904.981	17878
905.098	17771
905.216	17885
905.334	17878
905.451	17767
905.569	17714
905.686	17923
905.803	17935
905.921	17570
906.038	17596
906.155	17726
906.272	17615
906.389	17509
906.506	17379
906.623	17360
906.74	17383
906.857	17322
906.974	17334
907.091	17433
907.208	17539
907.324	17353
907.441	17296
907.557	17143
907.674	17109
907.79	17052
907.907	17003
908.023	17143
908.139	17006
908.256	17037
908.372	17079
908.488	16923
908.604	16862
908.72	16698
908.836	16809
908.952	16812
909.068	16767
909.184	16869
909.3	16706
909.415	16793
909.531	16858
909.647	16527
909.762	16542
909.878	16405
909.993	16500
910.108	16592
910.224	16592
910.339	16413
910.454	16424
910.57	16299
910.685	16265
910.8	16565
910.915	16451
911.03	16382
911.145	16143
911.259	16086
911.374	16143
911.489	16082
911.604	15899
911.718	15838
911.833	15831
911.947	15747
912.062	15675
912.176	15804
912.291	15857
912.405	15827
912.519	15964
912.633	16013
912.748	15903
912.862	15785
912.976	15724
913.09	15603
913.204	15652
913.318	15648
913.431	15743
913.545	15739
913.659	15755
913.772	15606
913.886	15511
914	15488
914.113	15504
914.226	15610
914.34	15492
914.453	15306
914.566	15485
914.68	15317
914.793	15351
914.906	15119
915.019	15119
915.132	14952
915.245	15138
915.358	15077
915.47	15093
915.583	15157
915.696	15127
915.809	15161
915.921	15329
916.034	15017
916.146	14883
916.259	14967
916.371	15070
916.483	15085
916.595	14899
916.708	14838
916.82	14921
916.932	14864
917.044	14781
917.156	14842
917.268	14686
917.38	14735
917.491	14712
917.603	14777
917.715	14739
917.826	14838
917.938	14632
918.049	14526
918.161	14686
918.272	14788
918.384	14743
918.495	14583
918.606	14564
918.717	14396
918.828	14514
918.939	14530
919.05	14412
919.161	14446
919.272	14248
919.383	14362
919.494	14617
919.604	14598
919.715	14457
919.826	14450
919.936	14484
920.047	14473
920.157	14377
920.267	14701
920.378	14503
920.488	14408
920.598	14537
920.708	14663
920.818	14629
920.928	14579
921.038	14727
921.148	14701
921.258	14381
921.368	14278
921.477	14168
921.587	14202
921.697	14111
921.806	14233
921.916	14062
922.025	13959
922.134	13826
922.244	13814
922.353	13875
922.462	13772
922.571	13674
922.68	13563
922.789	13487
922.898	13472
923.007	13445
923.116	13521
923.224	13445
923.333	13476
923.442	13312
923.55	13308
923.659	13350
923.767	13346
923.876	13270
923.984	13255
924.092	13168
924.201	13206
924.309	13194
924.417	13221
924.525	13099
924.633	13118
924.741	13947
924.849	12973
924.956	13099
925.064	12973
925.172	12867
925.279	12890
925.387	12901
925.494	12863
925.602	13076
925.709	13019
925.816	12802
925.924	12905
926.031	12909
926.138	12859
926.245	12844
926.352	12772
926.459	12901
926.566	12840
926.673	12787
926.779	12681
926.886	12677
926.993	12536
927.099	12464
927.206	12372
927.312	12388
927.419	12479
927.525	12475
927.631	12448
927.737	12369
927.843	12254
927.95	12194
928.056	12289
928.162	12338
928.267	12315
928.373	12916
928.479	12353
928.585	12114
928.69	12243
928.796	12178
928.901	12114
929.007	11950
929.112	12194
929.218	12098
929.323	12083
929.428	12057
929.533	12053
929.638	11965
929.743	11946
929.848	11980
929.953	11950
930.058	11893
930.163	11672
930.267	11653
930.372	11805
930.477	11722
930.581	11920
930.685	11786
930.79	11589
930.894	11665
930.998	11554
931.103	11741
931.207	11318
931.311	11254
931.415	11197
931.519	10976
931.623	10923
