Data from test_V78500241_180.txt Node
Date: Fri Mar 25 15:11:06 CST 2022
User: usil
Spectrometer: V785-0024
Trigger mode: 0
Integration Time (sec): 4.000000E-1
Scans to average: 1
Nonlinearity correction enabled: false
Boxcar width: 0
Storing dark spectrum: false
XAxis mode: Wavelengths
Number of Pixels in Spectrum: 1024
>>>>>Begin Spectral Data<<<<<
801.071	27386
801.214	27488
801.356	27001
801.499	27184
801.641	27070
801.783	27009
801.926	27017
802.068	26990
802.211	26792
802.353	26785
802.496	26674
802.638	26606
802.78	26663
802.923	26526
803.065	26442
803.208	26469
803.35	26518
803.492	26469
803.635	26716
803.777	26533
803.919	26667
804.061	27032
804.204	26587
804.346	26606
804.488	26446
804.63	26533
804.773	26347
804.915	26484
805.057	26552
805.199	26564
805.341	26583
805.483	26636
805.626	26663
805.768	26636
805.91	26587
806.052	26758
806.194	26594
806.336	26868
806.478	26743
806.62	26533
806.762	26861
806.904	26815
807.046	27066
807.188	26944
807.33	27135
807.472	27108
807.614	26857
807.756	27055
807.898	26861
808.04	26750
808.182	26773
808.324	26853
808.465	26838
808.607	26937
808.749	27081
808.891	27188
809.033	27397
809.174	27252
809.316	27241
809.458	27176
809.6	27211
809.741	27367
809.883	27195
810.025	27412
810.166	27454
810.308	27291
810.45	27336
810.591	27378
810.733	27195
810.875	27131
811.016	27112
811.158	27077
811.299	27119
811.441	27218
811.582	27085
811.724	27169
811.865	27142
812.007	27077
812.148	27074
812.29	27173
812.431	27264
812.573	27310
812.714	27431
812.855	27561
812.997	27568
813.138	27926
813.279	27690
813.421	27591
813.562	27439
813.703	27408
813.845	27211
813.986	27055
814.127	26807
814.268	26773
814.41	26750
814.551	26785
814.692	26861
814.833	26617
814.974	26777
815.115	26689
815.256	26629
815.397	26670
815.539	26530
815.68	26374
815.821	26317
815.962	26377
816.103	26450
816.244	26237
816.385	26206
816.526	26164
816.666	25993
816.807	25997
816.948	26020
817.089	25940
817.23	25871
817.371	25947
817.512	25852
817.653	25750
817.793	25799
817.934	25822
818.075	25890
818.216	25871
818.356	25677
818.497	25594
818.638	25537
818.778	25464
818.919	25571
819.06	25689
819.2	25731
819.341	25761
819.481	25776
819.622	25986
819.762	26092
819.903	26001
820.043	25925
820.184	25856
820.324	25902
820.465	25860
820.605	25898
820.746	25852
820.886	25731
821.026	25738
821.167	25856
821.307	25883
821.447	25780
821.588	25681
821.728	25601
821.868	25400
822.008	25289
822.149	25301
822.289	25164
822.429	25023
822.569	24913
822.709	24844
822.849	24669
822.99	24741
823.13	24684
823.27	24696
823.41	24505
823.55	24570
823.69	24494
823.83	24502
823.97	24460
824.11	24384
824.25	24178
824.389	24144
824.529	24445
824.669	24285
824.809	24399
824.949	24289
825.089	24300
825.228	24289
825.368	24133
825.508	24178
825.648	24133
825.787	24110
825.927	24121
826.067	23999
826.206	24053
826.346	24098
826.485	24159
826.625	23954
826.765	24117
826.904	24258
827.044	23931
827.183	23866
827.323	23771
827.462	23741
827.601	23798
827.741	23661
827.88	23802
828.02	23566
828.159	23718
828.298	23783
828.437	23950
828.577	23665
828.716	23874
828.855	23752
828.994	23433
829.134	23467
829.273	23657
829.412	23551
829.551	23391
829.69	23455
829.829	23455
829.968	23376
830.107	23524
830.246	23448
830.385	23337
830.524	23410
830.663	23250
830.802	23239
830.941	23079
831.08	22961
831.219	23090
831.357	23174
831.496	23193
831.635	22984
831.774	22991
831.913	22999
832.051	22816
832.19	22649
832.329	22733
832.467	22850
832.606	22698
832.744	22702
832.883	22656
833.022	22736
833.16	22668
833.299	22801
833.437	22786
833.576	22771
833.714	22683
833.852	22687
833.991	22740
834.129	22782
834.267	22831
834.406	22767
834.544	22767
834.682	22797
834.821	22755
834.959	22820
835.097	22561
835.235	22721
835.373	22664
835.511	22592
835.65	22611
835.788	22550
835.926	22527
836.064	22363
836.202	22417
836.34	22508
836.478	22603
836.615	22538
836.753	22512
836.891	22679
837.029	22603
837.167	22405
837.305	22538
837.443	22398
837.58	22360
837.718	22500
837.856	22421
837.993	22261
838.131	22238
838.269	22116
838.406	22329
838.544	22367
838.681	21987
838.819	22181
838.956	21819
839.094	21812
839.231	21869
839.369	22013
839.506	22223
839.643	22055
839.781	21808
839.918	21827
840.055	21797
840.193	21717
840.33	21781
840.467	21823
840.604	21819
840.742	22139
840.879	21728
841.016	21648
841.153	21785
841.29	21774
841.427	21751
841.564	21705
841.701	21850
841.838	21698
841.975	21698
842.112	21648
842.249	21595
842.385	21504
842.522	21743
842.659	21660
842.796	21488
842.933	21519
843.069	21469
843.206	21428
843.343	21644
843.479	21370
843.616	21526
843.752	21325
843.889	21233
844.025	21336
844.162	21230
844.298	21287
844.435	21279
844.571	21207
844.708	21123
844.844	21412
844.98	21313
845.117	21298
845.253	21169
845.389	21116
845.525	21150
845.661	21089
845.798	21112
845.934	21058
846.07	20982
846.206	20960
846.342	21013
846.478	20872
846.614	20861
846.75	20644
846.886	20670
847.022	20708
847.158	20735
847.294	20785
847.429	20743
847.565	20659
847.701	20921
847.837	20514
847.972	20499
848.108	20461
848.244	20568
848.379	20343
848.515	20336
848.65	20244
848.786	20301
848.921	20256
849.057	20393
849.192	20328
849.328	20339
849.463	20176
849.598	20347
849.734	20157
849.869	20164
850.004	20043
850.14	20046
850.275	19993
850.41	19921
850.545	19951
850.68	19970
850.815	20069
850.95	19940
851.085	20172
851.22	20088
851.355	19970
851.49	19997
851.625	19982
851.76	19974
851.895	19799
852.03	19776
852.165	20020
852.299	19959
852.434	20126
852.569	20050
852.703	19940
852.838	20035
852.973	20100
853.107	20229
853.242	19978
853.376	19864
853.511	19723
853.645	19776
853.78	19978
853.914	19807
854.048	19750
854.183	19753
854.317	19871
854.451	20119
854.585	19784
854.72	19868
854.854	19944
854.988	19822
855.122	19784
855.256	19693
855.39	19765
855.524	19799
855.658	19845
855.792	19883
855.926	19784
856.06	20001
856.194	20054
856.327	19811
856.461	19776
856.595	19765
856.729	19784
856.862	19955
856.996	19750
857.13	19913
857.263	19963
857.397	19868
857.53	19868
857.664	19822
857.797	19883
857.931	20008
858.064	19871
858.197	20005
858.331	19807
858.464	19890
858.597	19590
858.731	19830
858.864	19814
858.997	19818
859.13	19757
859.263	19769
859.396	19811
859.529	19628
859.662	19723
859.795	19765
859.928	19879
860.061	19871
860.194	19967
860.327	19765
860.46	19852
860.592	19746
860.725	19940
860.858	19769
860.99	19734
861.123	19757
861.256	19677
861.388	19780
861.521	20488
861.653	19704
861.786	19635
861.918	19738
862.05	19727
862.183	19700
862.315	19833
862.447	19883
862.58	19769
862.712	19506
862.844	19540
862.976	19704
863.108	19647
863.24	19909
863.372	19537
863.504	19468
863.636	19548
863.768	19586
863.9	19472
864.032	19476
864.164	19464
864.296	19552
864.428	19521
864.559	19559
864.691	19578
864.823	19571
864.954	19537
865.086	19480
865.217	19320
865.349	19403
865.48	19362
865.612	19521
865.743	19518
865.875	19434
866.006	19251
866.137	19304
866.269	19453
866.4	19441
866.531	19259
866.662	19308
866.793	19304
866.924	19190
867.055	19255
867.186	19449
867.317	19430
867.448	19324
867.579	19308
867.71	19259
867.841	19327
867.972	19327
868.103	19381
868.233	19400
868.364	19308
868.495	19457
868.625	19544
868.756	19590
868.886	19487
869.017	19491
869.147	19700
869.278	19814
869.408	19632
869.539	19578
869.669	19681
869.799	19685
869.929	19712
870.06	19738
870.19	19986
870.32	19826
870.45	19967
870.58	19989
870.71	20065
870.84	20027
870.97	19959
871.1	20043
871.23	20153
871.36	20115
871.489	20020
871.619	20176
871.749	20176
871.879	20164
872.008	20301
872.138	20142
872.267	20225
872.397	20138
872.526	20161
872.656	20012
872.785	19955
872.915	20206
873.044	20263
873.173	20187
873.303	20229
873.432	20301
873.561	20294
873.69	20309
873.819	20225
873.948	20358
874.077	20332
874.206	20225
874.335	20252
874.464	20324
874.593	20404
874.722	20393
874.851	20454
874.979	20556
875.108	20526
875.237	20552
875.365	20355
875.494	20377
875.623	20560
875.751	20355
875.88	20476
876.008	20670
876.136	20678
876.265	20781
876.393	21047
876.521	20880
876.65	20952
876.778	20868
876.906	20914
877.034	20804
877.162	20849
877.29	20716
877.418	20788
877.546	20800
877.674	20769
877.802	20876
877.93	20800
878.058	20807
878.185	20670
878.313	20716
878.441	20845
878.568	20594
878.696	20731
878.824	20902
878.951	20804
879.079	20952
879.206	21032
879.333	20948
879.461	20883
879.588	20956
879.715	20948
879.842	21157
879.97	20754
880.097	20636
880.224	20587
880.351	20708
880.478	20659
880.605	20575
880.732	20469
880.859	20773
880.986	20705
881.112	20632
881.239	20450
881.366	20423
881.493	20324
881.619	20240
881.746	20282
881.872	20271
881.999	20294
882.125	20142
882.252	20271
882.378	20214
882.505	20381
882.631	20142
882.757	19898
882.883	20035
883.01	20073
883.136	19883
883.262	19845
883.388	19807
883.514	20031
883.64	19982
883.766	19944
883.892	19818
884.018	19807
884.143	19978
884.269	20001
884.395	19723
884.52	19616
884.646	19658
884.772	19537
884.897	19529
885.023	19723
885.148	19693
885.274	19833
885.399	19632
885.524	19620
885.65	19761
885.775	19761
885.9	19613
886.025	19795
886.15	19734
886.275	19567
886.4	19605
886.525	19556
886.65	19544
886.775	19586
886.9	19708
887.025	19807
887.149	19655
887.274	19563
887.399	19301
887.523	19377
887.648	19308
887.773	19384
887.897	19502
888.021	19407
888.146	19396
888.27	19381
888.395	19609
888.519	19449
888.643	19388
888.767	19483
888.891	19312
889.015	19179
889.139	19255
889.263	19164
889.387	19251
889.511	19388
889.635	19388
889.759	19183
889.883	19129
890.006	19259
890.13	19381
890.254	19095
890.377	19069
890.501	18920
890.624	18977
890.748	18867
890.871	18905
890.995	18722
891.118	18795
891.241	18890
891.364	18810
891.488	18947
891.611	18787
891.734	18871
891.857	18867
891.98	18802
892.103	18878
892.226	18798
892.349	18787
892.471	18627
892.594	18776
892.717	18772
892.839	18711
892.962	18661
893.085	18764
893.207	18783
893.33	18623
893.452	18692
893.575	18848
893.697	18749
893.819	18798
893.941	18882
894.064	18757
894.186	18711
894.308	18639
894.43	18776
894.552	18856
894.674	18817
894.796	18601
894.918	18692
895.04	18798
895.161	18852
895.283	18749
895.405	18802
895.526	18741
895.648	18791
895.769	18814
895.891	18749
896.012	18810
896.134	18840
896.255	18722
896.376	18764
896.498	18783
896.619	18749
896.74	18783
896.861	18909
896.982	19012
897.103	19183
897.224	19065
897.345	18973
897.466	18935
897.587	19080
897.708	19137
897.828	19038
897.949	18890
898.07	18867
898.19	18894
898.311	19042
898.431	18932
898.552	19061
898.672	18947
898.792	19031
898.913	18996
899.033	18901
899.153	18734
899.273	18726
899.393	18722
899.513	18745
899.633	18867
899.753	18688
899.873	18753
899.993	18840
900.113	18665
900.232	18772
900.352	18608
900.472	18612
900.591	18612
900.711	18494
900.83	18620
900.95	18669
901.069	18604
901.189	18513
901.308	18148
901.427	18224
901.546	18239
901.665	18136
901.784	18148
901.904	18064
902.023	17999
902.141	17783
902.26	17596
902.379	17691
902.498	17657
902.617	17642
902.735	17710
902.854	17585
902.973	17577
903.091	17433
903.21	17341
903.328	17341
903.446	17231
903.565	17189
903.683	17185
903.801	17075
903.919	17060
904.038	17181
904.156	17014
904.274	17136
904.392	16946
904.51	16942
904.627	17102
904.745	16995
904.863	17041
904.981	16748
905.098	16672
905.216	16542
905.334	16542
905.451	16683
905.569	16592
905.686	16630
905.803	16656
905.921	16394
906.038	16455
906.155	16382
906.272	16291
906.389	16249
906.506	16181
906.623	16139
906.74	16147
906.857	16010
906.974	16059
907.091	16162
907.208	16303
907.324	16154
907.441	16128
907.557	15888
907.674	15899
907.79	15743
907.907	15865
908.023	15930
908.139	15861
908.256	15835
908.372	15629
908.488	15686
908.604	15591
908.72	15485
908.836	15530
908.952	15473
909.068	15610
909.184	15667
909.3	15515
909.415	15599
909.531	15614
909.647	15302
909.762	15283
909.878	15306
909.993	15313
910.108	15283
910.224	15260
910.339	15252
910.454	15176
910.57	15093
910.685	15020
910.8	15256
910.915	15230
911.03	15169
911.145	14975
911.259	14933
911.374	14925
911.489	14845
911.604	14792
911.718	14568
911.833	14667
911.947	14507
912.062	14457
912.176	14621
912.291	14610
912.405	14594
912.519	14758
912.633	14788
912.748	14777
912.862	14549
912.976	14377
913.09	14320
913.204	14442
913.318	14446
913.431	14537
913.545	14530
913.659	14636
913.772	14313
913.886	14305
914	14218
914.113	14301
914.226	14404
914.34	14389
914.453	14263
914.566	14355
914.68	14206
914.793	14195
914.906	14012
915.019	13967
915.132	13944
915.245	13940
915.358	13986
915.47	13902
915.583	14020
915.696	14024
915.809	14024
915.921	14054
916.034	13818
916.146	13837
916.259	13803
916.371	13898
916.483	13936
916.595	13761
916.708	13670
916.82	13761
916.932	13761
917.044	13666
917.156	13731
917.268	13655
917.38	13696
917.491	13571
917.603	13601
917.715	13616
917.826	13715
917.938	13586
918.049	13525
918.161	13643
918.272	13719
918.384	13677
918.495	13643
918.606	13453
918.717	13392
918.828	13422
918.939	13506
919.05	13445
919.161	13377
919.272	13228
919.383	13289
919.494	13445
919.604	13521
919.715	13422
919.826	13331
919.936	13285
920.047	13373
920.157	13362
920.267	13487
920.378	13434
920.488	13358
920.598	13502
920.708	13666
920.818	13556
920.928	13518
921.038	13727
921.148	13582
921.258	13388
921.368	13316
921.477	13149
921.587	13084
921.697	13057
921.806	13187
921.916	13027
922.025	12798
922.134	12844
922.244	12741
922.353	12817
922.462	12654
922.571	12559
922.68	12365
922.789	12426
922.898	12517
923.007	12391
923.116	12426
923.224	12361
923.333	12315
923.442	12323
923.55	12213
923.659	12277
923.767	12353
923.876	12235
923.984	12315
924.092	12106
924.201	12190
924.309	12289
924.417	12129
924.525	12072
924.633	12129
924.741	12909
924.849	11965
924.956	12083
925.064	11969
925.172	11786
925.279	11901
925.387	11935
925.494	12041
925.602	12057
925.709	11969
925.816	11863
925.924	11855
926.031	11912
926.138	11866
926.245	11996
926.352	11767
926.459	11923
926.566	11863
926.673	11737
926.779	11680
926.886	11577
926.993	11532
927.099	11512
927.206	11463
927.312	11455
927.419	11566
927.525	11535
927.631	11497
927.737	11421
927.843	11383
927.95	11242
928.056	11223
928.162	11398
928.267	11356
928.373	11931
928.479	11398
928.585	11185
928.69	11353
928.796	11433
928.901	11159
929.007	11060
929.112	11288
929.218	11109
929.323	11124
929.428	11079
929.533	11284
929.638	10976
929.743	11037
929.848	11143
929.953	10991
930.058	10999
930.163	10740
930.267	10725
930.372	10934
930.477	10782
930.581	10972
930.685	10862
930.79	10706
930.894	10721
930.998	10660
931.103	10759
931.207	10394
931.311	10344
931.415	10322
931.519	10135
931.623	10074
