Data from test_V78500241_2042.txt Node
Date: Fri Mar 25 15:24:04 CST 2022
User: usil
Spectrometer: V785-0024
Trigger mode: 0
Integration Time (sec): 4.000000E-1
Scans to average: 1
Nonlinearity correction enabled: false
Boxcar width: 0
Storing dark spectrum: false
XAxis mode: Wavelengths
Number of Pixels in Spectrum: 1024
>>>>>Begin Spectral Data<<<<<
801.071	27838
801.214	27728
801.356	27492
801.499	27325
801.641	27306
801.783	27344
801.926	27435
802.068	27374
802.211	27256
802.353	27256
802.496	27192
802.638	26899
802.78	26868
802.923	26815
803.065	26842
803.208	26872
803.35	26933
803.492	27028
803.635	27192
803.777	26990
803.919	27256
804.061	27370
804.204	27230
804.346	27096
804.488	27123
804.63	27173
804.773	27066
804.915	27123
805.057	27344
805.199	27169
805.341	27233
805.483	27329
805.626	27241
805.768	27116
805.91	27199
806.052	27241
806.194	27214
806.336	27507
806.478	27275
806.62	27283
806.762	27389
806.904	27663
807.046	27812
807.188	27633
807.33	27873
807.472	27831
807.614	27804
807.756	27675
807.898	27603
808.04	27557
808.182	27485
808.324	27519
808.465	27587
808.607	27804
808.749	27941
808.891	27998
809.033	28105
809.174	27918
809.316	27781
809.458	27812
809.6	27994
809.741	27972
809.883	28006
810.025	28211
810.166	28196
810.308	28162
810.45	28040
810.591	28017
810.733	27914
810.875	27778
811.016	27812
811.158	27755
811.299	27987
811.441	27998
811.582	27838
811.724	27789
811.865	27804
812.007	27850
812.148	27797
812.29	27968
812.431	28086
812.573	28124
812.714	28390
812.855	28413
812.997	28474
813.138	28523
813.279	28474
813.421	28493
813.562	28394
813.703	28261
813.845	28074
813.986	27903
814.127	27663
814.268	27663
814.41	27797
814.551	27637
814.692	27625
814.833	27504
814.974	27534
815.115	27637
815.256	27530
815.397	27553
815.539	27473
815.68	27416
815.821	27268
815.962	27481
816.103	27344
816.244	27241
816.385	27119
816.526	27176
816.666	26944
816.807	26891
816.948	26990
817.089	27005
817.23	26910
817.371	26807
817.512	26918
817.653	26868
817.793	26796
817.934	26910
818.075	26861
818.216	26982
818.356	26758
818.497	26785
818.638	26537
818.778	26800
818.919	26446
819.06	26739
819.2	26648
819.341	26845
819.481	26952
819.622	27017
819.762	27100
819.903	27104
820.043	27043
820.184	26868
820.324	27074
820.465	27009
820.605	27051
820.746	26861
820.886	26769
821.026	26861
821.167	26902
821.307	26956
821.447	26830
821.588	26693
821.728	26518
821.868	26511
822.008	26218
822.149	26370
822.289	26389
822.429	26176
822.569	26115
822.709	25940
822.849	25807
822.99	25951
823.13	25784
823.27	25864
823.41	25609
823.55	25518
823.69	25681
823.83	25624
823.97	25575
824.11	25422
824.25	25438
824.389	25518
824.529	25578
824.669	25396
824.809	25616
824.949	25472
825.089	25575
825.228	25373
825.368	25266
825.508	25316
825.648	25240
825.787	25590
825.927	25263
826.067	25350
826.206	25327
826.346	25403
826.485	25369
826.625	25259
826.765	25422
826.904	25278
827.044	25213
827.183	25080
827.323	24894
827.462	25103
827.601	25175
827.741	25061
827.88	25110
828.02	24954
828.159	24928
828.298	25015
828.437	25038
828.577	25080
828.716	25091
828.855	25038
828.994	24814
829.134	24696
829.273	24844
829.412	24669
829.551	24700
829.69	24726
829.829	24791
829.968	24791
830.107	24928
830.246	24715
830.385	24779
830.524	24768
830.663	24665
830.802	24490
830.941	24395
831.08	24182
831.219	24346
831.357	24376
831.496	24486
831.635	24399
831.774	24289
831.913	24232
832.051	24152
832.19	24182
832.329	24209
832.467	24159
832.606	24114
832.744	23973
832.883	24117
833.022	24053
833.16	23931
833.299	24022
833.437	24106
833.576	24155
833.714	24148
833.852	24228
833.991	24174
834.129	24251
834.267	24076
834.406	24011
834.544	24133
834.682	24186
834.821	24106
834.959	24243
835.097	23901
835.235	24174
835.373	24068
835.511	24125
835.65	23942
835.788	23942
835.926	23813
836.064	23722
836.202	23771
836.34	23885
836.478	24064
836.615	23866
836.753	23996
836.891	24003
837.029	23954
837.167	23969
837.305	23828
837.443	23767
837.58	23885
837.718	23756
837.856	23817
837.993	23699
838.131	23718
838.269	23581
838.406	23619
838.544	23646
838.681	23425
838.819	23448
838.956	23242
839.094	23151
839.231	23356
839.369	23436
839.506	23608
839.643	23528
839.781	23200
839.918	23151
840.055	23239
840.193	23246
840.33	23242
840.467	23159
840.604	23235
840.742	23280
840.879	23121
841.016	23200
841.153	23060
841.29	23174
841.427	23083
841.564	23250
841.701	23151
841.838	23155
841.975	23014
842.112	23090
842.249	22968
842.385	22919
842.522	23044
842.659	22923
842.796	22892
842.933	23037
843.069	22862
843.206	22877
843.343	23033
843.479	22980
843.616	22972
843.752	22679
843.889	22660
844.025	22748
844.162	22736
844.298	22786
844.435	22755
844.571	22626
844.708	22752
844.844	22820
844.98	22805
845.117	22790
845.253	22584
845.389	22668
845.525	22611
845.661	22451
845.798	22367
845.934	22497
846.07	22478
846.206	22318
846.342	22550
846.478	22371
846.614	22234
846.75	22154
846.886	22177
847.022	22325
847.158	22177
847.294	22196
847.429	22211
847.565	22173
847.701	22394
847.837	21857
847.972	21983
848.108	22063
848.244	21934
848.379	21819
848.515	21625
848.65	21698
848.786	21732
848.921	21922
849.057	21903
849.192	21724
849.328	21846
849.463	21671
849.598	21804
849.734	21606
849.869	21595
850.004	21496
850.14	21538
850.275	21458
850.41	21469
850.545	21500
850.68	21439
850.815	21439
850.95	21488
851.085	21709
851.22	21679
851.355	21523
851.49	21424
851.625	21359
851.76	21363
851.895	21374
852.03	21325
852.165	21507
852.299	21519
852.434	21549
852.569	21542
852.703	21545
852.838	21618
852.973	21530
853.107	21648
853.242	21317
853.376	21351
853.511	21237
853.645	21203
853.78	21511
853.914	21367
854.048	21332
854.183	21325
854.317	21313
854.451	21458
854.585	21298
854.72	21279
854.854	21462
854.988	21256
855.122	21386
855.256	21214
855.39	21230
855.524	21466
855.658	21329
855.792	21424
855.926	21401
856.06	21382
856.194	21515
856.327	21188
856.461	21370
856.595	21226
856.729	21138
856.862	21431
856.996	21344
857.13	21416
857.263	21481
857.397	21443
857.53	21260
857.664	21382
857.797	21348
857.931	21325
858.064	21393
858.197	21332
858.331	21283
858.464	21256
858.597	21173
858.731	21310
858.864	21329
858.997	21233
859.13	21302
859.263	21317
859.396	21428
859.529	21378
859.662	21298
859.795	21283
859.928	21359
860.061	21515
860.194	21561
860.327	21454
860.46	21287
860.592	21545
860.725	21477
860.858	21443
860.99	21401
861.123	21272
861.256	21370
861.388	21275
861.521	21949
861.653	21230
861.786	21039
861.918	21096
862.05	21283
862.183	21199
862.315	21207
862.447	21332
862.58	21230
862.712	21157
862.844	21093
862.976	21112
863.108	20982
863.24	21549
863.372	20941
863.504	21058
863.636	21062
863.768	21112
863.9	21074
864.032	20937
864.164	21043
864.296	21112
864.428	21157
864.559	21089
864.691	21096
864.823	20990
864.954	21066
865.086	21005
865.217	21036
865.349	20773
865.48	20944
865.612	20861
865.743	21028
865.875	20861
866.006	20925
866.137	20861
866.269	20815
866.4	20796
866.531	20895
866.662	20796
866.793	20826
866.924	20857
867.055	20929
867.186	20849
867.317	20807
867.448	20731
867.579	20883
867.71	20754
867.841	20804
867.972	20826
868.103	20792
868.233	20864
868.364	20864
868.495	20883
868.625	21013
868.756	21272
868.886	21032
869.017	21112
869.147	21135
869.278	21237
869.408	21195
869.539	21165
869.669	21119
869.799	21176
869.929	21169
870.06	21146
870.19	21488
870.32	21370
870.45	21443
870.58	21401
870.71	21583
870.84	21572
870.97	21416
871.1	21526
871.23	21701
871.36	21785
871.489	21595
871.619	21778
871.749	21519
871.879	21781
872.008	21743
872.138	21633
872.267	21800
872.397	21469
872.526	21466
872.656	21610
872.785	21496
872.915	21713
873.044	21854
873.173	21732
873.303	21679
873.432	21755
873.561	21835
873.69	21724
873.819	21743
873.948	21831
874.077	21713
874.206	21614
874.335	21644
874.464	21873
874.593	21915
874.722	21895
874.851	21865
874.979	21953
875.108	21930
875.237	21888
875.365	21911
875.494	21899
875.623	21907
875.751	21880
875.88	22051
876.008	22078
876.136	22246
876.265	22322
876.393	22455
876.521	22470
876.65	22436
876.778	22325
876.906	22299
877.034	22265
877.162	22329
877.29	22367
877.418	22363
877.546	22344
877.674	22246
877.802	22276
877.93	22249
878.058	22291
878.185	22177
878.313	22303
878.441	22322
878.568	22158
878.696	22226
878.824	22318
878.951	22409
879.079	22413
879.206	22607
879.333	22402
879.461	22341
879.588	22436
879.715	22485
879.842	22413
879.97	22367
880.097	22082
880.224	22101
880.351	22029
880.478	22139
880.605	22067
880.732	22078
880.859	22421
880.986	22249
881.112	22196
881.239	21979
881.366	21827
881.493	21930
881.619	21663
881.746	21774
881.872	21770
881.999	21705
882.125	21625
882.252	21667
882.378	21671
882.505	21736
882.631	21564
882.757	21382
882.883	21515
883.01	21336
883.136	21310
883.262	21275
883.388	21173
883.514	21428
883.64	21412
883.766	21291
883.892	21127
884.018	21173
884.143	21408
884.269	21485
884.395	21085
884.52	21123
884.646	21093
884.772	21074
884.897	20902
885.023	21032
885.148	21165
885.274	21260
885.399	21062
885.524	21043
885.65	21043
885.775	21005
885.9	20906
886.025	21195
886.15	21089
886.275	21058
886.4	20929
886.525	20880
886.65	21013
886.775	20895
886.9	21123
887.025	21252
887.149	21154
887.274	20868
887.399	20876
887.523	20720
887.648	20678
887.773	20746
887.897	20792
888.021	20815
888.146	20727
888.27	20830
888.395	20834
888.519	20857
888.643	20842
888.767	20868
888.891	20667
889.015	20625
889.139	20640
889.263	20552
889.387	20716
889.511	20819
889.635	20678
889.759	20594
889.883	20648
890.006	20598
890.13	20796
890.254	20594
890.377	20678
890.501	20438
890.624	20351
890.748	20446
890.871	20267
890.995	20111
891.118	20176
891.241	20202
891.364	20164
891.488	20214
891.611	20176
891.734	20161
891.857	20134
891.98	20073
892.103	20195
892.226	20024
892.349	20172
892.471	19947
892.594	20043
892.717	20153
892.839	20084
892.962	20145
893.085	20073
893.207	19955
893.33	20001
893.452	19963
893.575	20130
893.697	20073
893.819	20183
893.941	20278
894.064	20161
894.186	19997
894.308	20016
894.43	20187
894.552	20134
894.674	20168
894.796	19974
894.918	20046
895.04	19944
895.161	20115
895.283	20115
895.405	19906
895.526	20088
895.648	20008
895.769	20058
895.891	20100
896.012	20195
896.134	20142
896.255	20119
896.376	20077
896.498	20199
896.619	20035
896.74	20012
896.861	20142
896.982	20328
897.103	20473
897.224	20339
897.345	20317
897.466	20138
897.587	20381
897.708	20362
897.828	20408
897.949	20313
898.07	20161
898.19	20138
898.311	20324
898.431	20240
898.552	20252
898.672	20415
898.792	20309
898.913	20157
899.033	20229
899.153	20077
899.273	19932
899.393	20046
899.513	20092
899.633	20039
899.753	20084
899.873	20054
899.993	19947
900.113	19944
900.232	20134
900.352	19852
900.472	19947
900.591	19738
900.711	19765
900.83	19727
900.95	19921
901.069	20005
901.189	19544
901.308	19480
901.427	19343
901.546	19403
901.665	19415
901.784	19304
901.904	19343
902.023	19145
902.141	18985
902.26	18821
902.379	19118
902.498	19031
902.617	18981
902.735	18962
902.854	18829
902.973	18878
903.091	18639
903.21	18585
903.328	18506
903.446	18460
903.565	18460
903.683	18407
903.801	18140
903.919	18254
904.038	18456
904.156	18194
904.274	18273
904.392	18220
904.51	18057
904.627	18117
904.745	18186
904.863	18171
904.981	17984
905.098	17745
905.216	17737
905.334	17931
905.451	17817
905.569	17745
905.686	17859
905.803	17821
905.921	17589
906.038	17657
906.155	17687
906.272	17665
906.389	17520
906.506	17436
906.623	17440
906.74	17280
906.857	17162
906.974	17387
907.091	17402
907.208	17455
907.324	17341
907.441	17254
907.557	17121
907.674	17113
907.79	16968
907.907	17083
908.023	17117
908.139	17067
908.256	16965
908.372	16915
908.488	16976
908.604	16885
908.72	16755
908.836	16782
908.952	16729
909.068	16816
909.184	16843
909.3	16740
909.415	16812
909.531	16793
909.647	16580
909.762	16542
909.878	16421
909.993	16367
910.108	16489
910.224	16417
910.339	16470
910.454	16405
910.57	16249
910.685	16303
910.8	16504
910.915	16451
911.03	16207
911.145	16051
911.259	16109
911.374	16112
911.489	15987
911.604	16078
911.718	15903
911.833	15892
911.947	15732
912.062	15755
912.176	15854
912.291	15846
912.405	15812
912.519	15979
912.633	15987
912.748	15854
912.862	15831
912.976	15724
913.09	15576
913.204	15709
913.318	15705
913.431	15739
913.545	15736
913.659	15713
913.772	15644
913.886	15454
914	15412
914.113	15557
914.226	15515
914.34	15580
914.453	15386
914.566	15496
914.68	15359
914.793	15268
914.906	15165
915.019	15062
915.132	15070
915.245	15047
915.358	15135
915.47	15066
915.583	15036
915.696	15005
915.809	15169
915.921	15211
916.034	15093
916.146	15055
916.259	14861
916.371	15043
916.483	14986
916.595	14872
916.708	14857
916.82	14990
916.932	14819
917.044	14902
917.156	14834
917.268	14735
917.38	14640
917.491	14670
917.603	14686
917.715	14826
917.826	14826
917.938	14670
918.049	14632
918.161	14682
918.272	14777
918.384	14842
918.495	14648
918.606	14530
918.717	14419
918.828	14499
918.939	14594
919.05	14358
919.161	14457
919.272	14332
919.383	14233
919.494	14514
919.604	14678
919.715	14427
919.826	14358
919.936	14442
920.047	14594
920.157	14465
920.267	14697
920.378	14446
920.488	14400
920.598	14625
920.708	14769
920.818	14473
920.928	14533
921.038	14674
921.148	14644
921.258	14339
921.368	14225
921.477	14183
921.587	14176
921.697	14046
921.806	14161
921.916	14039
922.025	13906
922.134	13837
922.244	13746
922.353	13860
922.462	13750
922.571	13658
922.68	13468
922.789	13422
922.898	13544
923.007	13377
923.116	13472
923.224	13480
923.333	13480
923.442	13392
923.55	13285
923.659	13362
923.767	13377
923.876	13274
923.984	13293
924.092	13202
924.201	13228
924.309	13232
924.417	13255
924.525	13103
924.633	13187
924.741	13879
924.849	12985
924.956	13072
925.064	12916
925.172	12783
925.279	12882
925.387	12886
925.494	12867
925.602	12989
925.709	12909
925.816	12833
925.924	12882
926.031	12943
926.138	12844
926.245	12935
926.352	12692
926.459	12859
926.566	12878
926.673	12783
926.779	12597
926.886	12623
926.993	12464
927.099	12429
927.206	12407
927.312	12384
927.419	12509
927.525	12357
927.631	12513
927.737	12395
927.843	12308
927.95	12243
928.056	12251
928.162	12270
928.267	12311
928.373	12977
928.479	12388
928.585	12125
928.69	12247
928.796	12243
928.901	12098
929.007	12026
929.112	12136
929.218	12095
929.323	12076
929.428	12068
929.533	12186
929.638	11878
929.743	11954
929.848	12049
929.953	11950
930.058	11882
930.163	11710
930.267	11809
930.372	11882
930.477	11680
930.581	11840
930.685	11748
930.79	11551
930.894	11585
930.998	11608
931.103	11699
931.207	11356
931.311	11216
931.415	11181
931.519	10980
931.623	10946
