Data from test_V78500241_1456.txt Node
Date: Fri Mar 25 15:19:59 CST 2022
User: usil
Spectrometer: V785-0024
Trigger mode: 0
Integration Time (sec): 4.000000E-1
Scans to average: 1
Nonlinearity correction enabled: false
Boxcar width: 0
Storing dark spectrum: false
XAxis mode: Wavelengths
Number of Pixels in Spectrum: 1024
>>>>>Begin Spectral Data<<<<<
801.071	27557
801.214	27637
801.356	27367
801.499	27294
801.641	27142
801.783	27180
801.926	27214
802.068	27237
802.211	27150
802.353	27062
802.496	26857
802.638	26792
802.78	26910
802.923	26804
803.065	26651
803.208	26613
803.35	26952
803.492	26853
803.635	26918
803.777	26914
803.919	27077
804.061	27294
804.204	26914
804.346	26971
804.488	26925
804.63	26929
804.773	26891
804.915	26994
805.057	27169
805.199	26952
805.341	27085
805.483	27264
805.626	27127
805.768	27142
805.91	27077
806.052	27195
806.194	26998
806.336	27237
806.478	27214
806.62	27070
806.762	27176
806.904	27291
807.046	27553
807.188	27519
807.33	27534
807.472	27625
807.614	27249
807.756	27507
807.898	27462
808.04	27325
808.182	27370
808.324	27408
808.465	27439
808.607	27690
808.749	27728
808.891	27827
809.033	27926
809.174	27850
809.316	27717
809.458	27827
809.6	27739
809.741	27922
809.883	27812
810.025	28120
810.166	28048
810.308	28029
810.45	28093
810.591	28010
810.733	27816
810.875	27728
811.016	27500
811.158	27576
811.299	27789
811.441	27857
811.582	27804
811.724	27736
811.865	27778
812.007	27633
812.148	27800
812.29	27751
812.431	27987
812.573	27972
812.714	28196
812.855	28230
812.997	28276
813.138	28401
813.279	28177
813.421	28272
813.562	28147
813.703	27994
813.845	27922
813.986	27713
814.127	27652
814.268	27359
814.41	27447
814.551	27447
814.692	27492
814.833	27272
814.974	27332
815.115	27310
815.256	27454
815.397	27192
815.539	27389
815.68	27032
815.821	27252
815.962	27245
816.103	27127
816.244	26902
816.385	27020
816.526	26960
816.666	26811
816.807	26731
816.948	26670
817.089	26758
817.23	26644
817.371	26594
817.512	26746
817.653	26571
817.793	26621
817.934	26686
818.075	26693
818.216	26689
818.356	26705
818.497	26587
818.638	26320
818.778	26343
818.919	26377
819.06	26431
819.2	26575
819.341	26804
819.481	26724
819.622	26857
819.762	26986
819.903	26929
820.043	26838
820.184	26811
820.324	26701
820.465	26880
820.605	26811
820.746	26712
820.886	26708
821.026	26769
821.167	26674
821.307	26872
821.447	26674
821.588	26495
821.728	26431
821.868	26423
822.008	26183
822.149	26199
822.289	26187
822.429	25989
822.569	25894
822.709	25875
822.849	25723
822.99	25685
823.13	25738
823.27	25544
823.41	25578
823.55	25362
823.69	25525
823.83	25506
823.97	25384
824.11	25297
824.25	25304
824.389	25194
824.529	25479
824.669	25331
824.809	25362
824.949	25483
825.089	25308
825.228	25327
825.368	25061
825.508	25133
825.648	25168
825.787	25190
825.927	25217
826.067	25179
826.206	25004
826.346	25232
826.485	25168
826.625	25217
826.765	25304
826.904	25187
827.044	25053
827.183	24981
827.323	24821
827.462	24962
827.601	24863
827.741	24905
827.88	24996
828.02	24665
828.159	24772
828.298	24859
828.437	24928
828.577	24703
828.716	24970
828.855	24711
828.994	24521
829.134	24551
829.273	24665
829.412	24604
829.551	24376
829.69	24563
829.829	24582
829.968	24620
830.107	24783
830.246	24612
830.385	24612
830.524	24559
830.663	24418
830.802	24376
830.941	24197
831.08	24178
831.219	24220
831.357	24311
831.496	24311
831.635	24205
831.774	24121
831.913	24194
832.051	24018
832.19	24076
832.329	23977
832.467	23866
832.606	23809
832.744	23828
832.883	23878
833.022	23794
833.16	23977
833.299	23870
833.437	23798
833.576	23859
833.714	23904
833.852	23996
833.991	24015
834.129	23969
834.267	23996
834.406	23969
834.544	23965
834.682	24034
834.821	23828
834.959	24114
835.097	23901
835.235	23874
835.373	23965
835.511	23992
835.65	23748
835.788	23927
835.926	23562
836.064	23627
836.202	23619
836.34	23707
836.478	23764
836.615	23665
836.753	23748
836.891	23775
837.029	23863
837.167	23748
837.305	23649
837.443	23680
837.58	23516
837.718	23684
837.856	23668
837.993	23703
838.131	23661
838.269	23414
838.406	23570
838.544	23391
838.681	23200
838.819	23227
838.956	23022
839.094	23098
839.231	23044
839.369	23239
839.506	23509
839.643	23425
839.781	23128
839.918	23060
840.055	22972
840.193	23029
840.33	22896
840.467	23014
840.604	22976
840.742	23147
840.879	22858
841.016	22850
841.153	22835
841.29	23029
841.427	22991
841.564	23003
841.701	22949
841.838	22965
841.975	22980
842.112	22923
842.249	22877
842.385	22786
842.522	22919
842.659	22889
842.796	22679
842.933	22637
843.069	22649
843.206	22778
843.343	22881
843.479	22736
843.616	22763
843.752	22561
843.889	22584
844.025	22656
844.162	22554
844.298	22630
844.435	22588
844.571	22554
844.708	22512
844.844	22687
844.98	22622
845.117	22603
845.253	22421
845.389	22390
845.525	22360
845.661	22428
845.798	22303
845.934	22295
846.07	22154
846.206	22344
846.342	22363
846.478	22246
846.614	22105
846.75	21865
846.886	21930
847.022	22097
847.158	21941
847.294	22051
847.429	22021
847.565	21987
847.701	22112
847.837	21705
847.972	21675
848.108	21819
848.244	21717
848.379	21606
848.515	21523
848.65	21469
848.786	21587
848.921	21717
849.057	21755
849.192	21637
849.328	21648
849.463	21511
849.598	21580
849.734	21485
849.869	21363
850.004	21504
850.14	21408
850.275	21363
850.41	21294
850.545	21272
850.68	21272
850.815	21367
850.95	21367
851.085	21477
851.22	21408
851.355	21260
851.49	21332
851.625	21306
851.76	21363
851.895	21256
852.03	21108
852.165	21351
852.299	21378
852.434	21416
852.569	21469
852.703	21405
852.838	21351
852.973	21412
853.107	21534
853.242	21272
853.376	21260
853.511	21077
853.645	20956
853.78	21222
853.914	21211
854.048	21085
854.183	21165
854.317	21116
854.451	21443
854.585	21089
854.72	21199
854.854	21252
854.988	21058
855.122	21226
855.256	21047
855.39	21089
855.524	21268
855.658	21131
855.792	21203
855.926	21043
856.06	21161
856.194	21291
856.327	21138
856.461	21058
856.595	21108
856.729	21199
856.862	21241
856.996	21207
857.13	21207
857.263	21192
857.397	21283
857.53	21093
857.664	21108
857.797	21203
857.931	21260
858.064	21268
858.197	21233
858.331	21161
858.464	21036
858.597	21104
858.731	21154
858.864	21036
858.997	21142
859.13	21218
859.263	21100
859.396	21264
859.529	21096
859.662	21043
859.795	21070
859.928	21157
860.061	21405
860.194	21256
860.327	21222
860.46	21222
860.592	21272
860.725	21256
860.858	21169
860.99	21104
861.123	21058
861.256	21195
861.388	21154
861.521	21724
861.653	21047
861.786	20979
861.918	21176
862.05	20952
862.183	21039
862.315	21043
862.447	21184
862.58	21051
862.712	20826
862.844	20796
862.976	21039
863.108	20910
863.24	21272
863.372	20819
863.504	20765
863.636	20868
863.768	20910
863.9	20838
864.032	20724
864.164	20849
864.296	20880
864.428	21055
864.559	20845
864.691	20887
864.823	20830
864.954	20853
865.086	20811
865.217	20727
865.349	20621
865.48	20826
865.612	20826
865.743	20845
865.875	20678
866.006	20663
866.137	20731
866.269	20644
866.4	20655
866.531	20686
866.662	20625
866.793	20606
866.924	20705
867.055	20727
867.186	20716
867.317	20545
867.448	20617
867.579	20693
867.71	20556
867.841	20640
867.972	20788
868.103	20598
868.233	20743
868.364	20743
868.495	20876
868.625	20910
868.756	21001
868.886	20910
869.017	21047
869.147	21028
869.278	21062
869.408	20941
869.539	20914
869.669	20925
869.799	21036
869.929	20982
870.06	21062
870.19	21306
870.32	21230
870.45	21351
870.58	21348
870.71	21317
870.84	21473
870.97	21359
871.1	21222
871.23	21530
871.36	21511
871.489	21447
871.619	21504
871.749	21488
871.879	21504
872.008	21595
872.138	21469
872.267	21587
872.397	21439
872.526	21405
872.656	21378
872.785	21268
872.915	21416
873.044	21568
873.173	21454
873.303	21530
873.432	21504
873.561	21663
873.69	21488
873.819	21549
873.948	21496
874.077	21583
874.206	21549
874.335	21568
874.464	21728
874.593	21804
874.722	21781
874.851	21800
874.979	21732
875.108	21865
875.237	21549
875.365	21660
875.494	21656
875.623	21941
875.751	21717
875.88	21861
876.008	21812
876.136	21964
876.265	22200
876.393	22310
876.521	22200
876.65	22166
876.778	22204
876.906	22196
877.034	21994
877.162	22040
877.29	21979
877.418	22093
877.546	22063
877.674	22093
877.802	22017
877.93	22029
878.058	22078
878.185	22090
878.313	22040
878.441	21987
878.568	21991
878.696	22010
878.824	22169
878.951	22143
879.079	22242
879.206	22379
879.333	22303
879.461	22116
879.588	22318
879.715	22223
879.842	22363
879.97	22196
880.097	21918
880.224	21953
880.351	21991
880.478	21991
880.605	21865
880.732	22002
880.859	22067
880.986	21888
881.112	21869
881.239	21869
881.366	21762
881.493	21701
881.619	21564
881.746	21595
881.872	21587
881.999	21454
882.125	21515
882.252	21561
882.378	21443
882.505	21538
882.631	21424
882.757	21256
882.883	21329
883.01	21184
883.136	21249
883.262	21123
883.388	21096
883.514	21184
883.64	21275
883.766	21131
883.892	20830
884.018	21157
884.143	21131
884.269	21112
884.395	21013
884.52	20823
884.646	20876
884.772	20804
884.897	20678
885.023	20910
885.148	20952
885.274	20990
885.399	21089
885.524	20823
885.65	20746
885.775	20861
885.9	20899
886.025	21047
886.15	20963
886.275	20746
886.4	20731
886.525	20697
886.65	20735
886.775	20792
886.9	20994
887.025	21066
887.149	20727
887.274	20621
887.399	20629
887.523	20530
887.648	20537
887.773	20613
887.897	20785
888.021	20701
888.146	20492
888.27	20708
888.395	20777
888.519	20693
888.643	20701
888.767	20648
888.891	20507
889.015	20465
889.139	20598
889.263	20442
889.387	20571
889.511	20571
889.635	20427
889.759	20541
889.883	20408
890.006	20469
890.13	20473
890.254	20278
890.377	20301
890.501	20145
890.624	20187
890.748	20202
890.871	20058
890.995	20008
891.118	20031
891.241	19989
891.364	20058
891.488	20092
891.611	20130
891.734	20149
891.857	20001
891.98	20062
892.103	20077
892.226	20054
892.349	19936
892.471	19799
892.594	19963
892.717	19993
892.839	19879
892.962	20005
893.085	19932
893.207	19883
893.33	19883
893.452	19795
893.575	20031
893.697	19868
893.819	19951
893.941	20202
894.064	19928
894.186	19772
894.308	19723
894.43	20043
894.552	20039
894.674	20027
894.796	19681
894.918	19830
895.04	19928
895.161	19978
895.283	19986
895.405	19852
895.526	19845
895.648	19902
895.769	19902
895.891	19883
896.012	20020
896.134	20035
896.255	19860
896.376	19860
896.498	19978
896.619	19986
896.74	19928
896.861	19978
896.982	20256
897.103	20324
897.224	20145
897.345	20142
897.466	20100
897.587	20142
897.708	20157
897.828	20134
897.949	20054
898.07	20103
898.19	20122
898.311	20218
898.431	20069
898.552	20153
898.672	20221
898.792	20225
898.913	20202
899.033	20005
899.153	20001
899.273	19864
899.393	19883
899.513	19936
899.633	19849
899.753	19868
899.873	19944
899.993	19917
900.113	19845
900.232	19731
900.352	19731
900.472	19632
900.591	19658
900.711	19681
900.83	19635
900.95	19643
901.069	19791
901.189	19674
901.308	19255
901.427	19324
901.546	19236
901.665	19339
901.784	19187
901.904	19133
902.023	19046
902.141	18787
902.26	18768
902.379	18837
902.498	18806
902.617	18673
902.735	18821
902.854	18715
902.973	18616
903.091	18570
903.21	18547
903.328	18448
903.446	18304
903.565	18327
903.683	18281
903.801	18163
903.919	18292
904.038	18144
904.156	17961
904.274	18106
904.392	17958
904.51	17980
904.627	17916
904.745	18114
904.863	18079
904.981	17828
905.098	17642
905.216	17680
905.334	17802
905.451	17729
905.569	17657
905.686	17710
905.803	17676
905.921	17566
906.038	17577
906.155	17505
906.272	17368
906.389	17417
906.506	17292
906.623	17273
906.74	17284
906.857	17170
906.974	17204
907.091	17239
907.208	17277
907.324	17250
907.441	17098
907.557	16976
907.674	16976
907.79	16934
907.907	16850
908.023	16942
908.139	16919
908.256	16778
908.372	16896
908.488	16797
908.604	16660
908.72	16645
908.836	16691
908.952	16618
909.068	16664
909.184	16782
909.3	16733
909.415	16702
909.531	16672
909.647	16417
909.762	16329
909.878	16310
909.993	16440
910.108	16268
910.224	16386
910.339	16398
910.454	16154
910.57	16226
910.685	16131
910.8	16390
910.915	16325
911.03	16219
911.145	16025
911.259	15953
911.374	16029
911.489	16017
911.604	15876
911.718	15667
911.833	15717
911.947	15633
912.062	15519
912.176	15701
912.291	15751
912.405	15774
912.519	15895
912.633	15888
912.748	15751
912.862	15671
912.976	15595
913.09	15481
913.204	15496
913.318	15492
913.431	15679
913.545	15561
913.659	15663
913.772	15466
913.886	15428
914	15287
914.113	15435
914.226	15386
914.34	15424
914.453	15211
914.566	15367
914.68	15150
914.793	15123
914.906	14990
915.019	14948
915.132	14880
915.245	14948
915.358	15043
915.47	14921
915.583	14914
915.696	14963
915.809	15020
915.921	14994
916.034	14861
916.146	14834
916.259	14796
916.371	14933
916.483	14849
916.595	14845
916.708	14796
916.82	14826
916.932	14735
917.044	14678
917.156	14727
917.268	14644
917.38	14590
917.491	14640
917.603	14602
917.715	14655
917.826	14731
917.938	14583
918.049	14469
918.161	14522
918.272	14686
918.384	14674
918.495	14541
918.606	14454
918.717	14275
918.828	14412
918.939	14465
919.05	14362
919.161	14309
919.272	14191
919.383	14225
919.494	14320
919.604	14552
919.715	14252
919.826	14225
919.936	14332
920.047	14267
920.157	14339
920.267	14488
920.378	14263
920.488	14332
920.598	14545
920.708	14708
920.818	14480
920.928	14431
921.038	14610
921.148	14514
921.258	14275
921.368	14172
921.477	14077
921.587	13978
921.697	13982
921.806	14092
921.916	14024
922.025	13807
922.134	13643
922.244	13685
922.353	13662
922.462	13666
922.571	13495
922.68	13388
922.789	13392
922.898	13426
923.007	13384
923.116	13426
923.224	13312
923.333	13350
923.442	13327
923.55	13133
923.659	13175
923.767	13316
923.876	13149
923.984	13289
924.092	12973
924.201	13145
924.309	13095
924.417	13095
924.525	13004
924.633	13046
924.741	13822
924.849	12878
924.956	13019
925.064	12798
925.172	12707
925.279	12715
925.387	12783
925.494	12810
925.602	12871
925.709	12810
925.816	12703
925.924	12669
926.031	12848
926.138	12722
926.245	12772
926.352	12582
926.459	12753
926.566	12814
926.673	12688
926.779	12494
926.886	12536
926.993	12448
927.099	12369
927.206	12376
927.312	12292
927.419	12380
927.525	12262
927.631	12327
927.737	12178
927.843	12182
927.95	12068
928.056	12197
928.162	12136
928.267	12220
928.373	12658
928.479	12232
928.585	11992
928.69	12106
928.796	12194
928.901	12079
929.007	11912
929.112	12003
929.218	11935
929.323	11996
929.428	11939
929.533	12125
929.638	11847
929.743	11859
929.848	11927
929.953	11843
930.058	11726
930.163	11562
930.267	11596
930.372	11703
930.477	11539
930.581	11726
930.685	11634
930.79	11528
930.894	11577
930.998	11463
931.103	11520
931.207	11181
931.311	11189
931.415	11132
931.519	10877
931.623	10839
