Data from test_V78500241_551.txt Node
Date: Fri Mar 25 15:13:41 CST 2022
User: usil
Spectrometer: V785-0024
Trigger mode: 0
Integration Time (sec): 4.000000E-1
Scans to average: 1
Nonlinearity correction enabled: false
Boxcar width: 0
Storing dark spectrum: false
XAxis mode: Wavelengths
Number of Pixels in Spectrum: 1024
>>>>>Begin Spectral Data<<<<<
801.071	27135
801.214	27020
801.356	26792
801.499	26800
801.641	26632
801.783	26667
801.926	26655
802.068	26625
802.211	26518
802.353	26351
802.496	26332
802.638	26180
802.78	26176
802.923	26115
803.065	26320
803.208	26164
803.35	26229
803.492	26286
803.635	26271
803.777	26134
803.919	26290
804.061	26598
804.204	26396
804.346	26229
804.488	26377
804.63	26275
804.773	26119
804.915	26298
805.057	26495
805.199	26480
805.341	26560
805.483	26503
805.626	26355
805.768	26377
805.91	26412
806.052	26294
806.194	26229
806.336	26552
806.478	26438
806.62	26366
806.762	26514
806.904	26735
807.046	26956
807.188	26891
807.33	26781
807.472	26899
807.614	26743
807.756	26781
807.898	26743
808.04	26678
808.182	26678
808.324	26674
808.465	26716
808.607	26895
808.749	26914
808.891	27070
809.033	27119
809.174	27005
809.316	26956
809.458	26979
809.6	27066
809.741	27096
809.883	27176
810.025	27268
810.166	27214
810.308	27424
810.45	27237
810.591	27211
810.733	27024
810.875	26975
811.016	26933
811.158	26940
811.299	27119
811.441	27192
811.582	27100
811.724	26914
811.865	26960
812.007	26918
812.148	27036
812.29	26971
812.431	27093
812.573	27427
812.714	27370
812.855	27496
812.997	27530
813.138	27797
813.279	27667
813.421	27420
813.562	27507
813.703	27317
813.845	27237
813.986	26952
814.127	26815
814.268	26708
814.41	26689
814.551	26590
814.692	26686
814.833	26640
814.974	26655
815.115	26735
815.256	26530
815.397	26644
815.539	26427
815.68	26476
815.821	26393
815.962	26530
816.103	26400
816.244	26263
816.385	26298
816.526	26126
816.666	26062
816.807	25868
816.948	25989
817.089	26065
817.23	26001
817.371	26054
817.512	26027
817.653	25811
817.793	25932
817.934	25921
818.075	26001
818.216	25986
818.356	25921
818.497	25776
818.638	25731
818.778	25666
818.919	25700
819.06	25658
819.2	25864
819.341	25879
819.481	25906
819.622	26084
819.762	26256
819.903	26214
820.043	26008
820.184	26176
820.324	26058
820.465	26088
820.605	26161
820.746	26046
820.886	25883
821.026	26103
821.167	26122
821.307	26119
821.447	25989
821.588	25788
821.728	25753
821.868	25578
822.008	25521
822.149	25388
822.289	25430
822.429	25164
822.569	25114
822.709	25019
822.849	24916
822.99	24958
823.13	24802
823.27	24909
823.41	24810
823.55	24741
823.69	24707
823.83	24810
823.97	24741
824.11	24555
824.25	24433
824.389	24589
824.529	24623
824.669	24612
824.809	24825
824.949	24646
825.089	24684
825.228	24513
825.368	24494
825.508	24445
825.648	24585
825.787	24544
825.927	24505
826.067	24407
826.206	24376
826.346	24407
826.485	24399
826.625	24582
826.765	24555
826.904	24486
827.044	24083
827.183	24266
827.323	24053
827.462	24117
827.601	24239
827.741	24148
827.88	24049
828.02	24022
828.159	24064
828.298	24133
828.437	24178
828.577	24076
828.716	24289
828.855	24053
828.994	23901
829.134	23988
829.273	23927
829.412	23840
829.551	23836
829.69	23786
829.829	23942
829.968	24053
830.107	23999
830.246	23828
830.385	23741
830.524	23703
830.663	23733
830.802	23653
830.941	23463
831.08	23383
831.219	23524
831.357	23577
831.496	23756
831.635	23433
831.774	23459
831.913	23395
832.051	23242
832.19	23303
832.329	23334
832.467	23079
832.606	23162
832.744	23143
832.883	23132
833.022	23113
833.16	23185
833.299	23136
833.437	23197
833.576	23216
833.714	23197
833.852	23235
833.991	23353
834.129	23284
834.267	23292
834.406	23178
834.544	23216
834.682	23208
834.821	23220
834.959	23330
835.097	23200
835.235	23311
835.373	23140
835.511	23246
835.65	23067
835.788	23064
835.926	22904
836.064	22911
836.202	22938
836.34	23086
836.478	23105
836.615	23105
836.753	23113
836.891	23162
837.029	23044
837.167	23067
837.305	23056
837.443	22965
837.58	22934
837.718	22877
837.856	22923
837.993	22919
838.131	23018
838.269	22733
838.406	22797
838.544	22786
838.681	22634
838.819	22569
838.956	22382
839.094	22379
839.231	22516
839.369	22485
839.506	22744
839.643	22592
839.781	22367
839.918	22173
840.055	22462
840.193	22398
840.33	22356
840.467	22455
840.604	22371
840.742	22607
840.879	22268
841.016	22238
841.153	22097
841.29	22516
841.427	22360
841.564	22413
841.701	22204
841.838	22268
841.975	22242
842.112	22181
842.249	22147
842.385	21991
842.522	22192
842.659	22116
842.796	21884
842.933	22040
843.069	22059
843.206	22002
843.343	22124
843.479	22032
843.616	22090
843.752	21808
843.889	21827
844.025	21960
844.162	21907
844.298	21892
844.435	21941
844.571	21778
844.708	21892
844.844	22101
844.98	22017
845.117	21975
845.253	21804
845.389	21789
845.525	21800
845.661	21785
845.798	21629
845.934	21595
846.07	21641
846.206	21618
846.342	21736
846.478	21580
846.614	21355
846.75	21351
846.886	21241
847.022	21378
847.158	21374
847.294	21447
847.429	21378
847.565	21420
847.701	21519
847.837	21077
847.972	21013
848.108	21077
848.244	21138
848.379	21062
848.515	21062
848.65	20944
848.786	20998
848.921	20918
849.057	20986
849.192	21062
849.328	20929
849.463	20887
849.598	20857
849.734	20792
849.869	20708
850.004	20663
850.14	20769
850.275	20648
850.41	20526
850.545	20720
850.68	20724
850.815	20632
850.95	20667
851.085	20937
851.22	20667
851.355	20705
851.49	20617
851.625	20644
851.76	20659
851.895	20632
852.03	20587
852.165	20697
852.299	20697
852.434	20800
852.569	20754
852.703	20758
852.838	20754
852.973	20792
853.107	20785
853.242	20655
853.376	20530
853.511	20366
853.645	20431
853.78	20689
853.914	20629
854.048	20503
854.183	20492
854.317	20484
854.451	20541
854.585	20446
854.72	20507
854.854	20587
854.988	20313
855.122	20488
855.256	20393
855.39	20434
855.524	20568
855.658	20663
855.792	20629
855.926	20431
856.06	20575
856.194	20716
856.327	20488
856.461	20400
856.595	20446
856.729	20522
856.862	20560
856.996	20598
857.13	20640
857.263	20579
857.397	20636
857.53	20530
857.664	20617
857.797	20651
857.931	20629
858.064	20488
858.197	20659
858.331	20473
858.464	20385
858.597	20408
858.731	20495
858.864	20423
858.997	20499
859.13	20568
859.263	20499
859.396	20640
859.529	20552
859.662	20530
859.795	20530
859.928	20522
860.061	20590
860.194	20708
860.327	20644
860.46	20579
860.592	20667
860.725	20625
860.858	20514
860.99	20457
861.123	20408
861.256	20419
861.388	20526
861.521	21203
861.653	20442
861.786	20282
861.918	20408
862.05	20237
862.183	20396
862.315	20438
862.447	20412
862.58	20336
862.712	20298
862.844	20237
862.976	20252
863.108	20206
863.24	20621
863.372	20267
863.504	20309
863.636	20199
863.768	20225
863.9	20301
864.032	20168
864.164	20138
864.296	20256
864.428	20370
864.559	20305
864.691	20210
864.823	20267
864.954	20332
865.086	20161
865.217	20134
865.349	20008
865.48	20134
865.612	20149
865.743	20320
865.875	20122
866.006	20199
866.137	20145
866.269	20111
866.4	20119
866.531	20092
866.662	20054
866.793	20054
866.924	20111
867.055	20161
867.186	20149
867.317	20031
867.448	20016
867.579	20046
867.71	20100
867.841	20039
867.972	20016
868.103	20138
868.233	20122
868.364	20172
868.495	20100
868.625	20385
868.756	20461
868.886	20237
869.017	20336
869.147	20434
869.278	20427
869.408	20298
869.539	20343
869.669	20214
869.799	20393
869.929	20469
870.06	20537
870.19	20674
870.32	20533
870.45	20617
870.58	20754
870.71	20746
870.84	20834
870.97	20644
871.1	20667
871.23	20857
871.36	20967
871.489	20823
871.619	20944
871.749	20876
871.879	20921
872.008	21074
872.138	20963
872.267	20975
872.397	20750
872.526	20716
872.656	20796
872.785	20670
872.915	20925
873.044	21047
873.173	20823
873.303	21024
873.432	20975
873.561	21058
873.69	20906
873.819	20921
873.948	21013
874.077	20868
874.206	20948
874.335	21055
874.464	21081
874.593	21131
874.722	21074
874.851	21367
874.979	21325
875.108	21310
875.237	21077
875.365	20982
875.494	21173
875.623	21252
875.751	21157
875.88	21203
876.008	21298
876.136	21348
876.265	21519
876.393	21667
876.521	21599
876.65	21549
876.778	21580
876.906	21595
877.034	21542
877.162	21538
877.29	21469
877.418	21625
877.546	21625
877.674	21481
877.802	21496
877.93	21496
878.058	21519
878.185	21428
878.313	21473
878.441	21492
878.568	21374
878.696	21348
878.824	21564
878.951	21576
879.079	21865
879.206	21884
879.333	21686
879.461	21435
879.588	21747
879.715	21736
879.842	21728
879.97	21644
880.097	21340
880.224	21344
880.351	21386
880.478	21351
880.605	21325
880.732	21325
880.859	21435
880.986	21428
881.112	21500
881.239	21214
881.366	21024
881.493	20986
881.619	20864
881.746	20990
881.872	20960
881.999	20941
882.125	20967
882.252	21043
882.378	20872
882.505	21005
882.631	20693
882.757	20697
882.883	20701
883.01	20651
883.136	20575
883.262	20450
883.388	20488
883.514	20727
883.64	20609
883.766	20526
883.892	20434
884.018	20507
884.143	20667
884.269	20727
884.395	20370
884.52	20278
884.646	20339
884.772	20199
884.897	20248
885.023	20286
885.148	20393
885.274	20454
885.399	20362
885.524	20301
885.65	20343
885.775	20282
885.9	20339
886.025	20404
886.15	20419
886.275	20301
886.4	20214
886.525	20263
886.65	20298
886.775	20275
886.9	20423
887.025	20465
887.149	20202
887.274	20168
887.399	20058
887.523	20054
887.648	19917
887.773	20031
887.897	20115
888.021	20119
888.146	20062
888.27	20115
888.395	20191
888.519	20103
888.643	20107
888.767	20073
888.891	20073
889.015	19967
889.139	19864
889.263	19849
889.387	20046
889.511	19997
889.635	19890
889.759	19814
889.883	19852
890.006	19921
890.13	20107
890.254	19814
890.377	19898
890.501	19525
890.624	19578
890.748	19738
890.871	19559
890.995	19438
891.118	19491
891.241	19544
891.364	19449
891.488	19556
891.611	19365
891.734	19514
891.857	19518
891.98	19460
892.103	19529
892.226	19563
892.349	19426
892.471	19392
892.594	19362
892.717	19457
892.839	19339
892.962	19377
893.085	19472
893.207	19499
893.33	19297
893.452	19324
893.575	19327
893.697	19365
893.819	19525
893.941	19487
894.064	19613
894.186	19289
894.308	19289
894.43	19422
894.552	19518
894.674	19419
894.796	19289
894.918	19377
895.04	19259
895.161	19449
895.283	19354
895.405	19335
895.526	19438
895.648	19263
895.769	19381
895.891	19464
896.012	19419
896.134	19480
896.255	19434
896.376	19327
896.498	19384
896.619	19445
896.74	19430
896.861	19407
896.982	19769
897.103	19696
897.224	19704
897.345	19590
897.466	19632
897.587	19666
897.708	19693
897.828	19643
897.949	19613
898.07	19449
898.19	19453
898.311	19746
898.431	19643
898.552	19594
898.672	19719
898.792	19643
898.913	19567
899.033	19445
899.153	19343
899.273	19324
899.393	19392
899.513	19411
899.633	19445
899.753	19457
899.873	19304
899.993	19327
900.113	19388
900.232	19320
900.352	19122
900.472	19156
900.591	19103
900.711	19190
900.83	19198
900.95	19225
901.069	19278
901.189	19091
901.308	18928
901.427	18681
901.546	18673
901.665	18715
901.784	18791
901.904	18711
902.023	18540
902.141	18426
902.26	18296
902.379	18300
902.498	18323
902.617	18334
902.735	18213
902.854	18239
902.973	18201
903.091	17958
903.21	18053
903.328	17980
903.446	17847
903.565	17714
903.683	17813
903.801	17699
903.919	17764
904.038	17756
904.156	17573
904.274	17566
904.392	17463
904.51	17524
904.627	17551
904.745	17562
904.863	17573
904.981	17345
905.098	17143
905.216	17227
905.334	17261
905.451	17223
905.569	17090
905.686	17216
905.803	17239
905.921	16995
906.038	17174
906.155	17014
906.272	16942
906.389	16965
906.506	16774
906.623	16850
906.74	16717
906.857	16561
906.974	16748
907.091	16809
907.208	16889
907.324	16805
907.441	16645
907.557	16588
907.674	16447
907.79	16489
907.907	16485
908.023	16523
908.139	16531
908.256	16466
908.372	16421
908.488	16379
908.604	16143
908.72	16322
908.836	16166
908.952	16192
909.068	16287
909.184	16352
909.3	16215
909.415	16261
909.531	16185
909.647	16082
909.762	15937
909.878	15979
909.993	15998
910.108	15968
910.224	15869
910.339	15941
910.454	15774
910.57	15774
910.685	15690
910.8	15918
910.915	15816
911.03	15637
911.145	15622
911.259	15606
911.374	15538
911.489	15424
911.604	15382
911.718	15275
911.833	15283
911.947	15195
912.062	15104
912.176	15294
912.291	15298
912.405	15252
912.519	15492
912.633	15538
912.748	15298
912.862	15237
912.976	15100
913.09	15024
913.204	15047
913.318	15104
913.431	15142
913.545	15203
913.659	15184
913.772	15001
913.886	15017
914	14823
914.113	15001
914.226	15043
914.34	14998
914.453	14921
914.566	14918
914.68	14834
914.793	14800
914.906	14632
915.019	14568
915.132	14465
915.245	14590
915.358	14434
915.47	14598
915.583	14537
915.696	14587
915.809	14651
915.921	14629
916.034	14469
916.146	14415
916.259	14457
916.371	14454
916.483	14514
916.595	14385
916.708	14339
916.82	14404
916.932	14313
917.044	14244
917.156	14347
917.268	14229
917.38	14225
917.491	14210
917.603	14191
917.715	14301
917.826	14317
917.938	14138
918.049	14058
918.161	14145
918.272	14301
918.384	14358
918.495	14157
918.606	14103
918.717	13955
918.828	13951
918.939	14100
919.05	13864
919.161	14073
919.272	13757
919.383	13898
919.494	13917
919.604	14142
919.715	13909
919.826	13894
919.936	13970
920.047	13989
920.157	13978
920.267	14058
920.378	13955
920.488	13860
920.598	14172
920.708	14240
920.818	14077
920.928	14123
921.038	14233
921.148	14054
921.258	13887
921.368	13799
921.477	13708
921.587	13651
921.697	13521
921.806	13677
921.916	13582
922.025	13419
922.134	13259
922.244	13331
922.353	13472
922.462	13202
922.571	13213
922.68	13084
922.789	12966
922.898	12985
923.007	12924
923.116	13038
923.224	12977
923.333	12973
923.442	12825
923.55	12859
923.659	12966
923.767	12875
923.876	12840
923.984	12863
924.092	12783
924.201	12677
924.309	12814
924.417	12703
924.525	12707
924.633	12745
924.741	13460
924.849	12506
924.956	12582
925.064	12540
925.172	12471
925.279	12399
925.387	12426
925.494	12422
925.602	12684
925.709	12502
925.816	12384
925.924	12471
926.031	12490
926.138	12464
926.245	12357
926.352	12361
926.459	12513
926.566	12448
926.673	12319
926.779	12270
926.886	12213
926.993	11988
927.099	12015
927.206	12026
927.312	11984
927.419	12114
927.525	12034
927.631	11999
927.737	11916
927.843	11920
927.95	11775
928.056	11893
928.162	11885
928.267	11885
928.373	12403
928.479	11961
928.585	11729
928.69	11783
928.796	11904
928.901	11729
929.007	11566
929.112	11688
929.218	11680
929.323	11585
929.428	11592
929.533	11779
929.638	11501
929.743	11684
929.848	11722
929.953	11486
930.058	11474
930.163	11330
930.267	11307
930.372	11398
930.477	11303
930.581	11516
930.685	11425
930.79	11208
930.894	11242
930.998	11239
931.103	11391
931.207	10946
931.311	10828
931.415	10797
931.519	10630
931.623	10546
