Data from test_V78500241_1707.txt Node
Date: Fri Mar 25 15:21:44 CST 2022
User: usil
Spectrometer: V785-0024
Trigger mode: 0
Integration Time (sec): 4.000000E-1
Scans to average: 1
Nonlinearity correction enabled: false
Boxcar width: 0
Storing dark spectrum: false
XAxis mode: Wavelengths
Number of Pixels in Spectrum: 1024
>>>>>Begin Spectral Data<<<<<
801.071	27694
801.214	27690
801.356	27492
801.499	27321
801.641	27195
801.783	27176
801.926	27195
802.068	27230
802.211	27157
802.353	27039
802.496	26944
802.638	27009
802.78	26895
802.923	26849
803.065	26727
803.208	26811
803.35	26830
803.492	26998
803.635	27028
803.777	26982
803.919	27131
804.061	27378
804.204	27150
804.346	27043
804.488	26925
804.63	27039
804.773	26887
804.915	27005
805.057	27203
805.199	26940
805.341	27161
805.483	27230
805.626	27195
805.768	27013
805.91	27146
806.052	27211
806.194	27203
806.336	27355
806.478	27397
806.62	27142
806.762	27363
806.904	27405
807.046	27648
807.188	27671
807.33	27739
807.472	27743
807.614	27572
807.756	27485
807.898	27443
808.04	27313
808.182	27416
808.324	27359
808.465	27542
808.607	27629
808.749	27762
808.891	27793
809.033	27987
809.174	27934
809.316	27842
809.458	27899
809.6	27705
809.741	27884
809.883	27941
810.025	28048
810.166	28002
810.308	28116
810.45	28048
810.591	28002
810.733	27724
810.875	27679
811.016	27717
811.158	27667
811.299	27835
811.441	27903
811.582	27884
811.724	27884
811.865	27667
812.007	27656
812.148	27835
812.29	27861
812.431	28006
812.573	28204
812.714	28249
812.855	28322
812.997	28367
813.138	28470
813.279	28508
813.421	28272
813.562	28314
813.703	28109
813.845	28166
813.986	27709
814.127	27553
814.268	27507
814.41	27583
814.551	27363
814.692	27553
814.833	27397
814.974	27492
815.115	27622
815.256	27344
815.397	27370
815.539	27412
815.68	27389
815.821	27272
815.962	27389
816.103	27199
816.244	27146
816.385	26967
816.526	27013
816.666	26899
816.807	26746
816.948	26796
817.089	26606
817.23	26708
817.371	26625
817.512	26735
817.653	26629
817.793	26788
817.934	26807
818.075	26826
818.216	26807
818.356	26777
818.497	26560
818.638	26427
818.778	26469
818.919	26511
819.06	26663
819.2	26708
819.341	26762
819.481	26670
819.622	26815
819.762	27214
819.903	27001
820.043	26815
820.184	26857
820.324	26834
820.465	27009
820.605	26838
820.746	26796
820.886	26629
821.026	26929
821.167	26743
821.307	26887
821.447	26769
821.588	26663
821.728	26465
821.868	26453
822.008	26100
822.149	26122
822.289	26221
822.429	26122
822.569	25913
822.709	25708
822.849	25822
822.99	25791
823.13	25696
823.27	25757
823.41	25670
823.55	25445
823.69	25518
823.83	25483
823.97	25411
824.11	25327
824.25	25369
824.389	25282
824.529	25460
824.669	25339
824.809	25441
824.949	25521
825.089	25445
825.228	25422
825.368	25304
825.508	25255
825.648	25251
825.787	25247
825.927	25244
826.067	25190
826.206	25190
826.346	25354
826.485	25213
826.625	25183
826.765	25297
826.904	25282
827.044	25103
827.183	25126
827.323	24878
827.462	24996
827.601	25015
827.741	24973
827.88	24985
828.02	24783
828.159	24992
828.298	24977
828.437	24901
828.577	24985
828.716	25072
828.855	24897
828.994	24684
829.134	24536
829.273	24757
829.412	24677
829.551	24639
829.69	24719
829.829	24730
829.968	24886
830.107	24730
830.246	24741
830.385	24601
830.524	24612
830.663	24464
830.802	24350
830.941	24194
831.08	24209
831.219	24353
831.357	24426
831.496	24479
831.635	24300
831.774	24235
831.913	24121
832.051	24038
832.19	24068
832.329	23920
832.467	24018
832.606	23935
832.744	23878
832.883	23878
833.022	23904
833.16	23908
833.299	24133
833.437	23961
833.576	24148
833.714	24045
833.852	24003
833.991	23999
834.129	23927
834.267	24136
834.406	24007
834.544	24076
834.682	24030
834.821	24087
834.959	24213
835.097	23950
835.235	24045
835.373	23999
835.511	24171
835.65	23950
835.788	23969
835.926	23817
836.064	23813
836.202	23653
836.34	23863
836.478	23847
836.615	23668
836.753	23866
836.891	23916
837.029	23805
837.167	23707
837.305	23722
837.443	23707
837.58	23710
837.718	23745
837.856	23722
837.993	23653
838.131	23748
838.269	23589
838.406	23585
838.544	23417
838.681	23345
838.819	23277
838.956	23204
839.094	23098
839.231	23223
839.369	23349
839.506	23524
839.643	23440
839.781	23105
839.918	23090
840.055	23181
840.193	23136
840.33	23086
840.467	23048
840.604	23208
840.742	23349
840.879	22968
841.016	23056
841.153	23094
841.29	23212
841.427	23143
841.564	23060
841.701	23079
841.838	22976
841.975	22953
842.112	23022
842.249	22911
842.385	22904
842.522	22995
842.659	22908
842.796	22831
842.933	22850
843.069	22744
843.206	22858
843.343	22809
843.479	22801
843.616	22961
843.752	22557
843.889	22694
844.025	22790
844.162	22645
844.298	22599
844.435	22584
844.571	22664
844.708	22687
844.844	22759
844.98	22858
845.117	22763
845.253	22466
845.389	22451
845.525	22447
845.661	22512
845.798	22341
845.934	22348
846.07	22291
846.206	22314
846.342	22417
846.478	22375
846.614	22272
846.75	22059
846.886	22105
847.022	22131
847.158	22124
847.294	22074
847.429	22177
847.565	22147
847.701	22409
847.837	21907
847.972	21857
848.108	21770
848.244	21808
848.379	21625
848.515	21698
848.65	21629
848.786	21652
848.921	21656
849.057	21736
849.192	21739
849.328	21800
849.463	21766
849.598	21599
849.734	21637
849.869	21515
850.004	21534
850.14	21443
850.275	21397
850.41	21401
850.545	21405
850.68	21348
850.815	21450
850.95	21275
851.085	21717
851.22	21515
851.355	21591
851.49	21351
851.625	21488
851.76	21420
851.895	21294
852.03	21473
852.165	21507
852.299	21507
852.434	21485
852.569	21557
852.703	21507
852.838	21538
852.973	21572
853.107	21538
853.242	21450
853.376	21264
853.511	21218
853.645	21218
853.78	21477
853.914	21275
854.048	21245
854.183	21252
854.317	21279
854.451	21580
854.585	21306
854.72	21306
854.854	21367
854.988	21321
855.122	21389
855.256	21256
855.39	21344
855.524	21515
855.658	21447
855.792	21283
855.926	21214
856.06	21393
856.194	21420
856.327	21283
856.461	21226
856.595	21332
856.729	21306
856.862	21378
856.996	21382
857.13	21393
857.263	21363
857.397	21469
857.53	21294
857.664	21313
857.797	21412
857.931	21439
858.064	21329
858.197	21416
858.331	21317
858.464	21378
858.597	21169
858.731	21325
858.864	21321
858.997	21192
859.13	21329
859.263	21291
859.396	21408
859.529	21291
859.662	21272
859.795	21264
859.928	21351
860.061	21431
860.194	21488
860.327	21408
860.46	21226
860.592	21507
860.725	21526
860.858	21477
860.99	21249
861.123	21100
861.256	21214
861.388	21302
861.521	21983
861.653	21169
861.786	21047
861.918	21005
862.05	21176
862.183	21294
862.315	21180
862.447	21302
862.58	21176
862.712	21093
862.844	21119
862.976	21154
863.108	21104
863.24	21454
863.372	20979
863.504	21001
863.636	21039
863.768	21024
863.9	21028
864.032	20838
864.164	20948
864.296	21077
864.428	20990
864.559	20994
864.691	20975
864.823	21036
864.954	21039
865.086	20982
865.217	20876
865.349	20868
865.48	20887
865.612	20819
865.743	21089
865.875	20963
866.006	20754
866.137	20944
866.269	20864
866.4	20872
866.531	20823
866.662	20842
866.793	20834
866.924	20864
867.055	20826
867.186	20880
867.317	20804
867.448	20708
867.579	20769
867.71	20792
867.841	20758
867.972	20842
868.103	20853
868.233	20819
868.364	20804
868.495	20842
868.625	21020
868.756	21211
868.886	20910
869.017	21070
869.147	21123
869.278	21268
869.408	21112
869.539	21100
869.669	21222
869.799	21104
869.929	21119
870.06	21119
870.19	21363
870.32	21370
870.45	21477
870.58	21431
870.71	21583
870.84	21511
870.97	21469
871.1	21485
871.23	21641
871.36	21542
871.489	21690
871.619	21656
871.749	21538
871.879	21606
872.008	21850
872.138	21690
872.267	21644
872.397	21481
872.526	21625
872.656	21549
872.785	21504
872.915	21667
873.044	21804
873.173	21679
873.303	21713
873.432	21747
873.561	21827
873.69	21705
873.819	21709
873.948	21759
874.077	21789
874.206	21637
874.335	21713
874.464	21789
874.593	21873
874.722	21819
874.851	22010
874.979	21926
875.108	21998
875.237	21865
875.365	21808
875.494	21918
875.623	21987
875.751	21827
875.88	21983
876.008	21991
876.136	22139
876.265	22295
876.393	22478
876.521	22417
876.65	22360
876.778	22284
876.906	22200
877.034	22135
877.162	22303
877.29	22154
877.418	22272
877.546	22272
877.674	22322
877.802	22329
877.93	22303
878.058	22261
878.185	22135
878.313	22188
878.441	22249
878.568	22067
878.696	22261
878.824	22344
878.951	22398
879.079	22386
879.206	22645
879.333	22356
879.461	22253
879.588	22337
879.715	22493
879.842	22504
879.97	22333
880.097	22105
880.224	22097
880.351	22128
880.478	22131
880.605	22116
880.732	22025
880.859	22402
880.986	22048
881.112	22086
881.239	21876
881.366	21823
881.493	21781
881.619	21751
881.746	21679
881.872	21720
881.999	21679
882.125	21561
882.252	21739
882.378	21515
882.505	21812
882.631	21507
882.757	21355
882.883	21393
883.01	21386
883.136	21260
883.262	21150
883.388	21214
883.514	21359
883.64	21408
883.766	21268
883.892	21070
884.018	21173
884.143	21275
884.269	21325
884.395	21100
884.52	20921
884.646	20899
884.772	20929
884.897	20857
885.023	21009
885.148	21089
885.274	21081
885.399	21108
885.524	20929
885.65	21009
885.775	21032
885.9	20921
886.025	21112
886.15	21081
886.275	20967
886.4	20910
886.525	20975
886.65	20895
886.775	20906
886.9	21184
887.025	21157
887.149	20975
887.274	20720
887.399	20785
887.523	20792
887.648	20739
887.773	20815
887.897	20921
888.021	20849
888.146	20758
888.27	20807
888.395	20800
888.519	20762
888.643	20739
888.767	20823
888.891	20746
889.015	20632
889.139	20583
889.263	20579
889.387	20773
889.511	20788
889.635	20678
889.759	20564
889.883	20571
890.006	20598
890.13	20670
890.254	20473
890.377	20457
890.501	20362
890.624	20362
890.748	20351
890.871	20240
890.995	20149
891.118	20164
891.241	20248
891.364	20073
891.488	20256
891.611	20069
891.734	20145
891.857	20221
891.98	20149
892.103	20134
892.226	20126
892.349	20157
892.471	19887
892.594	20092
892.717	20202
892.839	19936
892.962	20065
893.085	20111
893.207	20191
893.33	19936
893.452	19978
893.575	19986
893.697	20012
893.819	20221
893.941	20259
894.064	20183
894.186	20020
894.308	19974
894.43	20046
894.552	20332
894.674	20218
894.796	19959
894.918	19909
895.04	20084
895.161	20153
895.283	20062
895.405	19788
895.526	19989
895.648	20031
895.769	19879
895.891	20130
896.012	20058
896.134	20065
896.255	19967
896.376	20012
896.498	20092
896.619	20005
896.74	20046
896.861	20062
896.982	20415
897.103	20537
897.224	20267
897.345	20313
897.466	20252
897.587	20119
897.708	20476
897.828	20199
897.949	20206
898.07	19989
898.19	20107
898.311	20229
898.431	20259
898.552	20202
898.672	20301
898.792	20385
898.913	20267
899.033	20050
899.153	20092
899.273	19925
899.393	20043
899.513	20103
899.633	20043
899.753	19932
899.873	19951
899.993	20001
900.113	19982
900.232	20043
900.352	19963
900.472	19887
900.591	19776
900.711	19788
900.83	19780
900.95	19875
901.069	19845
901.189	19613
901.308	19426
901.427	19422
901.546	19324
901.665	19293
901.784	19343
901.904	19346
902.023	19099
902.141	19053
902.26	18928
902.379	19046
902.498	18875
902.617	18894
902.735	18829
902.854	18913
902.973	18764
903.091	18635
903.21	18574
903.328	18608
903.446	18395
903.565	18350
903.683	18346
903.801	18148
903.919	18369
904.038	18384
904.156	18140
904.274	18167
904.392	18110
904.51	18102
904.627	18144
904.745	18152
904.863	18178
904.981	17980
905.098	17912
905.216	17859
905.334	17840
905.451	17798
905.569	17737
905.686	17794
905.803	17771
905.921	17471
906.038	17775
906.155	17596
906.272	17493
906.389	17501
906.506	17303
906.623	17322
906.74	17334
906.857	17223
906.974	17227
907.091	17444
907.208	17410
907.324	17471
907.441	17242
907.557	17178
907.674	17079
907.79	16961
907.907	16999
908.023	17060
908.139	16934
908.256	16999
908.372	16889
908.488	16900
908.604	16778
908.72	16771
908.836	16702
908.952	16733
909.068	16790
909.184	16831
909.3	16717
909.415	16755
909.531	16615
909.647	16561
909.762	16588
909.878	16550
909.993	16455
910.108	16523
910.224	16500
910.339	16466
910.454	16371
910.57	16341
910.685	16234
910.8	16497
910.915	16432
911.03	16181
911.145	16044
911.259	16097
911.374	16086
911.489	15987
911.604	15888
911.718	15842
911.833	15842
911.947	15728
912.062	15694
912.176	15819
912.291	15785
912.405	15785
912.519	16051
912.633	16063
912.748	15823
912.862	15770
912.976	15576
913.09	15576
913.204	15557
913.318	15591
913.431	15720
913.545	15823
913.659	15667
913.772	15587
913.886	15469
914	15485
914.113	15561
914.226	15534
914.34	15572
914.453	15408
914.566	15447
914.68	15298
914.793	15340
914.906	15039
915.019	15005
915.132	14956
915.245	14994
915.358	15138
915.47	15146
915.583	15020
915.696	15089
915.809	15195
915.921	15169
916.034	14963
916.146	14963
916.259	14914
916.371	14986
916.483	14918
916.595	14849
916.708	14861
916.82	14845
916.932	14830
917.044	14826
917.156	14815
917.268	14663
917.38	14754
917.491	14750
917.603	14735
917.715	14769
917.826	14777
917.938	14602
918.049	14590
918.161	14651
918.272	14769
918.384	14743
918.495	14674
918.606	14446
918.717	14469
918.828	14465
918.939	14514
919.05	14393
919.161	14476
919.272	14214
919.383	14263
919.494	14434
919.604	14644
919.715	14393
919.826	14351
919.936	14294
920.047	14495
920.157	14298
920.267	14602
920.378	14446
920.488	14385
920.598	14590
920.708	14689
920.818	14583
920.928	14579
921.038	14632
921.148	14629
921.258	14343
921.368	14240
921.477	14183
921.587	14111
921.697	13940
921.806	14176
921.916	13951
922.025	13879
922.134	13769
922.244	13693
922.353	13879
922.462	13719
922.571	13624
922.68	13480
922.789	13434
922.898	13407
923.007	13343
923.116	13476
923.224	13457
923.333	13392
923.442	13316
923.55	13266
923.659	13301
923.767	13308
923.876	13282
923.984	13217
924.092	13103
924.201	13179
924.309	13225
924.417	13160
924.525	13076
924.633	13145
924.741	13894
924.849	12913
924.956	13050
925.064	12878
925.172	12867
925.279	12814
925.387	12890
925.494	12852
925.602	12958
925.709	12916
925.816	12726
925.924	12795
926.031	12973
926.138	12856
926.245	12829
926.352	12673
926.459	12840
926.566	12894
926.673	12787
926.779	12642
926.886	12574
926.993	12475
927.099	12418
927.206	12342
927.312	12365
927.419	12399
927.525	12414
927.631	12410
927.737	12334
927.843	12277
927.95	12106
928.056	12258
928.162	12235
928.267	12456
928.373	12852
928.479	12342
928.585	12095
928.69	12190
928.796	12258
928.901	12148
929.007	11958
929.112	12125
929.218	12106
929.323	11996
929.428	11942
929.533	12076
929.638	11935
929.743	11847
929.848	11984
929.953	11859
930.058	11771
930.163	11661
930.267	11691
930.372	11847
930.477	11638
930.581	11855
930.685	11638
930.79	11596
930.894	11482
930.998	11512
931.103	11653
931.207	11280
931.311	11288
931.415	11105
931.519	10991
931.623	10976
