Data from test_V78500241_1817.txt Node
Date: Fri Mar 25 15:22:30 CST 2022
User: usil
Spectrometer: V785-0024
Trigger mode: 0
Integration Time (sec): 4.000000E-1
Scans to average: 1
Nonlinearity correction enabled: false
Boxcar width: 0
Storing dark spectrum: false
XAxis mode: Wavelengths
Number of Pixels in Spectrum: 1024
>>>>>Begin Spectral Data<<<<<
801.071	27850
801.214	27876
801.356	27431
801.499	27321
801.641	27287
801.783	27260
801.926	27382
802.068	27348
802.211	27389
802.353	27142
802.496	27058
802.638	27032
802.78	26819
802.923	26891
803.065	26876
803.208	26830
803.35	27005
803.492	26967
803.635	27188
803.777	26990
803.919	27192
804.061	27587
804.204	27230
804.346	27184
804.488	27138
804.63	27245
804.773	27017
804.915	27218
805.057	27199
805.199	27283
805.341	27230
805.483	27329
805.626	27241
805.768	27138
805.91	27332
806.052	27294
806.194	27207
806.336	27504
806.478	27332
806.62	27283
806.762	27473
806.904	27469
807.046	27903
807.188	27698
807.33	27835
807.472	27690
807.614	27648
807.756	27629
807.898	27564
808.04	27454
808.182	27401
808.324	27679
808.465	27713
808.607	27861
808.749	27778
808.891	28006
809.033	28112
809.174	27918
809.316	27945
809.458	27956
809.6	27876
809.741	28097
809.883	28135
810.025	28219
810.166	28211
810.308	28154
810.45	28173
810.591	28200
810.733	28067
810.875	27717
811.016	27903
811.158	27648
811.299	28040
811.441	28097
811.582	27941
811.724	27804
811.865	27880
812.007	27895
812.148	27934
812.29	28051
812.431	28017
812.573	28261
812.714	28413
812.855	28500
812.997	28596
813.138	28649
813.279	28535
813.421	28398
813.562	28333
813.703	28284
813.845	28105
813.986	27854
814.127	27717
814.268	27549
814.41	27701
814.551	27603
814.692	27797
814.833	27637
814.974	27561
815.115	27698
815.256	27542
815.397	27469
815.539	27561
815.68	27363
815.821	27332
815.962	27302
816.103	27481
816.244	27340
816.385	27222
816.526	27085
816.666	27005
816.807	26887
816.948	26807
817.089	27032
817.23	27001
817.371	26975
817.512	26895
817.653	26910
817.793	26914
817.934	27001
818.075	26838
818.216	26845
818.356	26773
818.497	26762
818.638	26746
818.778	26708
818.919	26686
819.06	26693
819.2	26735
819.341	26982
819.481	26762
819.622	27096
819.762	27329
819.903	27127
820.043	27108
820.184	27081
820.324	27112
820.465	27100
820.605	26994
820.746	26982
820.886	26838
821.026	26990
821.167	26918
821.307	27173
821.447	26925
821.588	26731
821.728	26682
821.868	26484
822.008	26488
822.149	26336
822.289	26336
822.429	26191
822.569	26134
822.709	26088
822.849	25989
822.99	26012
823.13	25849
823.27	25791
823.41	25784
823.55	25529
823.69	25734
823.83	25628
823.97	25601
824.11	25502
824.25	25343
824.389	25529
824.529	25567
824.669	25487
824.809	25704
824.949	25712
825.089	25571
825.228	25571
825.368	25422
825.508	25324
825.648	25426
825.787	25472
825.927	25373
826.067	25358
826.206	25270
826.346	25396
826.485	25434
826.625	25491
826.765	25460
826.904	25460
827.044	25213
827.183	25213
827.323	25000
827.462	25240
827.601	25088
827.741	25110
827.88	25141
828.02	24989
828.159	24977
828.298	25126
828.437	25232
828.577	25103
828.716	25171
828.855	25072
828.994	24757
829.134	24764
829.273	24954
829.412	24932
829.551	24764
829.69	24764
829.829	24882
829.968	24863
830.107	24875
830.246	24905
830.385	24848
830.524	24776
830.663	24589
830.802	24555
830.941	24513
831.08	24479
831.219	24479
831.357	24585
831.496	24707
831.635	24479
831.774	24342
831.913	24350
832.051	24266
832.19	24194
832.329	24182
832.467	24174
832.606	24026
832.744	24148
832.883	24152
833.022	24007
833.16	24129
833.299	24072
833.437	24106
833.576	24289
833.714	24251
833.852	24300
833.991	24102
834.129	24403
834.267	24243
834.406	24201
834.544	24201
834.682	24174
834.821	24155
834.959	24353
835.097	24148
835.235	24205
835.373	24205
835.511	24197
835.65	24034
835.788	24129
835.926	23954
836.064	23874
836.202	23961
836.34	24106
836.478	24015
836.615	24015
836.753	24022
836.891	24083
837.029	24098
837.167	23984
837.305	23851
837.443	23969
837.58	23843
837.718	23878
837.856	23969
837.993	23843
838.131	23931
838.269	23703
838.406	23733
838.544	23623
838.681	23547
838.819	23581
838.956	23299
839.094	23364
839.231	23512
839.369	23627
839.506	23695
839.643	23615
839.781	23474
839.918	23284
840.055	23364
840.193	23159
840.33	23292
840.467	23128
840.604	23429
840.742	23505
840.879	23162
841.016	23273
841.153	23174
841.29	23311
841.427	23277
841.564	23383
841.701	23246
841.838	23277
841.975	23254
842.112	23075
842.249	23056
842.385	22968
842.522	23216
842.659	23060
842.796	23067
842.933	23029
843.069	22923
843.206	23037
843.343	23147
843.479	23025
843.616	23056
843.752	22824
843.889	22702
844.025	22991
844.162	22854
844.298	22782
844.435	22824
844.571	22881
844.708	22900
844.844	22938
844.98	23018
845.117	22919
845.253	22801
845.389	22615
845.525	22675
845.661	22702
845.798	22569
845.934	22573
846.07	22451
846.206	22634
846.342	22603
846.478	22405
846.614	22409
846.75	22253
846.886	22188
847.022	22390
847.158	22295
847.294	22253
847.429	22382
847.565	22188
847.701	22535
847.837	22055
847.972	21994
848.108	22109
848.244	22048
848.379	21861
848.515	21884
848.65	21861
848.786	21835
848.921	21930
849.057	21964
849.192	21994
849.328	21838
849.463	21850
849.598	21778
849.734	21899
849.869	21797
850.004	21671
850.14	21644
850.275	21625
850.41	21492
850.545	21591
850.68	21591
850.815	21743
850.95	21568
851.085	21690
851.22	21781
851.355	21633
851.49	21534
851.625	21564
851.76	21568
851.895	21625
852.03	21568
852.165	21690
852.299	21663
852.434	21728
852.569	21698
852.703	21663
852.838	21599
852.973	21736
853.107	21701
853.242	21511
853.376	21473
853.511	21272
853.645	21405
853.78	21663
853.914	21534
854.048	21473
854.183	21447
854.317	21393
854.451	21686
854.585	21538
854.72	21530
854.854	21644
854.988	21363
855.122	21557
855.256	21443
855.39	21462
855.524	21534
855.658	21545
855.792	21583
855.926	21526
856.06	21393
856.194	21595
856.327	21454
856.461	21443
856.595	21473
856.729	21439
856.862	21561
856.996	21447
857.13	21507
857.263	21595
857.397	21641
857.53	21500
857.664	21393
857.797	21492
857.931	21553
858.064	21572
858.197	21599
858.331	21534
858.464	21428
858.597	21306
858.731	21481
858.864	21389
858.997	21412
859.13	21466
859.263	21504
859.396	21629
859.529	21408
859.662	21336
859.795	21408
859.928	21397
860.061	21652
860.194	21641
860.327	21534
860.46	21523
860.592	21656
860.725	21690
860.858	21736
860.99	21336
861.123	21355
861.256	21473
861.388	21534
861.521	22143
861.653	21412
861.786	21298
861.918	21294
862.05	21344
862.183	21454
862.315	21450
862.447	21359
862.58	21344
862.712	21218
862.844	21150
862.976	21207
863.108	21142
863.24	21557
863.372	21252
863.504	21180
863.636	21127
863.768	21203
863.9	21112
864.032	21138
864.164	21081
864.296	21226
864.428	21256
864.559	21245
864.691	21230
864.823	21150
864.954	21085
865.086	21116
865.217	21119
865.349	20986
865.48	20963
865.612	21116
865.743	21180
865.875	21089
866.006	21020
866.137	21055
866.269	21039
866.4	21089
866.531	21013
866.662	21009
866.793	20929
866.924	20861
867.055	21036
867.186	20906
867.317	20864
867.448	20910
867.579	20975
867.71	20941
867.841	20823
867.972	20967
868.103	21085
868.233	21009
868.364	21108
868.495	21047
868.625	21157
868.756	21397
868.886	21230
869.017	21275
869.147	21329
869.278	21241
869.408	21256
869.539	21116
869.669	21329
869.799	21355
869.929	21291
870.06	21336
870.19	21542
870.32	21443
870.45	21526
870.58	21686
870.71	21751
870.84	21747
870.97	21641
871.1	21675
871.23	21747
871.36	21846
871.489	21709
871.619	21705
871.749	21766
871.879	21956
872.008	21937
872.138	21724
872.267	21835
872.397	21698
872.526	21739
872.656	21713
872.785	21679
872.915	21968
873.044	21861
873.173	21842
873.303	21915
873.432	21876
873.561	21964
873.69	21915
873.819	21899
873.948	21964
874.077	21838
874.206	21698
874.335	21899
874.464	21903
874.593	22074
874.722	21956
874.851	22181
874.979	21979
875.108	22090
875.237	22044
875.365	21926
875.494	22162
875.623	22135
875.751	22032
875.88	21987
876.008	22287
876.136	22367
876.265	22394
876.393	22462
876.521	22500
876.65	22489
876.778	22584
876.906	22481
877.034	22405
877.162	22284
877.29	22379
877.418	22371
877.546	22485
877.674	22382
877.802	22394
877.93	22497
878.058	22257
878.185	22150
878.313	22402
878.441	22386
878.568	22166
878.696	22382
878.824	22550
878.951	22508
879.079	22584
879.206	22675
879.333	22504
879.461	22382
879.588	22516
879.715	22656
879.842	22645
879.97	22413
880.097	22211
880.224	22272
880.351	22306
880.478	22287
880.605	22242
880.732	22287
880.859	22402
880.986	22135
881.112	22284
881.239	22116
881.366	21998
881.493	21907
881.619	21857
881.746	21842
881.872	21854
881.999	21774
882.125	21728
882.252	21838
882.378	21842
882.505	21915
882.631	21743
882.757	21622
882.883	21610
883.01	21553
883.136	21504
883.262	21412
883.388	21348
883.514	21523
883.64	21515
883.766	21382
883.892	21298
884.018	21226
884.143	21450
884.269	21603
884.395	21188
884.52	21146
884.646	21135
884.772	21066
884.897	21043
885.023	21104
885.148	21211
885.274	21230
885.399	21214
885.524	21108
885.65	21287
885.775	21169
885.9	21055
886.025	21374
886.15	21203
886.275	21062
886.4	21077
886.525	21066
886.65	21119
886.775	21074
886.9	21157
887.025	21214
887.149	21169
887.274	20998
887.399	20944
887.523	20918
887.648	20887
887.773	20895
887.897	21074
888.021	20895
888.146	20880
888.27	21001
888.395	20952
888.519	20937
888.643	20883
888.767	20971
888.891	20887
889.015	20735
889.139	20697
889.263	20762
889.387	20632
889.511	20910
889.635	20811
889.759	20777
889.883	20625
890.006	20720
890.13	20788
890.254	20659
890.377	20697
890.501	20488
890.624	20427
890.748	20602
890.871	20393
890.995	20301
891.118	20199
891.241	20305
891.364	20240
891.488	20377
891.611	20381
891.734	20210
891.857	20427
891.98	20244
892.103	20393
892.226	20305
892.349	20214
892.471	20001
892.594	20240
892.717	20267
892.839	20100
892.962	20214
893.085	20305
893.207	20149
893.33	20088
893.452	20092
893.575	20290
893.697	20096
893.819	20263
893.941	20412
894.064	20374
894.186	20195
894.308	20031
894.43	20233
894.552	20366
894.674	20248
894.796	20199
894.918	20240
895.04	20065
895.161	20339
895.283	20233
895.405	20088
895.526	20100
895.648	20020
895.769	20164
895.891	20176
896.012	20218
896.134	20199
896.255	20225
896.376	20088
896.498	20168
896.619	20256
896.74	20225
896.861	20210
896.982	20537
897.103	20727
897.224	20366
897.345	20385
897.466	20267
897.587	20461
897.708	20526
897.828	20450
897.949	20309
898.07	20233
898.19	20324
898.311	20446
898.431	20343
898.552	20377
898.672	20446
898.792	20419
898.913	20423
899.033	20202
899.153	20176
899.273	20081
899.393	20145
899.513	20176
899.633	20180
899.753	20157
899.873	20027
899.993	20081
900.113	20020
900.232	20183
900.352	20054
900.472	20081
900.591	19871
900.711	19852
900.83	19868
900.95	19921
901.069	20001
901.189	19818
901.308	19590
901.427	19578
901.546	19529
901.665	19438
901.784	19540
901.904	19346
902.023	19335
902.141	19107
902.26	18924
902.379	19133
902.498	19038
902.617	19038
902.735	18962
902.854	18939
902.973	18894
903.091	18772
903.21	18665
903.328	18684
903.446	18570
903.565	18559
903.683	18490
903.801	18403
903.919	18502
904.038	18464
904.156	18323
904.274	18334
904.392	18232
904.51	18125
904.627	18232
904.745	18311
904.863	18334
904.981	18011
905.098	17851
905.216	17942
905.334	18022
905.451	17828
905.569	17870
905.686	17961
905.803	17969
905.921	17543
906.038	17821
906.155	17737
906.272	17634
906.389	17661
906.506	17398
906.623	17482
906.74	17391
906.857	17372
906.974	17402
907.091	17474
907.208	17539
907.324	17493
907.441	17429
907.557	17231
907.674	17155
907.79	17132
907.907	17098
908.023	17060
908.139	17216
908.256	17170
908.372	16999
908.488	17064
908.604	16976
908.72	16858
908.836	16866
908.952	16862
909.068	16919
909.184	17010
909.3	16793
909.415	16946
909.531	16965
909.647	16653
909.762	16603
909.878	16500
909.993	16592
910.108	16554
910.224	16535
910.339	16485
910.454	16554
910.57	16489
910.685	16398
910.8	16729
910.915	16535
911.03	16329
911.145	16204
911.259	16204
911.374	16200
911.489	16143
911.604	16090
911.718	15994
911.833	15949
911.947	15797
912.062	15781
912.176	15937
912.291	16025
912.405	15880
912.519	16116
912.633	16048
912.748	15899
912.862	15926
912.976	15876
913.09	15690
913.204	15656
913.318	15709
913.431	15766
913.545	15785
913.659	15762
913.772	15686
913.886	15576
914	15614
914.113	15652
914.226	15603
914.34	15561
914.453	15481
914.566	15595
914.68	15325
914.793	15416
914.906	15252
915.019	15165
915.132	15138
915.245	15184
915.358	15135
915.47	15165
915.583	15081
915.696	15173
915.809	15386
915.921	15249
916.034	15070
916.146	15138
916.259	14998
916.371	15230
916.483	15138
916.595	14902
916.708	14963
916.82	15039
916.932	14975
917.044	15017
917.156	14986
917.268	14876
917.38	14842
917.491	14777
917.603	14777
917.715	14876
917.826	14864
917.938	14777
918.049	14640
918.161	14792
918.272	14910
918.384	14853
918.495	14689
918.606	14552
918.717	14594
918.828	14541
918.939	14575
919.05	14495
919.161	14549
919.272	14381
919.383	14415
919.494	14659
919.604	14800
919.715	14568
919.826	14415
919.936	14571
920.047	14602
920.157	14545
920.267	14663
920.378	14610
920.488	14533
920.598	14705
920.708	14754
920.818	14610
920.928	14758
921.038	14758
921.148	14750
921.258	14442
921.368	14355
921.477	14301
921.587	14328
921.697	14225
921.806	14263
921.916	14088
922.025	14008
922.134	13974
922.244	13864
922.353	13898
922.462	13746
922.571	13689
922.68	13502
922.789	13586
922.898	13537
923.007	13529
923.116	13552
923.224	13537
923.333	13529
923.442	13396
923.55	13324
923.659	13483
923.767	13449
923.876	13339
923.984	13381
924.092	13293
924.201	13308
924.309	13304
924.417	13221
924.525	13244
924.633	13168
924.741	14111
924.849	13095
924.956	13133
925.064	12947
925.172	12973
925.279	13019
925.387	12958
925.494	12966
925.602	13072
925.709	12939
925.816	12882
925.924	12882
926.031	12996
926.138	12916
926.245	12954
926.352	12821
926.459	12935
926.566	12905
926.673	12840
926.779	12719
926.886	12696
926.993	12498
927.099	12544
927.206	12536
927.312	12506
927.419	12555
927.525	12483
927.631	12494
927.737	12418
927.843	12399
927.95	12308
928.056	12292
928.162	12281
928.267	12357
928.373	13027
928.479	12433
928.585	12194
928.69	12281
928.796	12327
928.901	12201
929.007	12011
929.112	12273
929.218	12186
929.323	12098
929.428	12064
929.533	12239
929.638	11908
929.743	12140
929.848	12102
929.953	11958
930.058	11882
930.163	11764
930.267	11756
930.372	11908
930.477	11699
930.581	11920
930.685	11855
930.79	11722
930.894	11684
930.998	11668
931.103	11718
931.207	11425
931.311	11284
931.415	11311
931.519	11033
931.623	10900
