Data from test_V78500241_1361.txt Node
Date: Fri Mar 25 15:19:19 CST 2022
User: usil
Spectrometer: V785-0024
Trigger mode: 0
Integration Time (sec): 4.000000E-1
Scans to average: 1
Nonlinearity correction enabled: false
Boxcar width: 0
Storing dark spectrum: false
XAxis mode: Wavelengths
Number of Pixels in Spectrum: 1024
>>>>>Begin Spectral Data<<<<<
801.071	28143
801.214	28036
801.356	27907
801.499	27770
801.641	27576
801.783	27762
801.926	27759
802.068	27614
802.211	27671
802.353	27557
802.496	27214
802.638	27420
802.78	27283
802.923	27192
803.065	27180
803.208	27393
803.35	27173
803.492	27412
803.635	27595
803.777	27378
803.919	27454
804.061	27686
804.204	27557
804.346	27469
804.488	27447
804.63	27530
804.773	27397
804.915	27576
805.057	27614
805.199	27542
805.341	27637
805.483	27705
805.626	27641
805.768	27526
805.91	27701
806.052	27690
806.194	27553
806.336	27762
806.478	27762
806.62	27614
806.762	27865
806.904	27972
807.046	28196
807.188	28196
807.33	28048
807.472	28131
807.614	28036
807.756	28002
807.898	28059
808.04	27911
808.182	27926
808.324	27949
808.465	27861
808.607	28116
808.749	28333
808.891	28356
809.033	28436
809.174	28451
809.316	28325
809.458	28405
809.6	28299
809.741	28367
809.883	28538
810.025	28580
810.166	28580
810.308	28713
810.45	28649
810.591	28512
810.733	28478
810.875	28314
811.016	28287
811.158	28169
811.299	28371
811.441	28436
811.582	28455
811.724	28333
811.865	28360
812.007	28341
812.148	28287
812.29	28443
812.431	28478
812.573	28634
812.714	28725
812.855	28831
812.997	28938
813.138	29143
813.279	28976
813.421	28801
813.562	28957
813.703	28588
813.845	28531
813.986	28348
814.127	28322
814.268	28067
814.41	28017
814.551	28063
814.692	28211
814.833	27941
814.974	27876
815.115	28006
815.256	27949
815.397	27823
815.539	27888
815.68	27755
815.821	27842
815.962	27918
816.103	27732
816.244	27800
816.385	27629
816.526	27652
816.666	27370
816.807	27351
816.948	27302
817.089	27355
817.23	27348
817.371	27306
817.512	27256
817.653	27306
817.793	27310
817.934	27332
818.075	27416
818.216	27287
818.356	27351
818.497	27131
818.638	26921
818.778	27024
818.919	27100
819.06	27230
819.2	27119
819.341	27173
819.481	27325
819.622	27545
819.762	27705
819.903	27568
820.043	27572
820.184	27462
820.324	27523
820.465	27492
820.605	27344
820.746	27340
820.886	27351
821.026	27473
821.167	27443
821.307	27564
821.447	27378
821.588	27146
821.728	27180
821.868	26899
822.008	26842
822.149	26823
822.289	26636
822.429	26465
822.569	26461
822.709	26408
822.849	26393
822.99	26263
823.13	26252
823.27	26271
823.41	26081
823.55	25963
823.69	26168
823.83	26138
823.97	26206
824.11	25955
824.25	25769
824.389	25887
824.529	26077
824.669	25852
824.809	26073
824.949	26046
825.089	26027
825.228	26084
825.368	25871
825.508	25788
825.648	25784
825.787	25871
825.927	26065
826.067	25658
826.206	25906
826.346	25761
826.485	25837
826.625	25731
826.765	25963
826.904	25868
827.044	25784
827.183	25590
827.323	25491
827.462	25468
827.601	25582
827.741	25426
827.88	25533
828.02	25453
828.159	25575
828.298	25628
828.437	25761
828.577	25460
828.716	25639
828.855	25441
828.994	25274
829.134	25236
829.273	25190
829.412	25099
829.551	25168
829.69	25209
829.829	25114
829.968	25198
830.107	25301
830.246	25190
830.385	25107
830.524	25110
830.663	25168
830.802	24996
830.941	24825
831.08	24897
831.219	24920
831.357	24852
831.496	24992
831.635	24852
831.774	24814
831.913	24696
832.051	24612
832.19	24635
832.329	24616
832.467	24563
832.606	24555
832.744	24467
832.883	24490
833.022	24327
833.16	24593
833.299	24467
833.437	24426
833.576	24593
833.714	24494
833.852	24505
833.991	24601
834.129	24589
834.267	24551
834.406	24681
834.544	24677
834.682	24642
834.821	24574
834.959	24768
835.097	24479
835.235	24623
835.373	24555
835.511	24608
835.65	24319
835.788	24475
835.926	24330
836.064	24262
836.202	24311
836.34	24479
836.478	24559
836.615	24258
836.753	24456
836.891	24388
837.029	24388
837.167	24426
837.305	24254
837.443	24315
837.58	24266
837.718	24372
837.856	24190
837.993	24140
838.131	24133
838.269	24144
838.406	24076
838.544	24057
838.681	23870
838.819	23885
838.956	23745
839.094	23764
839.231	23786
839.369	23889
839.506	24045
839.643	24091
839.781	23718
839.918	23630
840.055	23851
840.193	23562
840.33	23619
840.467	23391
840.604	23703
840.742	23863
840.879	23490
841.016	23585
841.153	23528
841.29	23600
841.427	23737
841.564	23467
841.701	23649
841.838	23623
841.975	23509
842.112	23474
842.249	23501
842.385	23337
842.522	23638
842.659	23463
842.796	23334
842.933	23387
843.069	23341
843.206	23334
843.343	23440
843.479	23364
843.616	23387
843.752	23136
843.889	23151
844.025	23307
844.162	23124
844.298	23200
844.435	23208
844.571	23041
844.708	23140
844.844	23269
844.98	23239
845.117	23174
845.253	23105
845.389	22991
845.525	23022
845.661	22999
845.798	22831
845.934	22953
846.07	22873
846.206	22881
846.342	22915
846.478	22858
846.614	22634
846.75	22596
846.886	22672
847.022	22675
847.158	22550
847.294	22660
847.429	22550
847.565	22459
847.701	22908
847.837	22367
847.972	22303
848.108	22405
848.244	22497
848.379	22284
848.515	22314
848.65	22249
848.786	22185
848.921	22249
849.057	22322
849.192	22382
849.328	22063
849.463	22120
849.598	22143
849.734	22200
849.869	22128
850.004	21964
850.14	22013
850.275	21953
850.41	21911
850.545	21873
850.68	21880
850.815	22063
850.95	22074
851.085	22090
851.22	22109
851.355	21972
851.49	21953
851.625	21903
851.76	21880
851.895	21743
852.03	21983
852.165	21949
852.299	21915
852.434	22002
852.569	21956
852.703	21895
852.838	22017
852.973	22131
853.107	22078
853.242	21785
853.376	21701
853.511	21770
853.645	21743
853.78	21816
853.914	21762
854.048	21785
854.183	21846
854.317	21865
854.451	22082
854.585	21728
854.72	21778
854.854	21869
854.988	21713
855.122	21743
855.256	21728
855.39	21831
855.524	21781
855.658	21762
855.792	21831
855.926	21865
856.06	21827
856.194	21865
856.327	21698
856.461	21705
856.595	21614
856.729	21751
856.862	21907
856.996	21911
857.13	21797
857.263	21838
857.397	21831
857.53	21778
857.664	21838
857.797	21869
857.931	21831
858.064	21854
858.197	21907
858.331	21751
858.464	21720
858.597	21637
858.731	21789
858.864	21641
858.997	21762
859.13	21793
859.263	21838
859.396	21797
859.529	21774
859.662	21660
859.795	21587
859.928	21816
860.061	21869
860.194	21994
860.327	21800
860.46	21770
860.592	21838
860.725	21937
860.858	21838
860.99	21698
861.123	21682
861.256	21656
861.388	21747
861.521	22310
861.653	21663
861.786	21443
861.918	21576
862.05	21713
862.183	21633
862.315	21778
862.447	21720
862.58	21564
862.712	21428
862.844	21580
862.976	21618
863.108	21572
863.24	21876
863.372	21408
863.504	21492
863.636	21450
863.768	21408
863.9	21538
864.032	21332
864.164	21351
864.296	21515
864.428	21454
864.559	21599
864.691	21466
864.823	21473
864.954	21504
865.086	21325
865.217	21294
865.349	21306
865.48	21435
865.612	21363
865.743	21249
865.875	21401
866.006	21283
866.137	21344
866.269	21351
866.4	21211
866.531	21142
866.662	21294
866.793	21325
866.924	21272
867.055	21310
867.186	21230
867.317	21272
867.448	21192
867.579	21214
867.71	21211
867.841	21268
867.972	21222
868.103	21226
868.233	21207
868.364	21264
868.495	21329
868.625	21538
868.756	21526
868.886	21374
869.017	21538
869.147	21759
869.278	21603
869.408	21629
869.539	21660
869.669	21557
869.799	21599
869.929	21587
870.06	21774
870.19	21857
870.32	21816
870.45	21766
870.58	21804
870.71	22055
870.84	21934
870.97	21953
871.1	21960
871.23	22082
871.36	22013
871.489	21960
871.619	22131
871.749	22093
871.879	22063
872.008	22322
872.138	22192
872.267	22166
872.397	21930
872.526	21926
872.656	21934
872.785	21876
872.915	22287
873.044	22143
873.173	22150
873.303	22169
873.432	22291
873.561	22299
873.69	22143
873.819	22086
873.948	22230
874.077	22207
874.206	22143
874.335	22097
874.464	22204
874.593	22417
874.722	22352
874.851	22363
874.979	22325
875.108	22390
875.237	22143
875.365	22219
875.494	22280
875.623	22314
875.751	22276
875.88	22409
876.008	22508
876.136	22497
876.265	22691
876.393	22908
876.521	22748
876.65	22778
876.778	22664
876.906	22733
877.034	22713
877.162	22725
877.29	22584
877.418	22744
877.546	22660
877.674	22668
877.802	22736
877.93	22557
878.058	22656
878.185	22637
878.313	22599
878.441	22592
878.568	22557
878.696	22580
878.824	22721
878.951	22691
879.079	22911
879.206	22930
879.333	22965
879.461	22618
879.588	22828
879.715	22828
879.842	23010
879.97	22748
880.097	22565
880.224	22481
880.351	22485
880.478	22459
880.605	22508
880.732	22557
880.859	22744
880.986	22325
881.112	22538
881.239	22497
881.366	22234
881.493	22257
881.619	22112
881.746	22029
881.872	22067
881.999	21991
882.125	21911
882.252	22013
882.378	22074
882.505	22112
882.631	22032
882.757	21816
882.883	21850
883.01	21679
883.136	21660
883.262	21804
883.388	21622
883.514	21747
883.64	21922
883.766	21599
883.892	21507
884.018	21595
884.143	21614
884.269	21720
884.395	21477
884.52	21397
884.646	21435
884.772	21291
884.897	21329
885.023	21450
885.148	21348
885.274	21530
885.399	21637
885.524	21443
885.65	21473
885.775	21329
885.9	21325
886.025	21519
886.15	21462
886.275	21256
886.4	21393
886.525	21351
886.65	21370
886.775	21211
886.9	21519
887.025	21583
887.149	21348
887.274	21302
887.399	21222
887.523	21180
887.648	21207
887.773	21081
887.897	21310
888.021	21302
888.146	21157
888.27	21230
888.395	21256
888.519	21093
888.643	21211
888.767	21233
888.891	21028
889.015	21055
889.139	21119
889.263	20941
889.387	21104
889.511	21150
889.635	21104
889.759	20891
889.883	20899
890.006	21093
890.13	21085
890.254	20864
890.377	20880
890.501	20743
890.624	20773
890.748	20629
890.871	20674
890.995	20568
891.118	20434
891.241	20644
891.364	20598
891.488	20644
891.611	20465
891.734	20545
891.857	20545
891.98	20454
892.103	20609
892.226	20526
892.349	20492
892.471	20206
892.594	20469
892.717	20454
892.839	20393
892.962	20408
893.085	20434
893.207	20446
893.33	20309
893.452	20328
893.575	20434
893.697	20347
893.819	20708
893.941	20613
894.064	20488
894.186	20355
894.308	20324
894.43	20431
894.552	20526
894.674	20324
894.796	20385
894.918	20389
895.04	20358
895.161	20507
895.283	20412
895.405	20248
895.526	20370
895.648	20336
895.769	20313
895.891	20434
896.012	20488
896.134	20419
896.255	20317
896.376	20313
896.498	20275
896.619	20423
896.74	20473
896.861	20412
896.982	20663
897.103	20994
897.224	20560
897.345	20537
897.466	20518
897.587	20560
897.708	20609
897.828	20575
897.949	20522
898.07	20419
898.19	20632
898.311	20651
898.431	20571
898.552	20606
898.672	20651
898.792	20689
898.913	20617
899.033	20404
899.153	20415
899.273	20412
899.393	20434
899.513	20450
899.633	20400
899.753	20389
899.873	20290
899.993	20358
900.113	20191
900.232	20263
900.352	20221
900.472	20271
900.591	20138
900.711	20149
900.83	19928
900.95	20153
901.069	20282
901.189	19989
901.308	19791
901.427	19746
901.546	19681
901.665	19757
901.784	19628
901.904	19559
902.023	19441
902.141	19407
902.26	19156
902.379	19400
902.498	19236
902.617	19152
902.735	19304
902.854	19168
902.973	19099
903.091	18894
903.21	18840
903.328	18886
903.446	18806
903.565	18631
903.683	18757
903.801	18726
903.919	18791
904.038	18593
904.156	18441
904.274	18483
904.392	18414
904.51	18479
904.627	18452
904.745	18563
904.863	18464
904.981	18270
905.098	18243
905.216	18235
905.334	18144
905.451	18117
905.569	18178
905.686	18190
905.803	18117
905.921	17984
906.038	18026
906.155	17977
906.272	17889
906.389	17901
906.506	17687
906.623	17737
906.74	17672
906.857	17604
906.974	17543
907.091	17722
907.208	17775
907.324	17661
907.441	17573
907.557	17395
907.674	17444
907.79	17258
907.907	17364
908.023	17433
908.139	17376
908.256	17235
908.372	17227
908.488	17200
908.604	17159
908.72	17075
908.836	17102
908.952	17033
909.068	17048
909.184	17197
909.3	17159
909.415	17071
909.531	17048
909.647	16869
909.762	16866
909.878	16793
909.993	16805
910.108	16782
910.224	16809
910.339	16694
910.454	16596
910.57	16607
910.685	16550
910.8	16809
910.915	16725
911.03	16596
911.145	16451
911.259	16379
911.374	16398
911.489	16333
911.604	16173
911.718	16192
911.833	16116
911.947	16055
912.062	15888
912.176	16074
912.291	16181
912.405	16040
912.519	16390
912.633	16291
912.748	16154
912.862	16021
912.976	15918
913.09	15892
913.204	15941
913.318	15953
913.431	15899
913.545	16048
913.659	15994
913.772	15915
913.886	15720
914	15717
914.113	15838
914.226	15983
914.34	15759
914.453	15599
914.566	15739
914.68	15644
914.793	15671
914.906	15370
915.019	15351
915.132	15397
915.245	15298
915.358	15272
915.47	15382
915.583	15340
915.696	15325
915.809	15473
915.921	15477
916.034	15256
916.146	15283
916.259	15154
916.371	15294
916.483	15237
916.595	15260
916.708	15123
916.82	15161
916.932	15127
917.044	15192
917.156	15123
917.268	15024
917.38	14990
917.491	14948
917.603	14975
917.715	15039
917.826	15036
917.938	14952
918.049	14891
918.161	14937
918.272	14994
918.384	14944
918.495	14796
918.606	14800
918.717	14701
918.828	14830
918.939	14781
919.05	14629
919.161	14678
919.272	14568
919.383	14560
919.494	14750
919.604	14902
919.715	14743
919.826	14686
919.936	14693
920.047	14746
920.157	14697
920.267	14815
920.378	14708
920.488	14602
920.598	14906
920.708	14929
920.818	14804
920.928	14758
921.038	14891
921.148	14925
921.258	14632
921.368	14568
921.477	14400
921.587	14492
921.697	14389
921.806	14499
921.916	14290
922.025	14058
922.134	14043
922.244	14016
922.353	14107
922.462	13879
922.571	13841
922.68	13776
922.789	13689
922.898	13727
923.007	13681
923.116	13791
923.224	13750
923.333	13655
923.442	13563
923.55	13491
923.659	13506
923.767	13605
923.876	13464
923.984	13582
924.092	13480
924.201	13499
924.309	13460
924.417	13403
924.525	13400
924.633	13407
924.741	14149
924.849	13141
924.956	13331
925.064	13179
925.172	13110
925.279	13171
925.387	13160
925.494	13110
925.602	13270
925.709	13152
925.816	13103
925.924	13091
926.031	13152
926.138	13069
926.245	13099
926.352	12939
926.459	13023
926.566	13187
926.673	12958
926.779	12802
926.886	12909
926.993	12726
927.099	12658
927.206	12616
927.312	12646
927.419	12696
927.525	12608
927.631	12631
927.737	12563
927.843	12490
927.95	12418
928.056	12532
928.162	12418
928.267	12627
928.373	13194
928.479	12525
928.585	12384
928.69	12486
928.796	12479
928.901	12330
929.007	12201
929.112	12296
929.218	12334
929.323	12247
929.428	12171
929.533	12292
929.638	12133
929.743	12194
929.848	12201
929.953	12224
930.058	12034
930.163	11893
930.267	11904
930.372	11988
930.477	11832
930.581	12152
930.685	11942
930.79	11775
930.894	11942
930.998	11813
931.103	11836
931.207	11528
931.311	11478
931.415	11345
931.519	11124
931.623	11178
