Data from test_V78500241_2187.txt Node
Date: Fri Mar 25 15:25:05 CST 2022
User: usil
Spectrometer: V785-0024
Trigger mode: 0
Integration Time (sec): 4.000000E-1
Scans to average: 1
Nonlinearity correction enabled: false
Boxcar width: 0
Storing dark spectrum: false
XAxis mode: Wavelengths
Number of Pixels in Spectrum: 1024
>>>>>Begin Spectral Data<<<<<
801.071	27816
801.214	27679
801.356	27443
801.499	27450
801.641	27294
801.783	27260
801.926	27325
802.068	27317
802.211	27207
802.353	27062
802.496	26868
802.638	26743
802.78	26998
802.923	26743
803.065	26830
803.208	26849
803.35	27009
803.492	27127
803.635	27131
803.777	27039
803.919	27195
804.061	27462
804.204	27256
804.346	26963
804.488	27043
804.63	27013
804.773	26998
804.915	27001
805.057	27192
805.199	27093
805.341	27169
805.483	27142
805.626	27203
805.768	27001
805.91	27214
806.052	27291
806.194	27173
806.336	27515
806.478	27195
806.62	27359
806.762	27370
806.904	27488
807.046	27671
807.188	27576
807.33	27648
807.472	27774
807.614	27496
807.756	27660
807.898	27515
808.04	27496
808.182	27374
808.324	27511
808.465	27755
808.607	27808
808.749	27781
808.891	28040
809.033	27888
809.174	27907
809.316	27770
809.458	27903
809.6	27827
809.741	27930
809.883	28166
810.025	28162
810.166	28109
810.308	28204
810.45	28078
810.591	28109
810.733	27846
810.875	27964
811.016	27827
811.158	27804
811.299	27934
811.441	28040
811.582	27949
811.724	27842
811.865	27838
812.007	27903
812.148	27899
812.29	27983
812.431	28067
812.573	28265
812.714	28310
812.855	28409
812.997	28421
813.138	28569
813.279	28523
813.421	28367
813.562	28310
813.703	28177
813.845	28158
813.986	27797
814.127	27667
814.268	27492
814.41	27629
814.551	27591
814.692	27466
814.833	27488
814.974	27625
815.115	27454
815.256	27344
815.397	27447
815.539	27561
815.68	27283
815.821	27275
815.962	27500
816.103	27260
816.244	27233
816.385	27150
816.526	27096
816.666	26998
816.807	26735
816.948	26971
817.089	26834
817.23	26705
817.371	26754
817.512	26853
817.653	26781
817.793	26762
817.934	26697
818.075	26861
818.216	26853
818.356	26739
818.497	26746
818.638	26579
818.778	26625
818.919	26507
819.06	26560
819.2	26773
819.341	26807
819.481	26727
819.622	26960
819.762	27176
819.903	26940
820.043	27001
820.184	26940
820.324	26868
820.465	26948
820.605	26853
820.746	26876
820.886	26815
821.026	26861
821.167	26819
821.307	26933
821.447	26823
821.588	26727
821.728	26613
821.868	26507
822.008	26221
822.149	26256
822.289	26259
822.429	26164
822.569	25871
822.709	26001
822.849	25868
822.99	25723
823.13	25765
823.27	25746
823.41	25693
823.55	25529
823.69	25537
823.83	25635
823.97	25597
824.11	25354
824.25	25358
824.389	25479
824.529	25544
824.669	25502
824.809	25605
824.949	25491
825.089	25483
825.228	25362
825.368	25278
825.508	25301
825.648	25346
825.787	25365
825.927	25426
826.067	25263
826.206	25304
826.346	25365
826.485	25472
826.625	25206
826.765	25381
826.904	25343
827.044	25152
827.183	25050
827.323	24909
827.462	24996
827.601	24958
827.741	24939
827.88	25042
828.02	24882
828.159	24924
828.298	24939
828.437	25088
828.577	25004
828.716	25114
828.855	24825
828.994	24696
829.134	24700
829.273	24646
829.412	24627
829.551	24719
829.69	24734
829.829	24749
829.968	24696
830.107	24772
830.246	24654
830.385	24616
830.524	24578
830.663	24494
830.802	24323
830.941	24224
831.08	24262
831.219	24346
831.357	24330
831.496	24597
831.635	24311
831.774	24300
831.913	24159
832.051	24072
832.19	24018
832.329	24144
832.467	23977
832.606	24060
832.744	23961
832.883	23851
833.022	23916
833.16	24022
833.299	23969
833.437	24026
833.576	24057
833.714	24011
833.852	23984
833.991	24117
834.129	24110
834.267	24030
834.406	24140
834.544	24026
834.682	23935
834.821	23939
834.959	24197
835.097	23885
835.235	24121
835.373	23939
835.511	24003
835.65	23931
835.788	23904
835.926	23726
836.064	23726
836.202	23718
836.34	23843
836.478	23783
836.615	23863
836.753	23798
836.891	24011
837.029	23813
837.167	23783
837.305	23779
837.443	23813
837.58	23661
837.718	23832
837.856	23726
837.993	23608
838.131	23570
838.269	23649
838.406	23695
838.544	23524
838.681	23376
838.819	23307
838.956	23151
839.094	23231
839.231	23242
839.369	23250
839.506	23520
839.643	23490
839.781	23185
839.918	23204
840.055	23113
840.193	23208
840.33	23136
840.467	23208
840.604	23048
840.742	23345
840.879	22805
841.016	23033
841.153	23014
841.29	23132
841.427	23090
841.564	23067
841.701	23090
841.838	23010
841.975	22908
842.112	23033
842.249	22995
842.385	22866
842.522	23014
842.659	22820
842.796	22759
842.933	22854
843.069	22774
843.206	22812
843.343	22843
843.479	22862
843.616	22809
843.752	22588
843.889	22713
844.025	22717
844.162	22660
844.298	22755
844.435	22577
844.571	22523
844.708	22588
844.844	22721
844.98	22744
845.117	22759
845.253	22493
845.389	22584
845.525	22497
845.661	22409
845.798	22371
845.934	22314
846.07	22284
846.206	22409
846.342	22500
846.478	22371
846.614	22234
846.75	22082
846.886	21953
847.022	22192
847.158	22109
847.294	22090
847.429	22112
847.565	22002
847.701	22322
847.837	21869
847.972	21819
848.108	21876
848.244	21793
848.379	21720
848.515	21762
848.65	21553
848.786	21690
848.921	21648
849.057	21709
849.192	21720
849.328	21663
849.463	21583
849.598	21469
849.734	21599
849.869	21428
850.004	21447
850.14	21439
850.275	21450
850.41	21412
850.545	21416
850.68	21428
850.815	21336
850.95	21408
851.085	21526
851.22	21477
851.355	21351
851.49	21454
851.625	21405
851.76	21298
851.895	21249
852.03	21241
852.165	21389
852.299	21488
852.434	21534
852.569	21405
852.703	21420
852.838	21519
852.973	21485
853.107	21538
853.242	21454
853.376	21279
853.511	21135
853.645	21176
853.78	21302
853.914	21355
854.048	21138
854.183	21157
854.317	21340
854.451	21382
854.585	21264
854.72	21214
854.854	21359
854.988	21192
855.122	21310
855.256	21127
855.39	21291
855.524	21336
855.658	21332
855.792	21272
855.926	21332
856.06	21363
856.194	21325
856.327	21226
856.461	21211
856.595	21199
856.729	21173
856.862	21325
856.996	21226
857.13	21298
857.263	21306
857.397	21260
857.53	21230
857.664	21127
857.797	21260
857.931	21329
858.064	21382
858.197	21332
858.331	21287
858.464	21245
858.597	21123
858.731	21165
858.864	21211
858.997	21256
859.13	21287
859.263	21268
859.396	21393
859.529	21310
859.662	21317
859.795	21298
859.928	21348
860.061	21386
860.194	21542
860.327	21359
860.46	21226
860.592	21378
860.725	21408
860.858	21370
860.99	21321
861.123	21199
861.256	21252
861.388	21344
861.521	21915
861.653	21154
861.786	21116
861.918	21214
862.05	21047
862.183	21131
862.315	21165
862.447	21279
862.58	21070
862.712	21157
862.844	21009
862.976	21062
863.108	21077
863.24	21321
863.372	20902
863.504	20944
863.636	21017
863.768	20925
863.9	21096
864.032	20952
864.164	20967
864.296	20975
864.428	21077
864.559	21051
864.691	21154
864.823	21001
864.954	20933
865.086	21081
865.217	20762
865.349	20834
865.48	20842
865.612	20887
865.743	20982
865.875	20853
866.006	20883
866.137	20899
866.269	20902
866.4	20864
866.531	20826
866.662	20758
866.793	20830
866.924	20792
867.055	20781
867.186	20838
867.317	20838
867.448	20754
867.579	20746
867.71	20708
867.841	20682
867.972	20804
868.103	20861
868.233	20716
868.364	20815
868.495	20880
868.625	20944
868.756	21058
868.886	20921
869.017	21085
869.147	21203
869.278	21230
869.408	21100
869.539	21047
869.669	21112
869.799	21017
869.929	21268
870.06	21195
870.19	21374
870.32	21306
870.45	21370
870.58	21496
870.71	21496
870.84	21462
870.97	21363
871.1	21504
871.23	21507
871.36	21652
871.489	21504
871.619	21682
871.749	21652
871.879	21698
872.008	21720
872.138	21736
872.267	21538
872.397	21504
872.526	21424
872.656	21500
872.785	21530
872.915	21637
873.044	21785
873.173	21705
873.303	21736
873.432	21743
873.561	21705
873.69	21698
873.819	21637
873.948	21652
874.077	21660
874.206	21713
874.335	21591
874.464	21682
874.593	21781
874.722	21827
874.851	22059
874.979	21953
875.108	21975
875.237	21861
875.365	21850
875.494	21907
875.623	21945
875.751	21861
875.88	21945
876.008	22006
876.136	21907
876.265	22238
876.393	22421
876.521	22318
876.65	22390
876.778	22363
876.906	22303
877.034	22284
877.162	22299
877.29	22158
877.418	22261
877.546	22223
877.674	22238
877.802	22261
877.93	22257
878.058	22131
878.185	22135
878.313	22226
878.441	22135
878.568	22040
878.696	22192
878.824	22265
878.951	22287
879.079	22485
879.206	22500
879.333	22337
879.461	22291
879.588	22375
879.715	22466
879.842	22546
879.97	22314
880.097	22093
880.224	22086
880.351	22169
880.478	22044
880.605	22021
880.732	22063
880.859	22360
880.986	22173
881.112	22109
881.239	21880
881.366	21766
881.493	21614
881.619	21625
881.746	21698
881.872	21591
881.999	21675
882.125	21648
882.252	21713
882.378	21656
882.505	21728
882.631	21530
882.757	21386
882.883	21393
883.01	21378
883.136	21355
883.262	21218
883.388	21142
883.514	21332
883.64	21287
883.766	21389
883.892	21154
884.018	21222
884.143	21195
884.269	21344
884.395	21051
884.52	20883
884.646	21074
884.772	20986
884.897	20765
885.023	21081
885.148	21047
885.274	21169
885.399	21058
885.524	20967
885.65	21017
885.775	20963
885.9	20967
886.025	21001
886.15	21036
886.275	20925
886.4	20933
886.525	21062
886.65	20823
886.775	20864
886.9	21146
887.025	21150
887.149	20967
887.274	20716
887.399	20804
887.523	20769
887.648	20727
887.773	20746
887.897	20864
888.021	20655
888.146	20792
888.27	20872
888.395	20910
888.519	20735
888.643	20800
888.767	20895
888.891	20648
889.015	20530
889.139	20659
889.263	20514
889.387	20598
889.511	20792
889.635	20686
889.759	20469
889.883	20526
890.006	20583
890.13	20735
890.254	20503
890.377	20640
890.501	20343
890.624	20343
890.748	20366
890.871	20233
890.995	20206
891.118	20088
891.241	20092
891.364	20122
891.488	20183
891.611	20134
891.734	20145
891.857	20100
891.98	20092
892.103	20126
892.226	20202
892.349	20027
892.471	19868
892.594	20001
892.717	20016
892.839	20065
892.962	19936
893.085	20164
893.207	20065
893.33	20024
893.452	20008
893.575	20115
893.697	19963
893.819	20149
893.941	20294
894.064	19997
894.186	19997
894.308	20027
894.43	20107
894.552	20100
894.674	20069
894.796	20008
894.918	20092
895.04	19917
895.161	20092
895.283	20092
895.405	20046
895.526	19940
895.648	20005
895.769	20058
895.891	19959
896.012	20096
896.134	20024
896.255	20073
896.376	20077
896.498	20001
896.619	20145
896.74	19936
896.861	20111
896.982	20362
897.103	20556
897.224	20233
897.345	20172
897.466	20145
897.587	20324
897.708	20377
897.828	20229
897.949	20275
898.07	20046
898.19	20282
898.311	20267
898.431	20172
898.552	20202
898.672	20282
898.792	20282
898.913	20259
899.033	20202
899.153	20035
899.273	20084
899.393	19959
899.513	20145
899.633	19940
899.753	20046
899.873	19974
899.993	20073
900.113	19940
900.232	20115
900.352	19951
900.472	19822
900.591	19799
900.711	19681
900.83	19776
900.95	19826
901.069	19864
901.189	19731
901.308	19468
901.427	19411
901.546	19369
901.665	19354
901.784	19297
901.904	19441
902.023	19088
902.141	19137
902.26	18825
902.379	18989
902.498	18939
902.617	18802
902.735	18954
902.854	18878
902.973	18814
903.091	18585
903.21	18608
903.328	18528
903.446	18407
903.565	18460
903.683	18452
903.801	18266
903.919	18300
904.038	18296
904.156	18159
904.274	18342
904.392	18152
904.51	18022
904.627	17950
904.745	18129
904.863	18076
904.981	17931
905.098	17790
905.216	17802
905.334	17893
905.451	17824
905.569	17786
905.686	17714
905.803	17824
905.921	17589
906.038	17707
906.155	17604
906.272	17558
906.389	17478
906.506	17280
906.623	17311
906.74	17326
906.857	17318
906.974	17273
907.091	17254
907.208	17471
907.324	17360
907.441	17258
907.557	17033
907.674	17018
907.79	16942
907.907	16999
908.023	17094
908.139	17064
908.256	17033
908.372	16938
908.488	16873
908.604	16896
908.72	16698
908.836	16835
908.952	16744
909.068	16820
909.184	16843
909.3	16778
909.415	16725
909.531	16721
909.647	16523
909.762	16474
909.878	16550
909.993	16500
910.108	16474
910.224	16512
910.339	16470
910.454	16386
910.57	16268
910.685	16253
910.8	16478
910.915	16421
911.03	16299
911.145	16116
911.259	16078
911.374	16135
911.489	15991
911.604	16048
911.718	15713
911.833	15770
911.947	15701
912.062	15591
912.176	15755
912.291	15838
912.405	15762
912.519	15994
912.633	15968
912.748	15747
912.862	15774
912.976	15568
913.09	15542
913.204	15663
913.318	15709
913.431	15663
913.545	15778
913.659	15709
913.772	15519
913.886	15435
914	15443
914.113	15530
914.226	15557
914.34	15549
914.453	15275
914.566	15389
914.68	15294
914.793	15378
914.906	15138
915.019	14918
915.132	14971
915.245	15055
915.358	15039
915.47	15062
915.583	15116
915.696	15039
915.809	15150
915.921	15135
916.034	14925
916.146	14944
916.259	14956
916.371	15066
916.483	14990
916.595	14941
916.708	14914
916.82	14868
916.932	14800
917.044	14712
917.156	14815
917.268	14743
917.38	14754
917.491	14720
917.603	14689
917.715	14876
917.826	14777
917.938	14575
918.049	14526
918.161	14667
918.272	14804
918.384	14708
918.495	14655
918.606	14507
918.717	14412
918.828	14503
918.939	14511
919.05	14305
919.161	14469
919.272	14237
919.383	14343
919.494	14446
919.604	14697
919.715	14511
919.826	14252
919.936	14404
920.047	14461
920.157	14370
920.267	14556
920.378	14438
920.488	14385
920.598	14488
920.708	14701
920.818	14537
920.928	14503
921.038	14735
921.148	14621
921.258	14332
921.368	14328
921.477	14195
921.587	14111
921.697	14069
921.806	14229
921.916	13925
922.025	13845
922.134	13738
922.244	13807
922.353	13757
922.462	13582
922.571	13571
922.68	13346
922.789	13460
922.898	13521
923.007	13407
923.116	13480
923.224	13457
923.333	13358
923.442	13293
923.55	13221
923.659	13327
923.767	13415
923.876	13236
923.984	13403
924.092	13160
924.201	13270
924.309	13202
924.417	13156
924.525	13103
924.633	13122
924.741	13909
924.849	12932
924.956	13152
925.064	12935
925.172	12844
925.279	12844
925.387	12894
925.494	12798
925.602	13027
925.709	12935
925.816	12779
925.924	12802
926.031	12932
926.138	12928
926.245	12817
926.352	12753
926.459	12894
926.566	12947
926.673	12779
926.779	12578
926.886	12654
926.993	12460
927.099	12490
927.206	12410
927.312	12445
927.419	12517
927.525	12536
927.631	12525
927.737	12308
927.843	12323
927.95	12175
928.056	12254
928.162	12209
928.267	12289
928.373	12939
928.479	12289
928.585	12102
928.69	12213
928.796	12327
928.901	12129
929.007	11984
929.112	12140
929.218	12121
929.323	11958
929.428	12003
929.533	12163
929.638	11977
929.743	11855
929.848	12026
929.953	11939
930.058	11847
930.163	11733
930.267	11649
930.372	11764
930.477	11718
930.581	11942
930.685	11794
930.79	11539
930.894	11611
930.998	11676
931.103	11745
931.207	11303
931.311	11307
931.415	11223
931.519	10995
931.623	10968
