Data from test_V78500241_888.txt Node
Date: Fri Mar 25 15:16:02 CST 2022
User: usil
Spectrometer: V785-0024
Trigger mode: 0
Integration Time (sec): 4.000000E-1
Scans to average: 1
Nonlinearity correction enabled: false
Boxcar width: 0
Storing dark spectrum: false
XAxis mode: Wavelengths
Number of Pixels in Spectrum: 1024
>>>>>Begin Spectral Data<<<<<
801.071	28185
801.214	28032
801.356	27842
801.499	27895
801.641	27781
801.783	27717
801.926	27770
802.068	27633
802.211	27648
802.353	27793
802.496	27420
802.638	27447
802.78	27329
802.923	27408
803.065	27408
803.208	27511
803.35	27389
803.492	27603
803.635	27542
803.777	27603
803.919	27701
804.061	27941
804.204	27633
804.346	27599
804.488	27652
804.63	27534
804.773	27458
804.915	27701
805.057	27804
805.199	27766
805.341	27751
805.483	27831
805.626	27861
805.768	27625
805.91	27808
806.052	27690
806.194	27720
806.336	27838
806.478	27705
806.62	27774
806.762	28032
806.904	28116
807.046	28261
807.188	28010
807.33	28116
807.472	28238
807.614	28223
807.756	28268
807.898	28021
808.04	28074
808.182	28143
808.324	28048
808.465	28131
808.607	28291
808.749	28394
808.891	28421
809.033	28535
809.174	28481
809.316	28329
809.458	28432
809.6	28531
809.741	28592
809.883	28622
810.025	28702
810.166	28698
810.308	28740
810.45	28615
810.591	28771
810.733	28546
810.875	28451
811.016	28246
811.158	28280
811.299	28394
811.441	28653
811.582	28626
811.724	28459
811.865	28409
812.007	28455
812.148	28504
812.29	28401
812.431	28679
812.573	28790
812.714	28850
812.855	29037
812.997	29018
813.138	29193
813.279	29140
813.421	29044
813.562	28877
813.703	28854
813.845	28577
813.986	28428
814.127	28291
814.268	28131
814.41	28230
814.551	28147
814.692	28215
814.833	28109
814.974	28120
815.115	28291
815.256	27903
815.397	27960
815.539	28188
815.68	27972
815.821	27865
815.962	27857
816.103	27972
816.244	27983
816.385	27732
816.526	27633
816.666	27481
816.807	27382
816.948	27458
817.089	27614
817.23	27511
817.371	27473
817.512	27488
817.653	27294
817.793	27454
817.934	27408
818.075	27507
818.216	27439
818.356	27332
818.497	27405
818.638	27165
818.778	27184
818.919	27332
819.06	27420
819.2	27317
819.341	27408
819.481	27439
819.622	27679
819.762	27857
819.903	27644
820.043	27652
820.184	27625
820.324	27523
820.465	27637
820.605	27564
820.746	27515
820.886	27386
821.026	27523
821.167	27443
821.307	27606
821.447	27450
821.588	27355
821.728	27211
821.868	27116
822.008	27028
822.149	27051
822.289	26823
822.429	26804
822.569	26689
822.709	26731
822.849	26362
822.99	26476
823.13	26415
823.27	26389
823.41	26183
823.55	26248
823.69	26240
823.83	26332
823.97	26252
824.11	26054
824.25	26069
824.389	26077
824.529	26202
824.669	26180
824.809	26229
824.949	26252
825.089	26278
825.228	26282
825.368	25944
825.508	25898
825.648	25932
825.787	25932
825.927	25974
826.067	25951
826.206	25993
826.346	26100
826.485	26073
826.625	25818
826.765	26081
826.904	25868
827.044	25845
827.183	25715
827.323	25708
827.462	25795
827.601	25814
827.741	25765
827.88	25811
828.02	25510
828.159	25746
828.298	25651
828.437	25799
828.577	25655
828.716	25883
828.855	25586
828.994	25422
829.134	25354
829.273	25384
829.412	25400
829.551	25297
829.69	25502
829.829	25388
829.968	25354
830.107	25464
830.246	25460
830.385	25289
830.524	25263
830.663	25289
830.802	25285
830.941	25126
831.08	25072
831.219	25145
831.357	25145
831.496	25179
831.635	25023
831.774	24951
831.913	24913
832.051	24768
832.19	24802
832.329	24867
832.467	24669
832.606	24582
832.744	24692
832.883	24741
833.022	24719
833.16	24608
833.299	24779
833.437	24848
833.576	24745
833.714	24871
833.852	24856
833.991	24768
834.129	24760
834.267	24852
834.406	24798
834.544	24741
834.682	24810
834.821	24692
834.959	24852
835.097	24707
835.235	24878
835.373	24722
835.511	24791
835.65	24608
835.788	24650
835.926	24437
836.064	24429
836.202	24384
836.34	24528
836.478	24703
836.615	24544
836.753	24601
836.891	24707
837.029	24521
837.167	24464
837.305	24365
837.443	24563
837.58	24292
837.718	24483
837.856	24384
837.993	24300
838.131	24289
838.269	24216
838.406	24270
838.544	24292
838.681	24144
838.819	24026
838.956	23965
839.094	23824
839.231	23939
839.369	23996
839.506	24277
839.643	24171
839.781	23939
839.918	23832
840.055	23935
840.193	23863
840.33	23680
840.467	23836
840.604	23802
840.742	23958
840.879	23615
841.016	23630
841.153	23699
841.29	23908
841.427	23836
841.564	23961
841.701	23722
841.838	23699
841.975	23615
842.112	23703
842.249	23638
842.385	23646
842.522	23707
842.659	23668
842.796	23558
842.933	23554
843.069	23501
843.206	23535
843.343	23600
843.479	23516
843.616	23615
843.752	23204
843.889	23349
844.025	23277
844.162	23341
844.298	23322
844.435	23334
844.571	23402
844.708	23341
844.844	23356
844.98	23566
845.117	23444
845.253	23242
845.389	23204
845.525	23242
845.661	23216
845.798	23075
845.934	23212
846.07	23064
846.206	23052
846.342	23147
846.478	22957
846.614	22809
846.75	22862
846.886	22721
847.022	22752
847.158	22824
847.294	22694
847.429	22778
847.565	22725
847.701	22991
847.837	22519
847.972	22428
848.108	22565
848.244	22546
848.379	22485
848.515	22527
848.65	22306
848.786	22421
848.921	22398
849.057	22565
849.192	22470
849.328	22386
849.463	22379
849.598	22333
849.734	22246
849.869	22310
850.004	22310
850.14	22246
850.275	22154
850.41	22074
850.545	22025
850.68	22188
850.815	22162
850.95	22044
851.085	22215
851.22	22131
851.355	22051
851.49	22109
851.625	22051
851.76	22120
851.895	21953
852.03	22036
852.165	22093
852.299	22021
852.434	22284
852.569	22166
852.703	22082
852.838	22177
852.973	22215
853.107	22272
853.242	22090
853.376	21994
853.511	21766
853.645	21903
853.78	22036
853.914	21983
854.048	21884
854.183	21922
854.317	22002
854.451	22192
854.585	21922
854.72	21968
854.854	22055
854.988	21854
855.122	21907
855.256	21690
855.39	21998
855.524	22036
855.658	21926
855.792	21960
855.926	22013
856.06	22002
856.194	22055
856.327	21945
856.461	21854
856.595	21899
856.729	21865
856.862	22097
856.996	21983
857.13	22040
857.263	21975
857.397	22105
857.53	21922
857.664	21861
857.797	22006
857.931	22006
858.064	21949
858.197	22067
858.331	21876
858.464	21823
858.597	21876
858.731	21930
858.864	21941
858.997	21865
859.13	21960
859.263	22036
859.396	22120
859.529	21895
859.662	21857
859.795	21926
859.928	21987
860.061	22070
860.194	22234
860.327	21994
860.46	22078
860.592	22067
860.725	22097
860.858	21915
860.99	21972
861.123	21842
861.256	22002
861.388	21949
861.521	22717
861.653	21823
861.786	21724
861.918	21823
862.05	21827
862.183	21774
862.315	21861
862.447	21915
862.58	21899
862.712	21660
862.844	21622
862.976	21709
863.108	21739
863.24	22078
863.372	21595
863.504	21622
863.636	21610
863.768	21637
863.9	21675
864.032	21610
864.164	21667
864.296	21580
864.428	21686
864.559	21797
864.691	21823
864.823	21606
864.954	21610
865.086	21599
865.217	21549
865.349	21469
865.48	21618
865.612	21561
865.743	21641
865.875	21625
866.006	21355
866.137	21507
866.269	21462
866.4	21603
866.531	21447
866.662	21466
866.793	21389
866.924	21557
867.055	21466
867.186	21587
867.317	21500
867.448	21287
867.579	21477
867.71	21401
867.841	21435
867.972	21504
868.103	21447
868.233	21397
868.364	21477
868.495	21599
868.625	21572
868.756	21808
868.886	21622
869.017	21823
869.147	21800
869.278	21774
869.408	21701
869.539	21603
869.669	21728
869.799	21747
869.929	21842
870.06	21778
870.19	22067
870.32	21975
870.45	21964
870.58	22074
870.71	22158
870.84	22074
870.97	22219
871.1	22067
871.23	22386
871.36	22265
871.489	22226
871.619	22215
871.749	22291
871.879	22238
872.008	22310
872.138	22314
872.267	22238
872.397	22192
872.526	22006
872.656	22112
872.785	22090
872.915	22044
873.044	22386
873.173	22375
873.303	22375
873.432	22303
873.561	22367
873.69	22329
873.819	22363
873.948	22291
874.077	22169
874.206	22314
874.335	22314
874.464	22428
874.593	22573
874.722	22462
874.851	22538
874.979	22470
875.108	22603
875.237	22561
875.365	22424
875.494	22561
875.623	22580
875.751	22402
875.88	22512
876.008	22786
876.136	22752
876.265	23022
876.393	22938
876.521	22972
876.65	22911
876.778	22949
876.906	22892
877.034	22881
877.162	22839
877.29	22824
877.418	22828
877.546	22908
877.674	22824
877.802	22809
877.93	22881
878.058	22835
878.185	22748
878.313	22828
878.441	22866
878.568	22683
878.696	22854
878.824	22793
878.951	22972
879.079	23067
879.206	23064
879.333	23113
879.461	22934
879.588	23064
879.715	22987
879.842	23006
879.97	22980
880.097	22565
880.224	22588
880.351	22900
880.478	22698
880.605	22672
880.732	22668
880.859	22892
880.986	22778
881.112	22752
881.239	22611
881.366	22344
881.493	22379
881.619	22253
881.746	22219
881.872	22310
881.999	22185
882.125	22257
882.252	22287
882.378	22242
882.505	22287
882.631	22116
882.757	21994
882.883	22070
883.01	21911
883.136	21922
883.262	21850
883.388	21720
883.514	21979
883.64	22124
883.766	21968
883.892	21667
884.018	21694
884.143	21884
884.269	21964
884.395	21679
884.52	21614
884.646	21515
884.772	21473
884.897	21359
885.023	21603
885.148	21762
885.274	21720
885.399	21759
885.524	21705
885.65	21591
885.775	21534
885.9	21572
886.025	21694
886.15	21614
886.275	21549
886.4	21523
886.525	21526
886.65	21450
886.775	21507
886.9	21504
887.025	21747
887.149	21462
887.274	21397
887.399	21393
887.523	21355
887.648	21401
887.773	21252
887.897	21344
888.021	21416
888.146	21287
888.27	21401
888.395	21344
888.519	21363
888.643	21367
888.767	21355
888.891	21310
889.015	21252
889.139	21127
889.263	21207
889.387	21237
889.511	21443
889.635	21321
889.759	21188
889.883	21047
890.006	21074
890.13	21245
890.254	21093
890.377	20956
890.501	20834
890.624	20811
890.748	20876
890.871	20815
890.995	20765
891.118	20636
891.241	20826
891.364	20834
891.488	20857
891.611	20788
891.734	20781
891.857	20773
891.98	20796
892.103	20781
892.226	20762
892.349	20743
892.471	20507
892.594	20552
892.717	20587
892.839	20545
892.962	20530
893.085	20678
893.207	20564
893.33	20617
893.452	20545
893.575	20579
893.697	20560
893.819	20796
893.941	20686
894.064	20686
894.186	20461
894.308	20541
894.43	20575
894.552	20800
894.674	20670
894.796	20568
894.918	20484
895.04	20564
895.161	20629
895.283	20587
895.405	20549
895.526	20571
895.648	20575
895.769	20701
895.891	20560
896.012	20579
896.134	20621
896.255	20678
896.376	20473
896.498	20526
896.619	20686
896.74	20484
896.861	20579
896.982	21009
897.103	21036
897.224	20838
897.345	20746
897.466	20663
897.587	20834
897.708	20800
897.828	20948
897.949	20758
898.07	20560
898.19	20674
898.311	20902
898.431	20621
898.552	20769
898.672	20796
898.792	20937
898.913	20807
899.033	20731
899.153	20560
899.273	20457
899.393	20568
899.513	20564
899.633	20446
899.753	20579
899.873	20442
899.993	20590
900.113	20400
900.232	20446
900.352	20476
900.472	20385
900.591	20195
900.711	20412
900.83	20256
900.95	20343
901.069	20408
901.189	20149
901.308	20008
901.427	19963
901.546	19982
901.665	19921
901.784	19890
901.904	19769
902.023	19674
902.141	19362
902.26	19320
902.379	19480
902.498	19426
902.617	19358
902.735	19396
902.854	19491
902.973	19308
903.091	19084
903.21	19034
903.328	18996
903.446	18977
903.565	18871
903.683	18833
903.801	18798
903.919	18776
904.038	18753
904.156	18650
904.274	18646
904.392	18608
904.51	18551
904.627	18540
904.745	18684
904.863	18722
904.981	18353
905.098	18342
905.216	18289
905.334	18262
905.451	18235
905.569	18315
905.686	18323
905.803	18361
905.921	18117
906.038	18197
906.155	18083
906.272	17980
906.389	18045
906.506	17805
906.623	17904
906.74	17904
906.857	17729
906.974	17771
907.091	17859
907.208	17923
907.324	17809
907.441	17691
907.557	17600
907.674	17634
907.79	17395
907.907	17558
908.023	17539
908.139	17501
908.256	17467
908.372	17429
908.488	17524
908.604	17326
908.72	17292
908.836	17204
908.952	17216
909.068	17288
909.184	17265
909.3	17239
909.415	17250
909.531	17250
909.647	16957
909.762	17022
909.878	16984
909.993	16991
910.108	16892
910.224	16839
910.339	17014
910.454	16786
910.57	16786
910.685	16641
910.8	16995
910.915	16797
911.03	16691
911.145	16561
911.259	16580
911.374	16599
911.489	16523
911.604	16402
911.718	16234
911.833	16215
911.947	16188
912.062	16101
912.176	16280
912.291	16226
912.405	16291
912.519	16405
912.633	16504
912.748	16287
912.862	16310
912.976	16173
913.09	15895
913.204	15956
913.318	16177
913.431	16090
913.545	16200
913.659	16204
913.772	15975
913.886	15956
914	15953
914.113	15911
914.226	15903
914.34	15918
914.453	15709
914.566	15991
914.68	15747
914.793	15808
914.906	15553
915.019	15504
915.132	15462
915.245	15439
915.358	15629
915.47	15492
915.583	15466
915.696	15443
915.809	15656
915.921	15534
916.034	15454
916.146	15389
916.259	15344
916.371	15526
916.483	15477
916.595	15348
916.708	15378
916.82	15340
916.932	15195
917.044	15291
917.156	15142
917.268	15127
917.38	15165
917.491	15024
917.603	15051
917.715	15138
917.826	15169
917.938	15058
918.049	14902
918.161	15062
918.272	15169
918.384	15195
918.495	15097
918.606	14963
918.717	14834
918.828	14887
918.939	14883
919.05	14781
919.161	14861
919.272	14590
919.383	14716
919.494	14857
919.604	15058
919.715	14842
919.826	14853
919.936	14842
920.047	14864
920.157	14861
920.267	14986
920.378	14750
920.488	14777
920.598	14963
920.708	15085
920.818	15036
920.928	14921
921.038	15146
921.148	15020
921.258	14823
921.368	14678
921.477	14556
921.587	14541
921.697	14438
921.806	14556
921.916	14328
922.025	14225
922.134	14176
922.244	14138
922.353	14183
922.462	14077
922.571	13940
922.68	13830
922.789	13753
922.898	13807
923.007	13761
923.116	13860
923.224	13795
923.333	13814
923.442	13700
923.55	13590
923.659	13674
923.767	13658
923.876	13597
923.984	13674
924.092	13521
924.201	13609
924.309	13590
924.417	13499
924.525	13552
924.633	13415
924.741	14267
924.849	13365
924.956	13419
925.064	13403
925.172	13152
925.279	13251
925.387	13206
925.494	13251
925.602	13285
925.709	13354
925.816	13164
925.924	13225
926.031	13213
926.138	13255
926.245	13145
926.352	13236
926.459	13289
926.566	13228
926.673	13061
926.779	12916
926.886	12958
926.993	12875
927.099	12787
927.206	12745
927.312	12696
927.419	12772
927.525	12821
927.631	12802
927.737	12650
927.843	12608
927.95	12498
928.056	12532
928.162	12650
928.267	12654
928.373	13168
928.479	12673
928.585	12445
928.69	12517
928.796	12540
928.901	12509
929.007	12304
929.112	12456
929.218	12422
929.323	12281
929.428	12353
929.533	12403
929.638	12262
929.743	12224
929.848	12285
929.953	12273
930.058	12129
930.163	12068
930.267	12034
930.372	12163
930.477	11901
930.581	12152
930.685	12083
930.79	11863
930.894	11961
930.998	11958
931.103	12057
931.207	11661
931.311	11551
931.415	11414
931.519	11288
931.623	11273
