Data from test_V78500241_1233.txt Node
Date: Fri Mar 25 15:18:26 CST 2022
User: usil
Spectrometer: V785-0024
Trigger mode: 0
Integration Time (sec): 4.000000E-1
Scans to average: 1
Nonlinearity correction enabled: false
Boxcar width: 0
Storing dark spectrum: false
XAxis mode: Wavelengths
Number of Pixels in Spectrum: 1024
>>>>>Begin Spectral Data<<<<<
801.071	28238
801.214	28082
801.356	27873
801.499	27823
801.641	27713
801.783	27679
801.926	27846
802.068	27781
802.211	27603
802.353	27591
802.496	27454
802.638	27458
802.78	27268
802.923	27272
803.065	27370
803.208	27340
803.35	27374
803.492	27439
803.635	27587
803.777	27397
803.919	27705
804.061	27876
804.204	27568
804.346	27477
804.488	27443
804.63	27542
804.773	27625
804.915	27553
805.057	27652
805.199	27618
805.341	27774
805.483	27663
805.626	27762
805.768	27629
805.91	27827
806.052	27679
806.194	27614
806.336	27914
806.478	27907
806.62	27599
806.762	27918
806.904	27918
807.046	28291
807.188	28059
807.33	28147
807.472	28219
807.614	28139
807.756	28097
807.898	28086
808.04	27956
808.182	27960
808.324	27949
808.465	27987
808.607	28299
808.749	28394
808.891	28481
809.033	28516
809.174	28436
809.316	28379
809.458	28280
809.6	28356
809.741	28417
809.883	28489
810.025	28660
810.166	28615
810.308	28634
810.45	28622
810.591	28656
810.733	28447
810.875	28375
811.016	28177
811.158	28322
811.299	28489
811.441	28440
811.582	28504
811.724	28386
811.865	28337
812.007	28382
812.148	28249
812.29	28424
812.431	28523
812.573	28713
812.714	28896
812.855	28885
812.997	29105
813.138	29113
813.279	29079
813.421	28752
813.562	28953
813.703	28645
813.845	28618
813.986	28337
814.127	28234
814.268	28093
814.41	28093
814.551	28036
814.692	28109
814.833	28078
814.974	27949
815.115	28025
815.256	28006
815.397	28048
815.539	28036
815.68	27827
815.821	27823
815.962	27880
816.103	27998
816.244	27804
816.385	27724
816.526	27728
816.666	27466
816.807	27332
816.948	27435
817.089	27507
817.23	27412
817.371	27370
817.512	27393
817.653	27462
817.793	27211
817.934	27454
818.075	27439
818.216	27454
818.356	27431
818.497	27218
818.638	27135
818.778	27089
818.919	27230
819.06	27169
819.2	27283
819.341	27424
819.481	27382
819.622	27568
819.762	27561
819.903	27625
820.043	27587
820.184	27545
820.324	27416
820.465	27557
820.605	27485
820.746	27454
820.886	27492
821.026	27504
821.167	27416
821.307	27622
821.447	27526
821.588	27313
821.728	27302
821.868	26925
822.008	26914
822.149	26975
822.289	26781
822.429	26678
822.569	26495
822.709	26469
822.849	26450
822.99	26469
823.13	26385
823.27	26400
823.41	26221
823.55	26065
823.69	26199
823.83	26252
823.97	26142
824.11	25940
824.25	25993
824.389	26043
824.529	26134
824.669	26111
824.809	26077
824.949	26126
825.089	26088
825.228	26043
825.368	25917
825.508	25814
825.648	25902
825.787	25940
825.927	25966
826.067	25875
826.206	25906
826.346	25879
826.485	25966
826.625	25849
826.765	26016
826.904	25871
827.044	25822
827.183	25689
827.323	25662
827.462	25693
827.601	25666
827.741	25658
827.88	25693
828.02	25643
828.159	25491
828.298	25647
828.437	25723
828.577	25582
828.716	25712
828.855	25635
828.994	25506
829.134	25445
829.273	25289
829.412	25198
829.551	25316
829.69	25419
829.829	25316
829.968	25354
830.107	25335
830.246	25247
830.385	25297
830.524	25179
830.663	25095
830.802	25148
830.941	24852
831.08	24863
831.219	25046
831.357	25012
831.496	25213
831.635	24951
831.774	24897
831.913	24909
832.051	24783
832.19	24741
832.329	24738
832.467	24642
832.606	24566
832.744	24551
832.883	24566
833.022	24513
833.16	24703
833.299	24715
833.437	24692
833.576	24856
833.714	24635
833.852	24749
833.991	24749
834.129	24867
834.267	24722
834.406	24734
834.544	24760
834.682	24616
834.821	24608
834.959	24837
835.097	24753
835.235	24703
835.373	24696
835.511	24726
835.65	24467
835.788	24521
835.926	24403
836.064	24353
836.202	24311
836.34	24650
836.478	24566
836.615	24525
836.753	24391
836.891	24620
837.029	24460
837.167	24536
837.305	24429
837.443	24395
837.58	24342
837.718	24452
837.856	24452
837.993	24292
838.131	24395
838.269	24258
838.406	24315
838.544	24121
838.681	24106
838.819	24011
838.956	23733
839.094	23889
839.231	23893
839.369	24076
839.506	24262
839.643	24110
839.781	23923
839.918	23779
840.055	23908
840.193	23836
840.33	23741
840.467	23665
840.604	23889
840.742	24026
840.879	23657
841.016	23767
841.153	23729
841.29	23859
841.427	23786
841.564	23668
841.701	23775
841.838	23703
841.975	23615
842.112	23665
842.249	23611
842.385	23528
842.522	23661
842.659	23680
842.796	23444
842.933	23577
843.069	23410
843.206	23433
843.343	23554
843.479	23471
843.616	23505
843.752	23341
843.889	23254
844.025	23490
844.162	23311
844.298	23273
844.435	23303
844.571	23193
844.708	23341
844.844	23531
844.98	23223
845.117	23330
845.253	23204
845.389	23212
845.525	23132
845.661	23132
845.798	22919
845.934	23140
846.07	23025
846.206	23025
846.342	23189
846.478	23022
846.614	22778
846.75	22691
846.886	22580
847.022	22896
847.158	22755
847.294	22755
847.429	22805
847.565	22797
847.701	23014
847.837	22443
847.972	22382
848.108	22611
848.244	22615
848.379	22268
848.515	22405
848.65	22337
848.786	22333
848.921	22272
849.057	22451
849.192	22398
849.328	22459
849.463	22303
849.598	22268
849.734	22238
849.869	22291
850.004	21987
850.14	22109
850.275	22158
850.41	22002
850.545	22036
850.68	22131
850.815	22036
850.95	22181
851.085	22280
851.22	22246
851.355	22101
851.49	22078
851.625	21934
851.76	22040
851.895	22067
852.03	22002
852.165	22044
852.299	22078
852.434	22196
852.569	22181
852.703	22150
852.838	22150
852.973	22356
853.107	22257
853.242	22067
853.376	21956
853.511	21880
853.645	21892
853.78	22010
853.914	21983
854.048	21892
854.183	21888
854.317	21949
854.451	22029
854.585	21987
854.72	21945
854.854	21991
854.988	21880
855.122	21857
855.256	21800
855.39	21979
855.524	22006
855.658	21983
855.792	21960
855.926	21918
856.06	22021
856.194	22002
856.327	21949
856.461	21983
856.595	21907
856.729	21994
856.862	22070
856.996	21915
857.13	21941
857.263	22021
857.397	22063
857.53	21922
857.664	21960
857.797	21953
857.931	22097
858.064	21915
858.197	21987
858.331	21838
858.464	21964
858.597	21812
858.731	21846
858.864	21838
858.997	21827
859.13	21804
859.263	21850
859.396	21998
859.529	21930
859.662	21945
859.795	21895
859.928	22029
860.061	22067
860.194	22150
860.327	21979
860.46	21987
860.592	22055
860.725	22017
860.858	22112
860.99	21895
861.123	21800
861.256	21937
861.388	21930
861.521	22599
861.653	21850
861.786	21728
861.918	21770
862.05	21930
862.183	21903
862.315	21953
862.447	21857
862.58	21869
862.712	21739
862.844	21648
862.976	21781
863.108	21720
863.24	22074
863.372	21599
863.504	21641
863.636	21667
863.768	21641
863.9	21629
864.032	21701
864.164	21633
864.296	21595
864.428	21675
864.559	21686
864.691	21652
864.823	21595
864.954	21720
865.086	21538
865.217	21530
865.349	21515
865.48	21618
865.612	21553
865.743	21728
865.875	21496
866.006	21370
866.137	21515
866.269	21511
866.4	21526
866.531	21420
866.662	21428
866.793	21462
866.924	21473
867.055	21507
867.186	21637
867.317	21492
867.448	21348
867.579	21420
867.71	21329
867.841	21211
867.972	21428
868.103	21393
868.233	21450
868.364	21466
868.495	21530
868.625	21755
868.756	21739
868.886	21618
869.017	21762
869.147	21770
869.278	21854
869.408	21648
869.539	21679
869.669	21838
869.799	21831
869.929	21774
870.06	21835
870.19	21983
870.32	21994
870.45	22029
870.58	22070
870.71	22219
870.84	22249
870.97	21991
871.1	22078
871.23	22295
871.36	22230
871.489	22105
871.619	22291
871.749	22173
871.879	22382
872.008	22421
872.138	22314
872.267	22314
872.397	22032
872.526	22116
872.656	22097
872.785	22181
872.915	22386
873.044	22382
873.173	22337
873.303	22356
873.432	22371
873.561	22500
873.69	22356
873.819	22207
873.948	22390
874.077	22306
874.206	22333
874.335	22360
874.464	22455
874.593	22424
874.722	22531
874.851	22573
874.979	22516
875.108	22538
875.237	22455
875.365	22318
875.494	22466
875.623	22557
875.751	22497
875.88	22580
876.008	22516
876.136	22603
876.265	22915
876.393	23075
876.521	23067
876.65	22961
876.778	23006
876.906	22843
877.034	22949
877.162	22980
877.29	22889
877.418	22831
877.546	22767
877.674	22908
877.802	22809
877.93	22835
878.058	22801
878.185	22683
878.313	22854
878.441	22881
878.568	22744
878.696	22797
878.824	22862
878.951	22839
879.079	23086
879.206	23071
879.333	22995
879.461	22881
879.588	22965
879.715	23174
879.842	23136
879.97	22968
880.097	22584
880.224	22596
880.351	22622
880.478	22725
880.605	22793
880.732	22607
880.859	22835
880.986	22660
881.112	22622
881.239	22630
881.366	22413
881.493	22257
881.619	22086
881.746	22291
881.872	22211
881.999	22337
882.125	22207
882.252	22280
882.378	22295
882.505	22341
882.631	22116
882.757	21956
882.883	21945
883.01	21941
883.136	21819
883.262	21846
883.388	21766
883.514	21987
883.64	21934
883.766	21911
883.892	21629
884.018	21778
884.143	21789
884.269	21983
884.395	21523
884.52	21515
884.646	21663
884.772	21599
884.897	21420
885.023	21610
885.148	21572
885.274	21583
885.399	21667
885.524	21572
885.65	21530
885.775	21667
885.9	21462
886.025	21724
886.15	21618
886.275	21519
886.4	21553
886.525	21519
886.65	21431
886.775	21462
886.9	21717
887.025	21781
887.149	21523
887.274	21431
887.399	21408
887.523	21313
887.648	21469
887.773	21325
887.897	21397
888.021	21462
888.146	21272
888.27	21389
888.395	21443
888.519	21325
888.643	21370
888.767	21344
888.891	21260
889.015	21173
889.139	21108
889.263	21188
889.387	21256
889.511	21351
889.635	21268
889.759	21192
889.883	21058
890.006	21081
890.13	21165
890.254	21039
890.377	20914
890.501	20823
890.624	20807
890.748	20880
890.871	20781
890.995	20678
891.118	20648
891.241	20670
891.364	20712
891.488	20754
891.611	20632
891.734	20743
891.857	20667
891.98	20739
892.103	20750
892.226	20621
892.349	20632
892.471	20541
892.594	20602
892.717	20640
892.839	20545
892.962	20693
893.085	20583
893.207	20393
893.33	20412
893.452	20492
893.575	20648
893.697	20488
893.819	20670
893.941	20678
894.064	20735
894.186	20431
894.308	20617
894.43	20587
894.552	20568
894.674	20640
894.796	20476
894.918	20564
895.04	20446
895.161	20746
895.283	20575
895.405	20495
895.526	20537
895.648	20526
895.769	20629
895.891	20663
896.012	20640
896.134	20644
896.255	20598
896.376	20499
896.498	20670
896.619	20602
896.74	20495
896.861	20552
896.982	20895
897.103	20994
897.224	20773
897.345	20796
897.466	20674
897.587	20830
897.708	20899
897.828	20762
897.949	20746
898.07	20598
898.19	20746
898.311	20868
898.431	20670
898.552	20735
898.672	20849
898.792	20910
898.913	20849
899.033	20503
899.153	20629
899.273	20450
899.393	20522
899.513	20522
899.633	20503
899.753	20583
899.873	20495
899.993	20571
900.113	20389
900.232	20507
900.352	20469
900.472	20355
900.591	20233
900.711	20119
900.83	20145
900.95	20343
901.069	20225
901.189	20149
901.308	19982
901.427	19947
901.546	19750
901.665	19833
901.784	19822
901.904	19765
902.023	19696
902.141	19381
902.26	19396
902.379	19480
902.498	19278
902.617	19343
902.735	19362
902.854	19339
902.973	19331
903.091	19027
903.21	19095
903.328	18951
903.446	18935
903.565	18783
903.683	18798
903.801	18852
903.919	18768
904.038	18757
904.156	18661
904.274	18555
904.392	18563
904.51	18494
904.627	18642
904.745	18661
904.863	18639
904.981	18353
905.098	18277
905.216	18232
905.334	18479
905.451	18155
905.569	18205
905.686	18342
905.803	18216
905.921	18057
906.038	18167
906.155	18102
906.272	17942
906.389	18041
906.506	17779
906.623	17802
906.74	17783
906.857	17729
906.974	17604
907.091	17901
907.208	17893
907.324	17771
907.441	17748
907.557	17585
907.674	17467
907.79	17558
907.907	17486
908.023	17482
908.139	17524
908.256	17463
908.372	17383
908.488	17429
908.604	17239
908.72	17227
908.836	17364
908.952	17151
909.068	17265
909.184	17311
909.3	17155
909.415	17246
909.531	17117
909.647	16999
909.762	16976
909.878	16987
909.993	16987
910.108	16889
910.224	16866
910.339	16930
910.454	16816
910.57	16733
910.685	16653
910.8	16995
910.915	16843
911.03	16679
911.145	16542
911.259	16489
911.374	16542
911.489	16596
911.604	16440
911.718	16253
911.833	16242
911.947	16124
912.062	16078
912.176	16246
912.291	16223
912.405	16173
912.519	16500
912.633	16303
912.748	16253
912.862	16181
912.976	16105
913.09	15972
913.204	16025
913.318	16067
913.431	16253
913.545	16109
913.659	16135
913.772	15964
913.886	15907
914	15793
914.113	15983
914.226	16063
914.34	15930
914.453	15827
914.566	15774
914.68	15698
914.793	15747
914.906	15496
915.019	15454
915.132	15435
915.245	15435
915.358	15367
915.47	15492
915.583	15412
915.696	15515
915.809	15603
915.921	15587
916.034	15443
916.146	15454
916.259	15294
916.371	15488
916.483	15344
916.595	15336
916.708	15218
916.82	15272
916.932	15199
917.044	15264
917.156	15195
917.268	15047
917.38	15116
917.491	15089
917.603	15135
917.715	15173
917.826	15108
917.938	14979
918.049	14929
918.161	15089
918.272	15081
918.384	15138
918.495	15074
918.606	14960
918.717	14849
918.828	14811
918.939	14880
919.05	14758
919.161	14815
919.272	14579
919.383	14743
919.494	14883
919.604	15013
919.715	14883
919.826	14762
919.936	14811
920.047	14804
920.157	14796
920.267	15013
920.378	14811
920.488	14834
920.598	14986
920.708	15157
920.818	14952
920.928	14842
921.038	15005
921.148	15005
921.258	14815
921.368	14735
921.477	14590
921.587	14533
921.697	14336
921.806	14613
921.916	14351
922.025	14240
922.134	14164
922.244	14191
922.353	14199
922.462	14058
922.571	14024
922.68	13795
922.789	13845
922.898	13837
923.007	13719
923.116	13944
923.224	13719
923.333	13700
923.442	13727
923.55	13689
923.659	13666
923.767	13738
923.876	13609
923.984	13677
924.092	13544
924.201	13613
924.309	13594
924.417	13567
924.525	13441
924.633	13514
924.741	14229
924.849	13327
924.956	13480
925.064	13168
925.172	13171
925.279	13168
925.387	13240
925.494	13190
925.602	13301
925.709	13270
925.816	13110
925.924	13141
926.031	13282
926.138	13080
926.245	13164
926.352	13076
926.459	13198
926.566	13228
926.673	12989
926.779	12943
926.886	12958
926.993	12814
927.099	12806
927.206	12646
927.312	12802
927.419	12810
927.525	12673
927.631	12890
927.737	12642
927.843	12559
927.95	12585
928.056	12597
928.162	12669
928.267	12650
928.373	13266
928.479	12616
928.585	12452
928.69	12574
928.796	12582
928.901	12467
929.007	12270
929.112	12418
929.218	12414
929.323	12251
929.428	12251
929.533	12426
929.638	12228
929.743	12277
929.848	12277
929.953	12251
930.058	12140
930.163	12034
930.267	11980
930.372	12102
930.477	11840
930.581	12110
930.685	12045
930.79	11863
930.894	11847
930.998	11843
931.103	11984
931.207	11619
931.311	11589
931.415	11429
931.519	11258
931.623	11220
