Data from test_V78500241_233.txt Node
Date: Fri Mar 25 15:11:28 CST 2022
User: usil
Spectrometer: V785-0024
Trigger mode: 0
Integration Time (sec): 4.000000E-1
Scans to average: 1
Nonlinearity correction enabled: false
Boxcar width: 0
Storing dark spectrum: false
XAxis mode: Wavelengths
Number of Pixels in Spectrum: 1024
>>>>>Begin Spectral Data<<<<<
801.071	27610
801.214	27603
801.356	27264
801.499	27370
801.641	27058
801.783	27203
801.926	27294
802.068	27096
802.211	27062
802.353	27089
802.496	26891
802.638	26678
802.78	26781
802.923	26868
803.065	26613
803.208	26632
803.35	26830
803.492	26990
803.635	26849
803.777	26769
803.919	26899
804.061	27184
804.204	27020
804.346	26708
804.488	26602
804.63	26693
804.773	26670
804.915	26864
805.057	26925
805.199	26807
805.341	26857
805.483	26887
805.626	26883
805.768	26708
805.91	26887
806.052	26940
806.194	26708
806.336	27024
806.478	27020
806.62	26826
806.762	26899
806.904	27199
807.046	27519
807.188	27211
807.33	27233
807.472	27386
807.614	27188
807.756	27176
807.898	27123
808.04	27104
808.182	27058
808.324	27233
808.465	27055
808.607	27264
808.749	27477
808.891	27534
809.033	27679
809.174	27629
809.316	27439
809.458	27553
809.6	27427
809.741	27298
809.883	27690
810.025	27663
810.166	27751
810.308	27625
810.45	27644
810.591	27542
810.733	27389
810.875	27359
811.016	27313
811.158	27302
811.299	27519
811.441	27610
811.582	27675
811.724	27443
811.865	27195
812.007	27336
812.148	27378
812.29	27397
812.431	27561
812.573	27564
812.714	27686
812.855	27895
812.997	27937
813.138	28242
813.279	27892
813.421	27941
813.562	28013
813.703	27770
813.845	27545
813.986	27310
814.127	27142
814.268	27222
814.41	27066
814.551	27096
814.692	27123
814.833	26956
814.974	26994
815.115	26956
815.256	26762
815.397	26880
815.539	26777
815.68	26743
815.821	26750
815.962	26971
816.103	26686
816.244	26602
816.385	26533
816.526	26507
816.666	26362
816.807	26225
816.948	26484
817.089	26370
817.23	26259
817.371	26157
817.512	26229
817.653	26202
817.793	26043
817.934	26172
818.075	26191
818.216	26218
818.356	26149
818.497	26016
818.638	25879
818.778	25963
818.919	26024
819.06	26077
819.2	26073
819.341	26035
819.481	26065
819.622	26271
819.762	26514
819.903	26366
820.043	26362
820.184	26339
820.324	26119
820.465	26298
820.605	26282
820.746	26294
820.886	26275
821.026	26206
821.167	26073
821.307	26336
821.447	26149
821.588	26126
821.728	26005
821.868	25803
822.008	25780
822.149	25647
822.289	25590
822.429	25358
822.569	25274
822.709	25320
822.849	24973
822.99	25145
823.13	25019
823.27	25000
823.41	24863
823.55	24882
823.69	24992
823.83	24856
823.97	24943
824.11	24783
824.25	24719
824.389	24688
824.529	24749
824.669	24730
824.809	24707
824.949	24749
825.089	24810
825.228	24779
825.368	24719
825.508	24585
825.648	24536
825.787	24555
825.927	24547
826.067	24566
826.206	24517
826.346	24612
826.485	24582
826.625	24422
826.765	24570
826.904	24578
827.044	24254
827.183	24159
827.323	24152
827.462	24178
827.601	24277
827.741	24098
827.88	24102
828.02	24209
828.159	24091
828.298	24182
828.437	24281
828.577	24117
828.716	24273
828.855	24034
828.994	23935
829.134	23954
829.273	24011
829.412	23878
829.551	23851
829.69	23958
829.829	23988
829.968	24045
830.107	23969
830.246	23916
830.385	23802
830.524	23931
830.663	23752
830.802	23752
830.941	23501
831.08	23440
831.219	23512
831.357	23585
831.496	23741
831.635	23372
831.774	23341
831.913	23391
832.051	23242
832.19	23303
832.329	23326
832.467	23136
832.606	23151
832.744	23105
832.883	23071
833.022	23208
833.16	23197
833.299	23227
833.437	23197
833.576	23231
833.714	23185
833.852	23220
833.991	23220
834.129	23220
834.267	23273
834.406	23250
834.544	23185
834.682	23239
834.821	23193
834.959	23406
835.097	23121
835.235	23288
835.373	23155
835.511	23151
835.65	22968
835.788	23143
835.926	22934
836.064	22877
836.202	22839
836.34	22987
836.478	23048
836.615	22957
836.753	23086
836.891	23227
837.029	23033
837.167	22999
837.305	22911
837.443	23006
837.58	22965
837.718	23044
837.856	22961
837.993	22828
838.131	22717
838.269	22797
838.406	22744
838.544	22679
838.681	22508
838.819	22557
838.956	22329
839.094	22314
839.231	22299
839.369	22436
839.506	22630
839.643	22538
839.781	22325
839.918	22295
840.055	22196
840.193	22261
840.33	22318
840.467	22333
840.604	22249
840.742	22436
840.879	22116
841.016	22169
841.153	22131
841.29	22257
841.427	22150
841.564	22242
841.701	22204
841.838	22147
841.975	22188
842.112	22086
842.249	22006
842.385	21869
842.522	22124
842.659	21998
842.796	22002
842.933	22002
843.069	21926
843.206	21949
843.343	22074
843.479	21994
843.616	21998
843.752	21732
843.889	21713
844.025	21747
844.162	21709
844.298	21819
844.435	21781
844.571	21705
844.708	21743
844.844	21915
844.98	21869
845.117	21819
845.253	21694
845.389	21538
845.525	21553
845.661	21564
845.798	21507
845.934	21530
846.07	21435
846.206	21473
846.342	21599
846.478	21370
846.614	21272
846.75	21085
846.886	21154
847.022	21195
847.158	21207
847.294	21169
847.429	21165
847.565	21211
847.701	21428
847.837	20880
847.972	20834
848.108	20956
848.244	20914
848.379	20796
848.515	20758
848.65	20735
848.786	20834
848.921	20792
849.057	20826
849.192	20811
849.328	20826
849.463	20724
849.598	20781
849.734	20743
849.869	20651
850.004	20446
850.14	20503
850.275	20564
850.41	20377
850.545	20514
850.68	20537
850.815	20533
850.95	20381
851.085	20644
851.22	20560
851.355	20560
851.49	20552
851.625	20492
851.76	20495
851.895	20404
852.03	20396
852.165	20518
852.299	20568
852.434	20560
852.569	20537
852.703	20533
852.838	20389
852.973	20648
853.107	20579
853.242	20393
853.376	20328
853.511	20161
853.645	20339
853.78	20431
853.914	20252
854.048	20237
854.183	20370
854.317	20267
854.451	20522
854.585	20366
854.72	20374
854.854	20339
854.988	20309
855.122	20355
855.256	20111
855.39	20309
855.524	20305
855.658	20412
855.792	20263
855.926	20267
856.06	20396
856.194	20442
856.327	20275
856.461	20278
856.595	20237
856.729	20313
856.862	20415
856.996	20191
857.13	20438
857.263	20396
857.397	20366
857.53	20301
857.664	20320
857.797	20332
857.931	20309
858.064	20336
858.197	20438
858.331	20339
858.464	20206
858.597	20172
858.731	20286
858.864	20290
858.997	20263
859.13	20286
859.263	20396
859.396	20374
859.529	20218
859.662	20115
859.795	20161
859.928	20278
860.061	20370
860.194	20461
860.327	20252
860.46	20240
860.592	20366
860.725	20465
860.858	20404
860.99	20336
861.123	20183
861.256	20263
861.388	20256
861.521	20982
861.653	20107
861.786	20100
861.918	20259
862.05	20077
862.183	20248
862.315	20328
862.447	20328
862.58	20161
862.712	20035
862.844	19993
862.976	20069
863.108	20130
863.24	20385
863.372	19947
863.504	19959
863.636	19921
863.768	19917
863.9	20096
864.032	19959
864.164	20016
864.296	19951
864.428	20008
864.559	20043
864.691	20115
864.823	19963
864.954	20027
865.086	20008
865.217	19944
865.349	19917
865.48	19822
865.612	19928
865.743	20103
865.875	19826
866.006	19795
866.137	19868
866.269	19841
866.4	19925
866.531	19795
866.662	19795
866.793	19776
866.924	19875
867.055	19852
867.186	19826
867.317	19738
867.448	19727
867.579	19852
867.71	19662
867.841	19890
867.972	19822
868.103	19803
868.233	19845
868.364	19894
868.495	20012
868.625	20012
868.756	20221
868.886	20012
869.017	20008
869.147	20126
869.278	20317
869.408	20142
869.539	20183
869.669	20183
869.799	20161
869.929	20176
870.06	20237
870.19	20301
870.32	20484
870.45	20343
870.58	20438
870.71	20499
870.84	20442
870.97	20522
871.1	20381
871.23	20743
871.36	20632
871.489	20640
871.619	20594
871.749	20674
871.879	20682
872.008	20758
872.138	20716
872.267	20735
872.397	20621
872.526	20530
872.656	20480
872.785	20484
872.915	20655
873.044	20918
873.173	20686
873.303	20765
873.432	20724
873.561	20765
873.69	20587
873.819	20750
873.948	20796
874.077	20731
874.206	20602
874.335	20648
874.464	20910
874.593	20880
874.722	20902
874.851	20895
874.979	20861
875.108	20902
875.237	20895
875.365	20743
875.494	20845
875.623	20963
875.751	21047
875.88	20986
876.008	21161
876.136	21161
876.265	21222
876.393	21443
876.521	21355
876.65	21340
876.778	21370
876.906	21325
877.034	21195
877.162	21310
877.29	21230
877.418	21355
877.546	21275
877.674	21245
877.802	21397
877.93	21211
878.058	21123
878.185	21184
878.313	21405
878.441	21272
878.568	21157
878.696	21192
878.824	21249
878.951	21401
879.079	21370
879.206	21580
879.333	21424
879.461	21443
879.588	21416
879.715	21363
879.842	21534
879.97	21306
880.097	21157
880.224	21100
880.351	21108
880.478	21055
880.605	20971
880.732	21123
880.859	21226
880.986	21135
881.112	21226
881.239	20929
881.366	20918
881.493	20845
881.619	20708
881.746	20769
881.872	20670
881.999	20727
882.125	20670
882.252	20701
882.378	20727
882.505	20826
882.631	20609
882.757	20522
882.883	20503
883.01	20465
883.136	20271
883.262	20442
883.388	20244
883.514	20301
883.64	20499
883.766	20370
883.892	20210
884.018	20305
884.143	20473
884.269	20374
884.395	20206
884.52	20111
884.646	20187
884.772	20001
884.897	20020
885.023	20134
885.148	20229
885.274	20233
885.399	20180
885.524	19986
885.65	20145
885.775	20020
885.9	20065
886.025	20195
886.15	20134
886.275	19940
886.4	19951
886.525	20103
886.65	20058
886.775	20031
886.9	20153
887.025	20434
887.149	20107
887.274	19852
887.399	19894
887.523	19868
887.648	19826
887.773	19818
887.897	19898
888.021	19902
888.146	19822
888.27	20039
888.395	19978
888.519	19955
888.643	19906
888.767	19830
888.891	19780
889.015	19647
889.139	19685
889.263	19666
889.387	19677
889.511	19925
889.635	19753
889.759	19609
889.883	19696
890.006	19609
890.13	19689
890.254	19563
890.377	19552
890.501	19373
890.624	19392
890.748	19350
890.871	19453
890.995	19209
891.118	19110
891.241	19198
891.364	19346
891.488	19400
891.611	19327
891.734	19312
891.857	19289
891.98	19278
892.103	19137
892.226	19213
892.349	19255
892.471	19046
892.594	19164
892.717	19247
892.839	19110
892.962	19175
893.085	19118
893.207	19122
893.33	19152
893.452	19126
893.575	19251
893.697	19114
893.819	19251
893.941	19301
894.064	19392
894.186	19114
894.308	19069
894.43	19308
894.552	19285
894.674	19297
894.796	19034
894.918	19004
895.04	19069
895.161	19301
895.283	19190
895.405	19107
895.526	19194
895.648	19141
895.769	19152
895.891	19255
896.012	19270
896.134	19278
896.255	19270
896.376	19225
896.498	19263
896.619	19278
896.74	19137
896.861	19282
896.982	19499
897.103	19712
897.224	19441
897.345	19552
897.466	19266
897.587	19510
897.708	19559
897.828	19419
897.949	19373
898.07	19255
898.19	19392
898.311	19556
898.431	19430
898.552	19419
898.672	19453
898.792	19480
898.913	19373
899.033	19285
899.153	19335
899.273	19209
899.393	19278
899.513	19194
899.633	19187
899.753	19164
899.873	19038
899.993	19152
900.113	19114
900.232	19209
900.352	18966
900.472	18935
900.591	18894
900.711	19023
900.83	18901
900.95	19095
901.069	19080
901.189	18848
901.308	18623
901.427	18544
901.546	18635
901.665	18540
901.784	18494
901.904	18410
902.023	18365
902.141	18167
902.26	17954
902.379	18083
902.498	18110
902.617	17961
902.735	18079
902.854	17958
902.973	17954
903.091	17737
903.21	17733
903.328	17714
903.446	17577
903.565	17566
903.683	17539
903.801	17520
903.919	17395
904.038	17497
904.156	17353
904.274	17326
904.392	17299
904.51	17273
904.627	17315
904.745	17288
904.863	17288
904.981	17075
905.098	16984
905.216	17037
905.334	17143
905.451	17090
905.569	16938
905.686	16984
905.803	16968
905.921	16782
906.038	16896
906.155	16835
906.272	16672
906.389	16679
906.506	16527
906.623	16504
906.74	16462
906.857	16436
906.974	16485
907.091	16626
907.208	16630
907.324	16577
907.441	16390
907.557	16280
907.674	16223
907.79	16192
907.907	16322
908.023	16352
908.139	16284
908.256	16071
908.372	16135
908.488	16093
908.604	16025
908.72	16036
908.836	15895
908.952	15846
909.068	15960
909.184	16105
909.3	15918
909.415	15975
909.531	15934
909.647	15785
909.762	15812
909.878	15591
909.993	15549
910.108	15595
910.224	15587
910.339	15675
910.454	15538
910.57	15450
910.685	15420
910.8	15690
910.915	15682
911.03	15481
911.145	15329
911.259	15317
911.374	15344
911.489	15138
911.604	15104
911.718	15077
911.833	15028
911.947	14967
912.062	14944
912.176	15051
912.291	14994
912.405	15017
912.519	15188
912.633	15108
912.748	14975
912.862	15009
912.976	14819
913.09	14762
913.204	14849
913.318	14868
913.431	14781
913.545	14902
913.659	14990
913.772	14769
913.886	14705
914	14689
914.113	14750
914.226	14781
914.34	14762
914.453	14541
914.566	14663
914.68	14545
914.793	14560
914.906	14434
915.019	14240
915.132	14324
915.245	14240
915.358	14267
915.47	14229
915.583	14206
915.696	14309
915.809	14351
915.921	14431
916.034	14183
916.146	14259
916.259	14180
916.371	14263
916.483	14282
916.595	14096
916.708	14267
916.82	14088
916.932	14096
917.044	14126
917.156	14008
917.268	13909
917.38	13982
917.491	13902
917.603	14016
917.715	14031
917.826	14058
917.938	13982
918.049	13769
918.161	13906
918.272	13997
918.384	14100
918.495	13906
918.606	13776
918.717	13704
918.828	13700
918.939	13742
919.05	13624
919.161	13746
919.272	13559
919.383	13586
919.494	13833
919.604	13925
919.715	13685
919.826	13662
919.936	13677
920.047	13822
920.157	13784
920.267	13852
920.378	13696
920.488	13738
920.598	13803
920.708	13974
920.818	13871
920.928	13734
921.038	14008
921.148	13898
921.258	13662
921.368	13662
921.477	13468
921.587	13373
921.697	13331
921.806	13453
921.916	13232
922.025	13206
922.134	13156
922.244	12989
922.353	13213
922.462	12977
922.571	12966
922.68	12798
922.789	12730
922.898	12684
923.007	12783
923.116	12726
923.224	12692
923.333	12745
923.442	12650
923.55	12616
923.659	12578
923.767	12681
923.876	12578
923.984	12570
924.092	12490
924.201	12513
924.309	12601
924.417	12536
924.525	12441
924.633	12353
924.741	13217
924.849	12270
924.956	12350
925.064	12235
925.172	12186
925.279	12125
925.387	12209
925.494	12144
925.602	12323
925.709	12228
925.816	12140
925.924	12197
926.031	12277
926.138	12148
926.245	12254
926.352	12106
926.459	12175
926.566	12205
926.673	12106
926.779	12015
926.886	11923
926.993	11847
927.099	11813
927.206	11764
927.312	11760
927.419	11855
927.525	11741
927.631	11840
927.737	11729
927.843	11638
927.95	11608
928.056	11623
928.162	11630
928.267	11699
928.373	12216
928.479	11665
928.585	11440
928.69	11649
928.796	11486
928.901	11573
929.007	11337
929.112	11501
929.218	11478
929.323	11406
929.428	11364
929.533	11509
929.638	11372
929.743	11322
929.848	11364
929.953	11307
930.058	11220
930.163	11155
930.267	11071
930.372	11223
930.477	11006
930.581	11280
930.685	11178
930.79	10889
930.894	10927
930.998	10908
931.103	11079
931.207	10816
931.311	10717
931.415	10542
931.519	10375
931.623	10382
