Data from test_V78500241_726.txt Node
Date: Fri Mar 25 15:14:54 CST 2022
User: usil
Spectrometer: V785-0024
Trigger mode: 0
Integration Time (sec): 4.000000E-1
Scans to average: 1
Nonlinearity correction enabled: false
Boxcar width: 0
Storing dark spectrum: false
XAxis mode: Wavelengths
Number of Pixels in Spectrum: 1024
>>>>>Begin Spectral Data<<<<<
801.071	28204
801.214	27968
801.356	27930
801.499	27842
801.641	27785
801.783	27671
801.926	27698
802.068	27774
802.211	27568
802.353	27523
802.496	27226
802.638	27427
802.78	27344
802.923	27348
803.065	27336
803.208	27458
803.35	27397
803.492	27553
803.635	27462
803.777	27420
803.919	27454
804.061	27827
804.204	27511
804.346	27427
804.488	27439
804.63	27519
804.773	27564
804.915	27614
805.057	27789
805.199	27523
805.341	27553
805.483	27736
805.626	27762
805.768	27481
805.91	27656
806.052	27553
806.194	27568
806.336	27850
806.478	27682
806.62	27660
806.762	27808
806.904	27941
807.046	28253
807.188	28169
807.33	27914
807.472	28154
807.614	28067
807.756	28032
807.898	27979
808.04	27918
808.182	28006
808.324	28021
808.465	27960
808.607	28135
808.749	28257
808.891	28367
809.033	28363
809.174	28375
809.316	28318
809.458	28367
809.6	28493
809.741	28577
809.883	28489
810.025	28679
810.166	28588
810.308	28588
810.45	28580
810.591	28424
810.733	28356
810.875	28344
811.016	28128
811.158	28280
811.299	28390
811.441	28535
811.582	28386
811.724	28352
811.865	28272
812.007	28363
812.148	28356
812.29	28303
812.431	28584
812.573	28664
812.714	28801
812.855	28957
812.997	29003
813.138	29280
813.279	29140
813.421	28885
813.562	28923
813.703	28668
813.845	28599
813.986	28276
814.127	28120
814.268	27987
814.41	28029
814.551	28055
814.692	27964
814.833	27907
814.974	27949
815.115	28116
815.256	27945
815.397	27934
815.539	28013
815.68	27892
815.821	27717
815.962	27724
816.103	27831
816.244	27648
816.385	27564
816.526	27492
816.666	27477
816.807	27416
816.948	27519
817.089	27545
817.23	27389
817.371	27443
817.512	27397
817.653	27408
817.793	27207
817.934	27325
818.075	27363
818.216	27237
818.356	27256
818.497	27131
818.638	27237
818.778	27077
818.919	27047
819.06	27146
819.2	27355
819.341	27393
819.481	27363
819.622	27450
819.762	27778
819.903	27622
820.043	27549
820.184	27424
820.324	27583
820.465	27629
820.605	27454
820.746	27519
820.886	27355
821.026	27363
821.167	27427
821.307	27553
821.447	27317
821.588	27283
821.728	27135
821.868	26929
822.008	26857
822.149	26781
822.289	26754
822.429	26484
822.569	26583
822.709	26476
822.849	26199
822.99	26347
823.13	26271
823.27	26453
823.41	26054
823.55	26142
823.69	26202
823.83	26088
823.97	26084
824.11	25951
824.25	26020
824.389	25978
824.529	25986
824.669	25986
824.809	26111
824.949	26058
825.089	26244
825.228	26077
825.368	25769
825.508	25818
825.648	25852
825.787	25906
825.927	25963
826.067	25868
826.206	25879
826.346	25906
826.485	25795
826.625	25890
826.765	25769
826.904	25947
827.044	25666
827.183	25578
827.323	25563
827.462	25556
827.601	25582
827.741	25529
827.88	25582
828.02	25510
828.159	25502
828.298	25624
828.437	25601
828.577	25514
828.716	25590
828.855	25388
828.994	25369
829.134	25346
829.273	25377
829.412	25327
829.551	25236
829.69	25244
829.829	25274
829.968	25324
830.107	25403
830.246	25160
830.385	25194
830.524	25076
830.663	25099
830.802	25015
830.941	24890
831.08	24882
831.219	24928
831.357	24867
831.496	25126
831.635	24757
831.774	24635
831.913	24711
832.051	24593
832.19	24612
832.329	24821
832.467	24521
832.606	24551
832.744	24551
832.883	24525
833.022	24551
833.16	24445
833.299	24494
833.437	24547
833.576	24650
833.714	24479
833.852	24696
833.991	24616
834.129	24631
834.267	24620
834.406	24719
834.544	24513
834.682	24509
834.821	24627
834.959	24783
835.097	24475
835.235	24711
835.373	24612
835.511	24555
835.65	24471
835.788	24483
835.926	24346
836.064	24186
836.202	24216
836.34	24391
836.478	24612
836.615	24353
836.753	24441
836.891	24441
837.029	24433
837.167	24304
837.305	24372
837.443	24338
837.58	24216
837.718	24361
837.856	24330
837.993	24129
838.131	24216
838.269	24171
838.406	24232
838.544	23980
838.681	23927
838.819	23783
838.956	23619
839.094	23817
839.231	23775
839.369	24015
839.506	24140
839.643	24041
839.781	23649
839.918	23718
840.055	23718
840.193	23649
840.33	23558
840.467	23547
840.604	23714
840.742	23931
840.879	23497
841.016	23619
841.153	23353
841.29	23684
841.427	23642
841.564	23718
841.701	23745
841.838	23486
841.975	23402
842.112	23421
842.249	23356
842.385	23391
842.522	23634
842.659	23349
842.796	23303
842.933	23406
843.069	23330
843.206	23440
843.343	23459
843.479	23379
843.616	23383
843.752	23197
843.889	23239
844.025	23391
844.162	23174
844.298	23292
844.435	23189
844.571	23094
844.708	23170
844.844	23280
844.98	23326
845.117	23288
845.253	23075
845.389	22900
845.525	23075
845.661	23033
845.798	22847
845.934	22968
846.07	22801
846.206	22889
846.342	23014
846.478	22839
846.614	22694
846.75	22637
846.886	22527
847.022	22622
847.158	22611
847.294	22626
847.429	22561
847.565	22622
847.701	22927
847.837	22474
847.972	22303
848.108	22554
848.244	22291
848.379	22299
848.515	22207
848.65	22268
848.786	22215
848.921	22204
849.057	22443
849.192	22276
849.328	22352
849.463	22105
849.598	22257
849.734	22181
849.869	22124
850.004	22074
850.14	21918
850.275	21926
850.41	21850
850.545	21854
850.68	22002
850.815	21953
850.95	21934
851.085	22192
851.22	22067
851.355	21945
851.49	21975
851.625	21873
851.76	22021
851.895	21956
852.03	21918
852.165	22078
852.299	21983
852.434	22093
852.569	22105
852.703	22013
852.838	22105
852.973	22093
853.107	22124
853.242	21930
853.376	21747
853.511	21656
853.645	21781
853.78	21937
853.914	21732
854.048	21732
854.183	21854
854.317	21835
854.451	21956
854.585	21766
854.72	21812
854.854	21998
854.988	21736
855.122	21762
855.256	21728
855.39	21819
855.524	21873
855.658	21850
855.792	21819
855.926	21789
856.06	21808
856.194	21865
856.327	21637
856.461	21838
856.595	21762
856.729	21793
856.862	21915
856.996	21789
857.13	21808
857.263	21991
857.397	21819
857.53	21770
857.664	21838
857.797	21907
857.931	21857
858.064	21827
858.197	21857
858.331	21816
858.464	21587
858.597	21736
858.731	21686
858.864	21720
858.997	21823
859.13	21762
859.263	21804
859.396	21903
859.529	21930
859.662	21785
859.795	21800
859.928	21774
860.061	21861
860.194	21991
860.327	21842
860.46	21778
860.592	21888
860.725	22051
860.858	21884
860.99	21739
861.123	21717
861.256	21880
861.388	21808
861.521	22493
861.653	21720
861.786	21606
861.918	21572
862.05	21755
862.183	21663
862.315	21694
862.447	21724
862.58	21812
862.712	21542
862.844	21545
862.976	21572
863.108	21545
863.24	21808
863.372	21428
863.504	21549
863.636	21477
863.768	21507
863.9	21576
864.032	21389
864.164	21545
864.296	21557
864.428	21622
864.559	21561
864.691	21606
864.823	21386
864.954	21351
865.086	21389
865.217	21340
865.349	21348
865.48	21405
865.612	21488
865.743	21515
865.875	21408
866.006	21367
866.137	21397
866.269	21405
866.4	21363
866.531	21241
866.662	21370
866.793	21382
866.924	21214
867.055	21397
867.186	21397
867.317	21294
867.448	21207
867.579	21294
867.71	21222
867.841	21268
867.972	21184
868.103	21344
868.233	21321
868.364	21306
868.495	21435
868.625	21549
868.756	21652
868.886	21447
869.017	21549
869.147	21705
869.278	21618
869.408	21519
869.539	21545
869.669	21637
869.799	21526
869.929	21686
870.06	21728
870.19	21800
870.32	21819
870.45	21895
870.58	21941
870.71	22051
870.84	22025
870.97	21873
871.1	21854
871.23	22124
871.36	22006
871.489	22006
871.619	22196
871.749	22086
871.879	22188
872.008	22169
872.138	22166
872.267	22036
872.397	21903
872.526	21972
872.656	21945
872.785	21941
872.915	22215
873.044	22215
873.173	22226
873.303	22192
873.432	22177
873.561	22257
873.69	22181
873.819	22158
873.948	22276
874.077	22021
874.206	22051
874.335	22169
874.464	22314
874.593	22379
874.722	22371
874.851	22443
874.979	22402
875.108	22390
875.237	22356
875.365	22192
875.494	22466
875.623	22310
875.751	22337
875.88	22455
876.008	22527
876.136	22580
876.265	22721
876.393	22793
876.521	22774
876.65	22843
876.778	22717
876.906	22679
877.034	22717
877.162	22645
877.29	22493
877.418	22725
877.546	22805
877.674	22569
877.802	22755
877.93	22835
878.058	22706
878.185	22538
878.313	22694
878.441	22717
878.568	22713
878.696	22554
878.824	22664
878.951	22904
879.079	22908
879.206	23014
879.333	22866
879.461	22850
879.588	22866
879.715	22816
879.842	23083
879.97	22927
880.097	22542
880.224	22500
880.351	22538
880.478	22398
880.605	22516
880.732	22649
880.859	22805
880.986	22500
881.112	22691
881.239	22375
881.366	22253
881.493	22173
881.619	22211
881.746	22207
881.872	22013
881.999	22135
882.125	22112
882.252	22097
882.378	22074
882.505	22226
882.631	21930
882.757	21804
882.883	21903
883.01	21774
883.136	21793
883.262	21743
883.388	21652
883.514	21838
883.64	21778
883.766	21728
883.892	21473
884.018	21549
884.143	21720
884.269	21747
884.395	21496
884.52	21393
884.646	21473
884.772	21447
884.897	21237
885.023	21431
885.148	21538
885.274	21530
885.399	21637
885.524	21424
885.65	21511
885.775	21534
885.9	21469
886.025	21405
886.15	21557
886.275	21348
886.4	21370
886.525	21351
886.65	21462
886.775	21443
886.9	21603
887.025	21675
887.149	21416
887.274	21207
887.399	21233
887.523	21252
887.648	21116
887.773	21119
887.897	21298
888.021	21203
888.146	21096
888.27	21306
888.395	21412
888.519	21233
888.643	21317
888.767	21207
888.891	21009
889.015	21005
889.139	21096
889.263	20849
889.387	20998
889.511	21203
889.635	21184
889.759	20933
889.883	20994
890.006	20963
890.13	20994
890.254	20933
890.377	20906
890.501	20651
890.624	20712
890.748	20807
890.871	20670
890.995	20598
891.118	20552
891.241	20587
891.364	20629
891.488	20686
891.611	20492
891.734	20415
891.857	20552
891.98	20644
892.103	20583
892.226	20564
892.349	20404
892.471	20358
892.594	20507
892.717	20343
892.839	20442
892.962	20358
893.085	20434
893.207	20408
893.33	20465
893.452	20366
893.575	20484
893.697	20469
893.819	20617
893.941	20606
894.064	20560
894.186	20442
894.308	20476
894.43	20587
894.552	20507
894.674	20556
894.796	20431
894.918	20454
895.04	20469
895.161	20674
895.283	20454
895.405	20347
895.526	20473
895.648	20385
895.769	20552
895.891	20396
896.012	20415
896.134	20511
896.255	20568
896.376	20347
896.498	20419
896.619	20473
896.74	20461
896.861	20389
896.982	20868
897.103	20956
897.224	20731
897.345	20739
897.466	20602
897.587	20644
897.708	20765
897.828	20667
897.949	20632
898.07	20339
898.19	20632
898.311	20727
898.431	20511
898.552	20655
898.672	20655
898.792	20651
898.913	20560
899.033	20522
899.153	20461
899.273	20328
899.393	20594
899.513	20465
899.633	20473
899.753	20476
899.873	20336
899.993	20278
900.113	20324
900.232	20469
900.352	20301
900.472	20195
900.591	20142
900.711	20282
900.83	20103
900.95	20389
901.069	20263
901.189	20100
901.308	19822
901.427	19715
901.546	19605
901.665	19788
901.784	19712
901.904	19647
902.023	19495
902.141	19381
902.26	19384
902.379	19350
902.498	19297
902.617	19168
902.735	19255
902.854	19217
902.973	19091
903.091	18985
903.21	19088
903.328	18943
903.446	18741
903.565	18703
903.683	18726
903.801	18620
903.919	18665
904.038	18646
904.156	18566
904.274	18661
904.392	18490
904.51	18532
904.627	18429
904.745	18498
904.863	18559
904.981	18323
905.098	18235
905.216	18281
905.334	18197
905.451	18144
905.569	18174
905.686	18243
905.803	18163
905.921	18034
906.038	18060
906.155	17999
906.272	17840
906.389	17965
906.506	17668
906.623	17661
906.74	17741
906.857	17581
906.974	17600
907.091	17802
907.208	17901
907.324	17649
907.441	17547
907.557	17425
907.674	17539
907.79	17299
907.907	17307
908.023	17425
908.139	17402
908.256	17459
908.372	17322
908.488	17303
908.604	17212
908.72	17090
908.836	17102
908.952	17041
909.068	17113
909.184	17269
909.3	17071
909.415	17185
909.531	17075
909.647	16828
909.762	16850
909.878	16793
909.993	16892
910.108	16824
910.224	16733
910.339	16820
910.454	16645
910.57	16637
910.685	16523
910.8	16839
910.915	16694
911.03	16592
911.145	16546
911.259	16443
911.374	16436
911.489	16379
911.604	16318
911.718	16253
911.833	16128
911.947	16048
912.062	16010
912.176	16204
912.291	16055
912.405	16071
912.519	16356
912.633	16367
912.748	16185
912.862	16135
912.976	16010
913.09	16025
913.204	15922
913.318	15960
913.431	16097
913.545	16078
913.659	16067
913.772	15915
913.886	15778
914	15804
914.113	15793
914.226	15994
914.34	15800
914.453	15660
914.566	15701
914.68	15625
914.793	15595
914.906	15412
915.019	15336
915.132	15363
915.245	15450
915.358	15431
915.47	15389
915.583	15416
915.696	15439
915.809	15652
915.921	15473
916.034	15252
916.146	15188
916.259	15275
916.371	15382
916.483	15321
916.595	15157
916.708	15237
916.82	15268
916.932	15169
917.044	15138
917.156	15207
917.268	15085
917.38	15131
917.491	15017
917.603	15024
917.715	15104
917.826	15131
917.938	14963
918.049	14838
918.161	14921
918.272	15123
918.384	15112
918.495	15058
918.606	14788
918.717	14659
918.828	14861
918.939	14800
919.05	14705
919.161	14777
919.272	14579
919.383	14511
919.494	14845
919.604	14880
919.715	14686
919.826	14636
919.936	14667
920.047	14739
920.157	14754
920.267	14842
920.378	14762
920.488	14727
920.598	14918
920.708	15020
920.818	14948
920.928	14765
921.038	15001
921.148	15055
921.258	14598
921.368	14606
921.477	14438
921.587	14457
921.697	14256
921.806	14518
921.916	14252
922.025	14191
922.134	14157
922.244	14043
922.353	14161
922.462	14046
922.571	13986
922.68	13772
922.789	13719
922.898	13765
923.007	13734
923.116	13788
923.224	13685
923.333	13643
923.442	13613
923.55	13559
923.659	13647
923.767	13662
923.876	13510
923.984	13655
924.092	13426
924.201	13529
924.309	13426
924.417	13548
924.525	13392
924.633	13388
924.741	14130
924.849	13202
924.956	13331
925.064	13206
925.172	13107
925.279	13107
925.387	13145
925.494	13179
925.602	13194
925.709	13236
925.816	13012
925.924	13114
926.031	13168
926.138	13099
926.245	13152
926.352	13031
926.459	13221
926.566	13152
926.673	12947
926.779	12924
926.886	12856
926.993	12791
927.099	12768
927.206	12715
927.312	12681
927.419	12749
927.525	12753
927.631	12677
927.737	12574
927.843	12627
927.95	12456
928.056	12559
928.162	12506
928.267	12540
928.373	13202
928.479	12631
928.585	12403
928.69	12506
928.796	12563
928.901	12361
929.007	12270
929.112	12338
929.218	12403
929.323	12273
929.428	12243
929.533	12338
929.638	12270
929.743	12254
929.848	12186
929.953	12251
930.058	12148
930.163	11969
930.267	11916
930.372	12095
930.477	11821
930.581	12152
930.685	11920
930.79	11843
930.894	11779
930.998	11756
931.103	11863
931.207	11524
931.311	11364
931.415	11391
931.519	11254
931.623	11189
