Data from test_V78500241_1463.txt Node
Date: Fri Mar 25 15:20:02 CST 2022
User: usil
Spectrometer: V785-0024
Trigger mode: 0
Integration Time (sec): 4.000000E-1
Scans to average: 1
Nonlinearity correction enabled: false
Boxcar width: 0
Storing dark spectrum: false
XAxis mode: Wavelengths
Number of Pixels in Spectrum: 1024
>>>>>Begin Spectral Data<<<<<
801.071	27869
801.214	27766
801.356	27622
801.499	27690
801.641	27469
801.783	27477
801.926	27511
802.068	27389
802.211	27435
802.353	27427
802.496	27150
802.638	27116
802.78	27077
802.923	26960
803.065	26944
803.208	27074
803.35	27089
803.492	27291
803.635	27222
803.777	27287
803.919	27435
804.061	27641
804.204	27412
804.346	27256
804.488	27226
804.63	27382
804.773	27256
804.915	27462
805.057	27367
805.199	27298
805.341	27332
805.483	27504
805.626	27637
805.768	27344
805.91	27469
806.052	27435
806.194	27355
806.336	27580
806.478	27587
806.62	27549
806.762	27625
806.904	27698
807.046	28021
807.188	27953
807.33	27747
807.472	28025
807.614	27781
807.756	27846
807.898	27736
808.04	27759
808.182	27793
808.324	27774
808.465	27899
808.607	27998
808.749	28025
808.891	28090
809.033	28234
809.174	28181
809.316	28070
809.458	28040
809.6	28131
809.741	28097
809.883	28348
810.025	28398
810.166	28455
810.308	28459
810.45	28367
810.591	28192
810.733	28226
810.875	28101
811.016	28048
811.158	28112
811.299	28109
811.441	28188
811.582	28181
811.724	28173
811.865	28032
812.007	28040
812.148	28158
812.29	28124
812.431	28303
812.573	28459
812.714	28516
812.855	28538
812.997	28679
813.138	28896
813.279	28778
813.421	28755
813.562	28493
813.703	28508
813.845	28512
813.986	28101
814.127	27831
814.268	27804
814.41	27762
814.551	27797
814.692	27778
814.833	27793
814.974	27778
815.115	27857
815.256	27667
815.397	27675
815.539	27591
815.68	27644
815.821	27530
815.962	27682
816.103	27648
816.244	27462
816.385	27424
816.526	27249
816.666	27108
816.807	27161
816.948	27108
817.089	27123
817.23	27093
817.371	27252
817.512	26929
817.653	27077
817.793	26975
817.934	27047
818.075	27085
818.216	27089
818.356	27089
818.497	26971
818.638	26792
818.778	27017
818.919	26857
819.06	26952
819.2	26982
819.341	27096
819.481	27020
819.622	27230
819.762	27378
819.903	27275
820.043	27233
820.184	27199
820.324	27165
820.465	27226
820.605	27245
820.746	27104
820.886	26925
821.026	27074
821.167	27157
821.307	27135
821.447	26990
821.588	26971
821.728	26758
821.868	26648
822.008	26655
822.149	26609
822.289	26526
822.429	26259
822.569	26100
822.709	26221
822.849	26081
822.99	26016
823.13	25917
823.27	25978
823.41	25856
823.55	25849
823.69	25845
823.83	25856
823.97	25826
824.11	25635
824.25	25647
824.389	25609
824.529	25784
824.669	25632
824.809	25765
824.949	25852
825.089	25837
825.228	25795
825.368	25460
825.508	25441
825.648	25601
825.787	25571
825.927	25586
826.067	25464
826.206	25495
826.346	25400
826.485	25578
826.625	25597
826.765	25753
826.904	25483
827.044	25377
827.183	25263
827.323	25251
827.462	25381
827.601	25293
827.741	25217
827.88	25259
828.02	25107
828.159	25304
828.298	25289
828.437	25365
828.577	25175
828.716	25400
828.855	25285
828.994	25084
829.134	25091
829.273	24981
829.412	25027
829.551	25038
829.69	25053
829.829	24939
829.968	25065
830.107	25015
830.246	24806
830.385	24981
830.524	24970
830.663	24753
830.802	24700
830.941	24570
831.08	24540
831.219	24707
831.357	24711
831.496	24810
831.635	24620
831.774	24445
831.913	24532
832.051	24342
832.19	24266
832.329	24452
832.467	24216
832.606	24220
832.744	24095
832.883	24205
833.022	24247
833.16	24308
833.299	24369
833.437	24342
833.576	24380
833.714	24311
833.852	24445
833.991	24369
834.129	24445
834.267	24433
834.406	24194
834.544	24494
834.682	24289
834.821	24197
834.959	24479
835.097	24353
835.235	24273
835.373	24182
835.511	24346
835.65	23980
835.788	24125
835.926	24095
836.064	23821
836.202	24018
836.34	24194
836.478	24235
836.615	24041
836.753	24102
836.891	24155
837.029	24133
837.167	24155
837.305	24064
837.443	23878
837.58	23965
837.718	24049
837.856	24083
837.993	23904
838.131	23973
838.269	23821
838.406	23920
838.544	23916
838.681	23687
838.819	23570
838.956	23474
839.094	23505
839.231	23505
839.369	23722
839.506	23973
839.643	23668
839.781	23463
839.918	23433
840.055	23581
840.193	23474
840.33	23509
840.467	23368
840.604	23326
840.742	23539
840.879	23318
841.016	23334
841.153	23174
841.29	23516
841.427	23353
841.564	23459
841.701	23322
841.838	23296
841.975	23254
842.112	23250
842.249	23140
842.385	23064
842.522	23311
842.659	23208
842.796	23128
842.933	23155
843.069	23003
843.206	23098
843.343	23094
843.479	23064
843.616	23212
843.752	22991
843.889	22942
844.025	23033
844.162	22873
844.298	22987
844.435	22946
844.571	22809
844.708	22991
844.844	23048
844.98	22877
845.117	22991
845.253	22877
845.389	22797
845.525	22759
845.661	22744
845.798	22523
845.934	22706
846.07	22622
846.206	22672
846.342	22729
846.478	22618
846.614	22417
846.75	22272
846.886	22371
847.022	22413
847.158	22360
847.294	22318
847.429	22344
847.565	22310
847.701	22504
847.837	22101
847.972	21983
848.108	22124
848.244	22166
848.379	21895
848.515	22025
848.65	22006
848.786	21945
848.921	21922
849.057	22120
849.192	22010
849.328	22048
849.463	21903
849.598	21953
849.734	21907
849.869	21854
850.004	21599
850.14	21861
850.275	21682
850.41	21614
850.545	21709
850.68	21572
850.815	21629
850.95	21698
851.085	21831
851.22	21759
851.355	21747
851.49	21660
851.625	21671
851.76	21610
851.895	21507
852.03	21606
852.165	21774
852.299	21663
852.434	21774
852.569	21861
852.703	21785
852.838	21747
852.973	21743
853.107	21717
853.242	21701
853.376	21564
853.511	21473
853.645	21481
853.78	21660
853.914	21629
854.048	21473
854.183	21545
854.317	21595
854.451	21781
854.585	21568
854.72	21568
854.854	21507
854.988	21447
855.122	21511
855.256	21382
855.39	21466
855.524	21580
855.658	21572
855.792	21454
855.926	21496
856.06	21587
856.194	21641
856.327	21420
856.461	21363
856.595	21466
856.729	21542
856.862	21648
856.996	21496
857.13	21629
857.263	21557
857.397	21622
857.53	21496
857.664	21515
857.797	21542
857.931	21637
858.064	21412
858.197	21743
858.331	21530
858.464	21500
858.597	21370
858.731	21500
858.864	21431
858.997	21523
859.13	21504
859.263	21595
859.396	21545
859.529	21405
859.662	21473
859.795	21515
859.928	21412
860.061	21667
860.194	21739
860.327	21458
860.46	21538
860.592	21504
860.725	21610
860.858	21599
860.99	21492
861.123	21504
861.256	21496
861.388	21542
861.521	22131
861.653	21389
861.786	21294
861.918	21298
862.05	21405
862.183	21359
862.315	21428
862.447	21477
862.58	21355
862.712	21173
862.844	21127
862.976	21332
863.108	21256
863.24	21724
863.372	21138
863.504	21389
863.636	21138
863.768	21161
863.9	21188
864.032	21154
864.164	21138
864.296	21195
864.428	21245
864.559	21313
864.691	21298
864.823	21173
864.954	21195
865.086	21268
865.217	21104
865.349	21074
865.48	21077
865.612	21066
865.743	21135
865.875	21066
866.006	21005
866.137	21180
866.269	21081
866.4	20944
866.531	20986
866.662	21085
866.793	21195
866.924	20994
867.055	21001
867.186	20944
867.317	20956
867.448	21081
867.579	20929
867.71	21085
867.841	21009
867.972	21077
868.103	20925
868.233	21047
868.364	21089
868.495	21169
868.625	21256
868.756	21393
868.886	21268
869.017	21195
869.147	21435
869.278	21329
869.408	21329
869.539	21355
869.669	21317
869.799	21370
869.929	21348
870.06	21329
870.19	21599
870.32	21542
870.45	21625
870.58	21743
870.71	21705
870.84	21713
870.97	21599
871.1	21679
871.23	21842
871.36	21915
871.489	21759
871.619	21865
871.749	21888
871.879	21907
872.008	21915
872.138	21831
872.267	21755
872.397	21698
872.526	21667
872.656	21701
872.785	21663
872.915	21861
873.044	21915
873.173	21949
873.303	21941
873.432	21850
873.561	22040
873.69	21861
873.819	21869
873.948	21926
874.077	21922
874.206	21911
874.335	21945
874.464	21972
874.593	22124
874.722	22070
874.851	22097
874.979	22040
875.108	22139
875.237	22044
875.365	22040
875.494	22021
875.623	22230
875.751	22029
875.88	22169
876.008	22147
876.136	22204
876.265	22466
876.393	22630
876.521	22588
876.65	22527
876.778	22504
876.906	22413
877.034	22508
877.162	22356
877.29	22466
877.418	22523
877.546	22413
877.674	22447
877.802	22485
877.93	22512
878.058	22348
878.185	22356
878.313	22405
878.441	22356
878.568	22386
878.696	22280
878.824	22565
878.951	22432
879.079	22664
879.206	22698
879.333	22683
879.461	22535
879.588	22611
879.715	22733
879.842	22835
879.97	22577
880.097	22390
880.224	22344
880.351	22409
880.478	22363
880.605	22230
880.732	22230
880.859	22485
880.986	22166
881.112	22333
881.239	22169
881.366	22048
881.493	21972
881.619	21835
881.746	21892
881.872	21873
881.999	21789
882.125	21842
882.252	21861
882.378	21895
882.505	21838
882.631	21705
882.757	21534
882.883	21644
883.01	21618
883.136	21519
883.262	21454
883.388	21306
883.514	21568
883.64	21637
883.766	21435
883.892	21275
884.018	21367
884.143	21515
884.269	21447
884.395	21310
884.52	21077
884.646	21214
884.772	21176
884.897	21013
885.023	21169
885.148	21272
885.274	21306
885.399	21294
885.524	21157
885.65	21199
885.775	21119
885.9	21070
886.025	21249
886.15	21180
886.275	21173
886.4	21112
886.525	21135
886.65	21165
886.775	21104
886.9	21214
887.025	21367
887.149	21131
887.274	20952
887.399	20914
887.523	20971
887.648	20876
887.773	20948
887.897	21058
888.021	20971
888.146	20883
888.27	21096
888.395	21005
888.519	21108
888.643	21001
888.767	20960
888.891	20838
889.015	20826
889.139	20777
889.263	20800
889.387	20758
889.511	21009
889.635	20849
889.759	20765
889.883	20735
890.006	20834
890.13	20777
890.254	20655
890.377	20724
890.501	20564
890.624	20499
890.748	20530
890.871	20419
890.995	20225
891.118	20298
891.241	20294
891.364	20374
891.488	20556
891.611	20218
891.734	20244
891.857	20259
891.98	20343
892.103	20358
892.226	20362
892.349	20324
892.471	20138
892.594	20313
892.717	20096
892.839	20202
892.962	20256
893.085	20199
893.207	20199
893.33	20168
893.452	20088
893.575	20180
893.697	20164
893.819	20317
893.941	20457
894.064	20317
894.186	20043
894.308	20218
894.43	20317
894.552	20248
894.674	20210
894.796	20031
894.918	20149
895.04	20062
895.161	20294
895.283	20240
895.405	20229
895.526	20088
895.648	20084
895.769	20298
895.891	20206
896.012	20301
896.134	20282
896.255	20180
896.376	20145
896.498	20107
896.619	20233
896.74	20069
896.861	20195
896.982	20469
897.103	20575
897.224	20522
897.345	20480
897.466	20248
897.587	20347
897.708	20522
897.828	20457
897.949	20431
898.07	20294
898.19	20324
898.311	20518
898.431	20374
898.552	20374
898.672	20469
898.792	20419
898.913	20431
899.033	20309
899.153	20290
899.273	20126
899.393	20081
899.513	20199
899.633	20081
899.753	20180
899.873	20088
899.993	20187
900.113	20161
900.232	20221
900.352	20031
900.472	19974
900.591	19887
900.711	19947
900.83	19875
900.95	20149
901.069	20039
901.189	19864
901.308	19597
901.427	19582
901.546	19464
901.665	19605
901.784	19491
901.904	19472
902.023	19236
902.141	19042
902.26	19133
902.379	19141
902.498	19034
902.617	18985
902.735	19000
902.854	19076
902.973	19019
903.091	18684
903.21	18703
903.328	18738
903.446	18498
903.565	18544
903.683	18589
903.801	18422
903.919	18502
904.038	18566
904.156	18315
904.274	18410
904.392	18281
904.51	18194
904.627	18247
904.745	18361
904.863	18342
904.981	17999
905.098	17961
905.216	18003
905.334	18083
905.451	18011
905.569	17920
905.686	17996
905.803	17893
905.921	17771
906.038	17843
906.155	17817
906.272	17653
906.389	17668
906.506	17516
906.623	17509
906.74	17486
906.857	17391
906.974	17353
907.091	17448
907.208	17554
907.324	17611
907.441	17364
907.557	17296
907.674	17227
907.79	17162
907.907	17094
908.023	17212
908.139	17212
908.256	17174
908.372	17170
908.488	17060
908.604	16965
908.72	16881
908.836	16919
908.952	16854
909.068	17045
909.184	16961
909.3	16923
909.415	16866
909.531	16999
909.647	16653
909.762	16683
909.878	16603
909.993	16675
910.108	16580
910.224	16611
910.339	16500
910.454	16512
910.57	16405
910.685	16390
910.8	16481
910.915	16588
911.03	16394
911.145	16226
911.259	16295
911.374	16265
911.489	16158
911.604	16090
911.718	15926
911.833	15983
911.947	15865
912.062	15873
912.176	15911
912.291	15911
912.405	15953
912.519	16181
912.633	16074
912.748	15968
912.862	15918
912.976	15850
913.09	15717
913.204	15751
913.318	15827
913.431	15850
913.545	15781
913.659	15785
913.772	15759
913.886	15599
914	15530
914.113	15724
914.226	15717
914.34	15644
914.453	15511
914.566	15568
914.68	15496
914.793	15443
914.906	15230
915.019	15268
915.132	15176
915.245	15097
915.358	15283
915.47	15214
915.583	15127
915.696	15195
915.809	15317
915.921	15348
916.034	15123
916.146	15047
916.259	14944
916.371	15142
916.483	15135
916.595	15013
916.708	15001
916.82	14998
916.932	14963
917.044	15074
917.156	14921
917.268	14880
917.38	14762
917.491	14819
917.603	14910
917.715	14883
917.826	14952
917.938	14769
918.049	14651
918.161	14845
918.272	14960
918.384	14963
918.495	14667
918.606	14533
918.717	14507
918.828	14587
918.939	14644
919.05	14549
919.161	14644
919.272	14332
919.383	14419
919.494	14648
919.604	14758
919.715	14522
919.826	14480
919.936	14549
920.047	14594
920.157	14511
920.267	14648
920.378	14575
920.488	14537
920.598	14838
920.708	14838
920.818	14678
920.928	14659
921.038	14773
921.148	14720
921.258	14564
921.368	14461
921.477	14267
921.587	14202
921.697	14130
921.806	14218
921.916	14065
922.025	14001
922.134	13993
922.244	13852
922.353	13928
922.462	13818
922.571	13780
922.68	13540
922.789	13556
922.898	13590
923.007	13403
923.116	13582
923.224	13548
923.333	13521
923.442	13400
923.55	13350
923.659	13445
923.767	13430
923.876	13343
923.984	13491
924.092	13365
924.201	13308
924.309	13362
924.417	13396
924.525	13213
924.633	13293
924.741	14008
924.849	13000
924.956	13225
925.064	12951
925.172	12943
925.279	12966
925.387	13000
925.494	12905
925.602	13072
925.709	13065
925.816	12829
925.924	12924
926.031	13019
926.138	12859
926.245	12867
926.352	12798
926.459	12909
926.566	12928
926.673	12814
926.779	12681
926.886	12768
926.993	12490
927.099	12563
927.206	12517
927.312	12475
927.419	12582
927.525	12513
927.631	12635
927.737	12426
927.843	12319
927.95	12289
928.056	12422
928.162	12327
928.267	12509
928.373	12973
928.479	12422
928.585	12190
928.69	12448
928.796	12361
928.901	12254
929.007	12030
929.112	12182
929.218	12171
929.323	12144
929.428	12053
929.533	12175
929.638	12068
929.743	12015
929.848	12178
929.953	12060
930.058	11954
930.163	11821
930.267	11813
930.372	11882
930.477	11729
930.581	11973
930.685	11821
930.79	11661
930.894	11707
930.998	11649
931.103	11764
931.207	11383
931.311	11364
931.415	11337
931.519	11003
931.623	11029
