Data from test_V78500241_3558.txt Node
Date: Fri Mar 25 15:34:38 CST 2022
User: usil
Spectrometer: V785-0024
Trigger mode: 0
Integration Time (sec): 4.000000E-1
Scans to average: 1
Nonlinearity correction enabled: false
Boxcar width: 0
Storing dark spectrum: false
XAxis mode: Wavelengths
Number of Pixels in Spectrum: 1024
>>>>>Begin Spectral Data<<<<<
801.071	27256
801.214	27317
801.356	26853
801.499	26773
801.641	26777
801.783	26788
801.926	26902
802.068	26708
802.211	26621
802.353	26667
802.496	26446
802.638	26362
802.78	26442
802.923	26309
803.065	26320
803.208	26221
803.35	26286
803.492	26602
803.635	26598
803.777	26442
803.919	26507
804.061	26899
804.204	26640
804.346	26598
804.488	26473
804.63	26568
804.773	26377
804.915	26450
805.057	26663
805.199	26564
805.341	26587
805.483	26758
805.626	26682
805.768	26587
805.91	26583
806.052	26765
806.194	26594
806.336	26800
806.478	26617
806.62	26663
806.762	26731
806.904	26864
807.046	27275
807.188	27252
807.33	27119
807.472	27146
807.614	27005
807.756	27077
807.898	26880
808.04	26842
808.182	26826
808.324	26899
808.465	27017
808.607	26990
808.749	27279
808.891	27340
809.033	27374
809.174	27291
809.316	27249
809.458	27226
809.6	27138
809.741	27348
809.883	27431
810.025	27454
810.166	27561
810.308	27500
810.45	27401
810.591	27485
810.733	27363
810.875	27245
811.016	27154
811.158	27127
811.299	27207
811.441	27488
811.582	27310
811.724	27363
811.865	27157
812.007	27272
812.148	27226
812.29	27382
812.431	27469
812.573	27599
812.714	27705
812.855	27622
812.997	27816
813.138	28055
813.279	27873
813.421	27743
813.562	27625
813.703	27485
813.845	27511
813.986	27161
814.127	26940
814.268	26937
814.41	26906
814.551	26963
814.692	26994
814.833	26910
814.974	26906
815.115	26864
815.256	26670
815.397	26735
815.539	26712
815.68	26708
815.821	26552
815.962	26708
816.103	26617
816.244	26568
816.385	26453
816.526	26450
816.666	26324
816.807	26111
816.948	26176
817.089	26393
817.23	26263
817.371	26134
817.512	26248
817.653	26077
817.793	26046
817.934	26100
818.075	26142
818.216	26275
818.356	26058
818.497	26046
818.638	25917
818.778	25974
818.919	25906
819.06	26050
819.2	26073
819.341	26183
819.481	26138
819.622	26389
819.762	26484
819.903	26492
820.043	26343
820.184	26286
820.324	26218
820.465	26351
820.605	26309
820.746	26324
820.886	26058
821.026	26290
821.167	26248
821.307	26320
821.447	26237
821.588	26202
821.728	26012
821.868	25799
822.008	25613
822.149	25723
822.289	25510
822.429	25388
822.569	25346
822.709	25365
822.849	25301
822.99	25027
823.13	25160
823.27	25171
823.41	24992
823.55	24783
823.69	25038
823.83	24958
823.97	24882
824.11	24661
824.25	24722
824.389	24802
824.529	24760
824.669	24772
824.809	24943
824.949	24863
825.089	24939
825.228	24882
825.368	24479
825.508	24726
825.648	24681
825.787	24757
825.927	24692
826.067	24612
826.206	24665
826.346	24654
826.485	24783
826.625	24661
826.765	24661
826.904	24749
827.044	24464
827.183	24513
827.323	24399
827.462	24391
827.601	24304
827.741	24369
827.88	24346
828.02	24323
828.159	24285
828.298	24452
828.437	24448
828.577	24167
828.716	24627
828.855	24403
828.994	24049
829.134	24140
829.273	24144
829.412	24121
829.551	24003
829.69	24038
829.829	24190
829.968	24041
830.107	24155
830.246	24049
830.385	23965
830.524	24121
830.663	24041
830.802	23950
830.941	23775
831.08	23676
831.219	23756
831.357	23771
831.496	23916
831.635	23630
831.774	23585
831.913	23638
832.051	23509
832.19	23535
832.329	23558
832.467	23459
832.606	23269
832.744	23200
832.883	23440
833.022	23296
833.16	23398
833.299	23425
833.437	23387
833.576	23474
833.714	23543
833.852	23505
833.991	23512
834.129	23608
834.267	23493
834.406	23558
834.544	23509
834.682	23509
834.821	23490
834.959	23592
835.097	23345
835.235	23509
835.373	23452
835.511	23387
835.65	23292
835.788	23311
835.926	23155
836.064	23121
836.202	23140
836.34	23292
836.478	23345
836.615	23231
836.753	23368
836.891	23379
837.029	23372
837.167	23181
837.305	23166
837.443	23140
837.58	23170
837.718	23303
837.856	23083
837.993	23170
838.131	23086
838.269	23041
838.406	23140
838.544	22968
838.681	22812
838.819	22801
838.956	22489
839.094	22641
839.231	22538
839.369	22793
839.506	22961
839.643	22797
839.781	22668
839.918	22710
840.055	22546
840.193	22672
840.33	22538
840.467	22531
840.604	22603
840.742	22904
840.879	22489
841.016	22398
841.153	22382
841.29	22660
841.427	22557
841.564	22615
841.701	22531
841.838	22523
841.975	22481
842.112	22375
842.249	22432
842.385	22356
842.522	22508
842.659	22386
842.796	22386
842.933	22207
843.069	22253
843.206	22363
843.343	22344
843.479	22238
843.616	22272
843.752	22074
843.889	22059
844.025	22303
844.162	22124
844.298	22223
844.435	22093
844.571	22048
844.708	22230
844.844	22204
844.98	22147
845.117	22181
845.253	21956
845.389	22051
845.525	22093
845.661	21937
845.798	21846
845.934	21827
846.07	21747
846.206	22051
846.342	22044
846.478	21895
846.614	21622
846.75	21561
846.886	21614
847.022	21610
847.158	21720
847.294	21671
847.429	21660
847.565	21428
847.701	21785
847.837	21268
847.972	21287
848.108	21428
848.244	21374
848.379	21313
848.515	21306
848.65	21119
848.786	21173
848.921	21214
849.057	21207
849.192	21195
849.328	21237
849.463	21272
849.598	21104
849.734	21070
849.869	21074
850.004	21024
850.14	21066
850.275	21039
850.41	20754
850.545	20952
850.68	20944
850.815	21005
850.95	20937
851.085	21237
851.22	20971
851.355	21005
851.49	20887
851.625	20979
851.76	20891
851.895	20765
852.03	20902
852.165	20937
852.299	21051
852.434	21039
852.569	20921
852.703	20986
852.838	20933
852.973	21112
853.107	20960
853.242	20944
853.376	20834
853.511	20655
853.645	20754
853.78	20792
853.914	20918
854.048	20769
854.183	20689
854.317	20701
854.451	20929
854.585	20796
854.72	20682
854.854	20902
854.988	20670
855.122	20819
855.256	20549
855.39	20823
855.524	20960
855.658	20830
855.792	20864
855.926	20826
856.06	20826
856.194	20834
856.327	20773
856.461	20758
856.595	20644
856.729	20720
856.862	20735
856.996	20750
857.13	20826
857.263	20906
857.397	20845
857.53	20838
857.664	20857
857.797	20724
857.931	20849
858.064	20963
858.197	20868
858.331	20708
858.464	20758
858.597	20590
858.731	20735
858.864	20758
858.997	20792
859.13	20697
859.263	20769
859.396	20788
859.529	20830
859.662	20792
859.795	20701
859.928	20762
860.061	20864
860.194	20876
860.327	20807
860.46	20823
860.592	20853
860.725	20952
860.858	20910
860.99	20731
861.123	20720
861.256	20762
861.388	20651
861.521	21587
861.653	20731
861.786	20511
861.918	20495
862.05	20644
862.183	20746
862.315	20739
862.447	20826
862.58	20663
862.712	20492
862.844	20450
862.976	20625
863.108	20609
863.24	20956
863.372	20480
863.504	20492
863.636	20537
863.768	20613
863.9	20552
864.032	20347
864.164	20473
864.296	20499
864.428	20613
864.559	20473
864.691	20590
864.823	20480
864.954	20450
865.086	20385
865.217	20473
865.349	20381
865.48	20427
865.612	20324
865.743	20480
865.875	20374
866.006	20355
866.137	20495
866.269	20385
866.4	20366
866.531	20339
866.662	20339
866.793	20351
866.924	20434
867.055	20320
867.186	20419
867.317	20377
867.448	20237
867.579	20351
867.71	20309
867.841	20244
867.972	20267
868.103	20301
868.233	20294
868.364	20294
868.495	20355
868.625	20511
868.756	20716
868.886	20514
869.017	20484
869.147	20549
869.278	20629
869.408	20518
869.539	20659
869.669	20720
869.799	20583
869.929	20708
870.06	20686
870.19	20807
870.32	20693
870.45	20895
870.58	20929
870.71	21047
870.84	21032
870.97	20963
871.1	20933
871.23	21074
871.36	21192
871.489	21013
871.619	21119
871.749	21192
871.879	21241
872.008	21325
872.138	21214
872.267	21127
872.397	21112
872.526	21055
872.656	20880
872.785	20982
872.915	21119
873.044	21298
873.173	21203
873.303	21351
873.432	21226
873.561	21367
873.69	21142
873.819	21123
873.948	21226
874.077	21108
874.206	21112
874.335	21154
874.464	21329
874.593	21389
874.722	21313
874.851	21458
874.979	21447
875.108	21545
875.237	21412
875.365	21329
875.494	21401
875.623	21523
875.751	21370
875.88	21538
876.008	21504
876.136	21690
876.265	21926
876.393	22021
876.521	21964
876.65	21945
876.778	21838
876.906	21789
877.034	21785
877.162	21713
877.29	21656
877.418	21941
877.546	21842
877.674	21800
877.802	21899
877.93	21682
878.058	21663
878.185	21622
878.313	21724
878.441	21766
878.568	21553
878.696	21781
878.824	21781
878.951	21975
879.079	21934
879.206	22109
879.333	21850
879.461	21694
879.588	21979
879.715	21972
879.842	22147
879.97	21869
880.097	21663
880.224	21564
880.351	21724
880.478	21576
880.605	21530
880.732	21724
880.859	21842
880.986	21675
881.112	21519
881.239	21507
881.366	21279
881.493	21230
881.619	21252
881.746	21287
881.872	21142
881.999	21199
882.125	21207
882.252	21184
882.378	21332
882.505	21340
882.631	21089
882.757	20990
882.883	20967
883.01	20864
883.136	20883
883.262	20689
883.388	20727
883.514	20872
883.64	20895
883.766	20807
883.892	20651
884.018	20796
884.143	20777
884.269	21005
884.395	20655
884.52	20556
884.646	20594
884.772	20476
884.897	20503
885.023	20556
885.148	20625
885.274	20701
885.399	20651
885.524	20606
885.65	20579
885.775	20537
885.9	20587
886.025	20659
886.15	20670
886.275	20499
886.4	20507
886.525	20522
886.65	20442
886.775	20549
886.9	20705
887.025	20724
887.149	20503
887.274	20374
887.399	20290
887.523	20305
887.648	20290
887.773	20282
887.897	20469
888.021	20492
888.146	20347
888.27	20434
888.395	20393
888.519	20336
888.643	20240
888.767	20457
888.891	20286
889.015	20142
889.139	20305
889.263	20119
889.387	20191
889.511	20240
889.635	20252
889.759	20286
889.883	20157
890.006	20142
890.13	20187
890.254	20199
890.377	20035
890.501	19970
890.624	19955
890.748	19944
890.871	19761
890.995	19704
891.118	19712
891.241	19742
891.364	19742
891.488	19841
891.611	19708
891.734	19635
891.857	19837
891.98	19818
892.103	19769
892.226	19685
892.349	19658
892.471	19567
892.594	19677
892.717	19674
892.839	19552
892.962	19738
893.085	19689
893.207	19601
893.33	19487
893.452	19491
893.575	19567
893.697	19586
893.819	19738
893.941	19856
894.064	19655
894.186	19480
894.308	19586
894.43	19670
894.552	19757
894.674	19753
894.796	19605
894.918	19559
895.04	19506
895.161	19757
895.283	19613
895.405	19548
895.526	19613
895.648	19597
895.769	19639
895.891	19605
896.012	19734
896.134	19605
896.255	19742
896.376	19544
896.498	19616
896.619	19647
896.74	19594
896.861	19689
896.982	19906
897.103	20096
897.224	19917
897.345	19871
897.466	19830
897.587	19784
897.708	19986
897.828	19909
897.949	19742
898.07	19734
898.19	19791
898.311	19860
898.431	19883
898.552	19909
898.672	19986
898.792	19917
898.913	19845
899.033	19632
899.153	19605
899.273	19476
899.393	19605
899.513	19521
899.633	19700
899.753	19582
899.873	19567
899.993	19597
900.113	19563
900.232	19597
900.352	19495
900.472	19426
900.591	19419
900.711	19396
900.83	19438
900.95	19521
901.069	19480
901.189	19259
901.308	19095
901.427	18966
901.546	18981
901.665	18916
901.784	18966
901.904	18878
902.023	18810
902.141	18589
902.26	18589
902.379	18597
902.498	18452
902.617	18544
902.735	18551
902.854	18494
902.973	18353
903.091	18262
903.21	18171
903.328	18167
903.446	18178
903.565	17897
903.683	18057
903.801	17779
903.919	18015
904.038	17980
904.156	17790
904.274	17771
904.392	17828
904.51	17790
904.627	17680
904.745	17756
904.863	17764
904.981	17638
905.098	17429
905.216	17463
905.334	17490
905.451	17463
905.569	17383
905.686	17471
905.803	17474
905.921	17204
906.038	17284
906.155	17326
906.272	17155
906.389	17151
906.506	17037
906.623	16991
906.74	16957
906.857	16843
906.974	16824
907.091	17052
907.208	17124
907.324	17033
907.441	16866
907.557	16706
907.674	16774
907.79	16584
907.907	16755
908.023	16717
908.139	16713
908.256	16740
908.372	16634
908.488	16675
908.604	16497
908.72	16432
908.836	16497
908.952	16295
909.068	16405
909.184	16516
909.3	16375
909.415	16432
909.531	16497
909.647	16192
909.762	16169
909.878	16139
909.993	16097
910.108	16131
910.224	16147
910.339	16116
910.454	16029
910.57	15960
910.685	15903
910.8	16196
910.915	16048
911.03	15880
911.145	15797
911.259	15793
911.374	15660
911.489	15694
911.604	15576
911.718	15443
911.833	15572
911.947	15405
912.062	15245
912.176	15439
912.291	15515
912.405	15496
912.519	15804
912.633	15595
912.748	15473
912.862	15473
912.976	15424
913.09	15233
913.204	15211
913.318	15241
913.431	15313
913.545	15412
913.659	15306
913.772	15272
913.886	15112
914	15089
914.113	15192
914.226	15165
914.34	15173
914.453	14937
914.566	15173
914.68	15039
914.793	14971
914.906	14838
915.019	14659
915.132	14712
915.245	14727
915.358	14785
915.47	14750
915.583	14682
915.696	14811
915.809	14853
915.921	14849
916.034	14636
916.146	14613
916.259	14629
916.371	14682
916.483	14727
916.595	14541
916.708	14583
916.82	14507
916.932	14564
917.044	14541
917.156	14450
917.268	14366
917.38	14393
917.491	14488
917.603	14358
917.715	14473
917.826	14454
917.938	14309
918.049	14324
918.161	14351
918.272	14457
918.384	14511
918.495	14320
918.606	14168
918.717	14115
918.828	14157
918.939	14134
919.05	14088
919.161	14164
919.272	13925
919.383	13928
919.494	14191
919.604	14381
919.715	14145
919.826	14005
919.936	14123
920.047	14259
920.157	14096
920.267	14278
920.378	14123
920.488	14024
920.598	14332
920.708	14412
920.818	14290
920.928	14290
921.038	14404
921.148	14366
921.258	14138
921.368	14062
921.477	13963
921.587	13868
921.697	13681
921.806	13845
921.916	13700
922.025	13594
922.134	13533
922.244	13422
922.353	13636
922.462	13533
922.571	13346
922.68	13232
922.789	13179
922.898	13171
923.007	13133
923.116	13206
923.224	13152
923.333	13175
923.442	13072
923.55	13012
923.659	12958
923.767	13114
923.876	12977
923.984	13008
924.092	12966
924.201	12894
924.309	12973
924.417	12939
924.525	12916
924.633	12844
924.741	13632
924.849	12677
924.956	12753
925.064	12658
925.172	12471
925.279	12597
925.387	12589
925.494	12646
925.602	12669
925.709	12631
925.816	12528
925.924	12479
926.031	12646
926.138	12612
926.245	12566
926.352	12502
926.459	12635
926.566	12582
926.673	12494
926.779	12334
926.886	12388
926.993	12239
927.099	12213
927.206	12117
927.312	12079
927.419	12228
927.525	12152
927.631	12254
927.737	12171
927.843	12110
927.95	11942
928.056	12003
928.162	12083
928.267	12083
928.373	12483
928.479	12129
928.585	11866
928.69	11984
928.796	11969
928.901	11836
929.007	11703
929.112	11859
929.218	11863
929.323	11741
929.428	11756
929.533	11866
929.638	11630
929.743	11729
929.848	11745
929.953	11695
930.058	11573
930.163	11516
930.267	11429
930.372	11589
930.477	11452
930.581	11691
930.685	11535
930.79	11383
930.894	11356
930.998	11360
931.103	11478
931.207	11071
931.311	11014
931.415	10930
931.519	10831
931.623	10755
