Data from test_V78500241_380.txt Node
Date: Fri Mar 25 15:12:30 CST 2022
User: usil
Spectrometer: V785-0024
Trigger mode: 0
Integration Time (sec): 4.000000E-1
Scans to average: 1
Nonlinearity correction enabled: false
Boxcar width: 0
Storing dark spectrum: false
XAxis mode: Wavelengths
Number of Pixels in Spectrum: 1024
>>>>>Begin Spectral Data<<<<<
801.071	26982
801.214	26724
801.356	26636
801.499	26796
801.641	26686
801.783	26541
801.926	26537
802.068	26587
802.211	26233
802.353	26351
802.496	26122
802.638	26126
802.78	26100
802.923	26134
803.065	26069
803.208	26012
803.35	26145
803.492	26199
803.635	26324
803.777	26183
803.919	26313
804.061	26488
804.204	26271
804.346	26187
804.488	26267
804.63	26256
804.773	26180
804.915	26240
805.057	26298
805.199	26199
805.341	26278
805.483	26438
805.626	26305
805.768	26317
805.91	26290
806.052	26389
806.194	26229
806.336	26438
806.478	26450
806.62	26317
806.762	26446
806.904	26648
807.046	26815
807.188	26651
807.33	26804
807.472	26849
807.614	26750
807.756	26769
807.898	26594
808.04	26511
808.182	26590
808.324	26526
808.465	26568
808.607	26670
808.749	26849
808.891	27017
809.033	27207
809.174	26960
809.316	26952
809.458	26971
809.6	26876
809.741	27173
809.883	27207
810.025	27085
810.166	27294
810.308	27180
810.45	27237
810.591	27176
810.733	26944
810.875	26925
811.016	26857
811.158	26777
811.299	26914
811.441	27085
811.582	27058
811.724	26811
811.865	26876
812.007	26823
812.148	26906
812.29	26921
812.431	27127
812.573	27336
812.714	27382
812.855	27363
812.997	27606
813.138	27507
813.279	27515
813.421	27496
813.562	27382
813.703	27127
813.845	27184
813.986	26902
814.127	26667
814.268	26583
814.41	26640
814.551	26583
814.692	26670
814.833	26434
814.974	26556
815.115	26594
815.256	26473
815.397	26507
815.539	26385
815.68	26370
815.821	26358
815.962	26480
816.103	26202
816.244	26248
816.385	26237
816.526	26073
816.666	26024
816.807	25734
816.948	25928
817.089	26065
817.23	25963
817.371	25928
817.512	25932
817.653	25917
817.793	25727
817.934	25833
818.075	25913
818.216	25875
818.356	25940
818.497	25693
818.638	25674
818.778	25594
818.919	25518
819.06	25753
819.2	25639
819.341	25841
819.481	25780
819.622	26039
819.762	26115
819.903	26100
820.043	25963
820.184	25875
820.324	25925
820.465	25906
820.605	25906
820.746	25909
820.886	25757
821.026	25890
821.167	25837
821.307	25894
821.447	25868
821.588	25772
821.728	25670
821.868	25415
822.008	25175
822.149	25407
822.289	25179
822.429	25171
822.569	24825
822.709	24962
822.849	24882
822.99	24848
823.13	24795
823.27	24772
823.41	24612
823.55	24448
823.69	24669
823.83	24696
823.97	24490
824.11	24475
824.25	24319
824.389	24369
824.529	24597
824.669	24391
824.809	24536
824.949	24536
825.089	24532
825.228	24521
825.368	24258
825.508	24350
825.648	24380
825.787	24350
825.927	24410
826.067	24254
826.206	24296
826.346	24391
826.485	24376
826.625	24235
826.765	24410
826.904	24171
827.044	24026
827.183	24022
827.323	23950
827.462	24079
827.601	24007
827.741	24015
827.88	24018
828.02	23885
828.159	23992
828.298	23996
828.437	24011
828.577	24022
828.716	24117
828.855	23923
828.994	23745
829.134	23695
829.273	23836
829.412	23718
829.551	23634
829.69	23821
829.829	23703
829.968	23824
830.107	23729
830.246	23699
830.385	23745
830.524	23642
830.663	23589
830.802	23581
830.941	23322
831.08	23322
831.219	23448
831.357	23387
831.496	23638
831.635	23493
831.774	23326
831.913	23250
832.051	23250
832.19	23185
832.329	23326
832.467	23124
832.606	22987
832.744	23025
832.883	23033
833.022	22976
833.16	23033
833.299	23079
833.437	23113
833.576	23204
833.714	23212
833.852	23060
833.991	23109
834.129	23330
834.267	23200
834.406	23155
834.544	23181
834.682	23155
834.821	22968
834.959	23239
835.097	23117
835.235	23086
835.373	23178
835.511	23117
835.65	22987
835.788	22949
835.926	22797
836.064	22702
836.202	22839
836.34	22858
836.478	23022
836.615	22869
836.753	23033
836.891	22972
837.029	23022
837.167	22850
837.305	22866
837.443	22889
837.58	22843
837.718	22828
837.856	22706
837.993	22721
838.131	22721
838.269	22672
838.406	22774
838.544	22637
838.681	22535
838.819	22500
838.956	22310
839.094	22238
839.231	22375
839.369	22424
839.506	22763
839.643	22485
839.781	22257
839.918	22310
840.055	22207
840.193	22348
840.33	22177
840.467	22204
840.604	22284
840.742	22519
840.879	22090
841.016	22169
841.153	22162
841.29	22344
841.427	22253
841.564	22272
841.701	22219
841.838	22188
841.975	22154
842.112	22150
842.249	22044
842.385	21884
842.522	22276
842.659	22002
842.796	22013
842.933	21907
843.069	21979
843.206	21972
843.343	22116
843.479	22070
843.616	22105
843.752	21857
843.889	21789
844.025	21888
844.162	21895
844.298	21823
844.435	21827
844.571	21728
844.708	21808
844.844	21880
844.98	21888
845.117	21781
845.253	21629
845.389	21694
845.525	21667
845.661	21774
845.798	21603
845.934	21553
846.07	21500
846.206	21515
846.342	21682
846.478	21466
846.614	21275
846.75	21264
846.886	21268
847.022	21325
847.158	21359
847.294	21218
847.429	21283
847.565	21100
847.701	21561
847.837	21112
847.972	21066
848.108	21058
848.244	21081
848.379	20948
848.515	20883
848.65	20853
848.786	20857
848.921	20868
849.057	20948
849.192	20967
849.328	20887
849.463	20842
849.598	20876
849.734	20701
849.869	20823
850.004	20701
850.14	20629
850.275	20663
850.41	20609
850.545	20644
850.68	20575
850.815	20651
850.95	20697
851.085	20731
851.22	20788
851.355	20568
851.49	20636
851.625	20583
851.76	20682
851.895	20495
852.03	20492
852.165	20545
852.299	20613
852.434	20583
852.569	20651
852.703	20678
852.838	20705
852.973	20735
853.107	20663
853.242	20590
853.376	20465
853.511	20404
853.645	20514
853.78	20560
853.914	20488
854.048	20347
854.183	20461
854.317	20602
854.451	20613
854.585	20324
854.72	20442
854.854	20552
854.988	20381
855.122	20404
855.256	20294
855.39	20396
855.524	20476
855.658	20434
855.792	20457
855.926	20507
856.06	20476
856.194	20495
856.327	20492
856.461	20381
856.595	20347
856.729	20423
856.862	20629
856.996	20473
857.13	20495
857.263	20503
857.397	20693
857.53	20370
857.664	20446
857.797	20541
857.931	20564
858.064	20549
858.197	20560
858.331	20400
858.464	20427
858.597	20328
858.731	20370
858.864	20408
858.997	20358
859.13	20419
859.263	20457
859.396	20473
859.529	20412
859.662	20317
859.795	20362
859.928	20438
860.061	20492
860.194	20602
860.327	20514
860.46	20526
860.592	20648
860.725	20659
860.858	20587
860.99	20400
861.123	20324
861.256	20415
861.388	20389
861.521	21165
861.653	20370
861.786	20278
861.918	20267
862.05	20412
862.183	20400
862.315	20309
862.447	20484
862.58	20415
862.712	20278
862.844	20073
862.976	20157
863.108	20161
863.24	20712
863.372	20134
863.504	20202
863.636	20210
863.768	20199
863.9	20145
864.032	20046
864.164	20149
864.296	20157
864.428	20100
864.559	20164
864.691	20343
864.823	20126
864.954	20111
865.086	20119
865.217	20077
865.349	20035
865.48	20107
865.612	20103
865.743	20126
865.875	20187
866.006	20031
866.137	20065
866.269	20107
866.4	20119
866.531	19974
866.662	19997
866.793	19940
866.924	20020
867.055	20054
867.186	20050
867.317	20001
867.448	19978
867.579	20119
867.71	19856
867.841	19906
867.972	19974
868.103	20027
868.233	20012
868.364	20024
868.495	20199
868.625	20271
868.756	20336
868.886	20237
869.017	20286
869.147	20412
869.278	20457
869.408	20225
869.539	20237
869.669	20313
869.799	20301
869.929	20351
870.06	20339
870.19	20518
870.32	20507
870.45	20613
870.58	20552
870.71	20811
870.84	20670
870.97	20712
871.1	20621
871.23	20800
871.36	20861
871.489	20765
871.619	20746
871.749	20899
871.879	20868
872.008	21055
872.138	20891
872.267	20910
872.397	20815
872.526	20712
872.656	20746
872.785	20644
872.915	20872
873.044	21081
873.173	20842
873.303	20887
873.432	20902
873.561	20948
873.69	21005
873.819	20990
873.948	20925
874.077	20918
874.206	20910
874.335	20933
874.464	21009
874.593	21173
874.722	20971
874.851	21081
874.979	21199
875.108	21241
875.237	21017
875.365	21077
875.494	21089
875.623	21207
875.751	20967
875.88	21062
876.008	21169
876.136	21294
876.265	21431
876.393	21709
876.521	21732
876.65	21599
876.778	21458
876.906	21591
877.034	21526
877.162	21389
877.29	21439
877.418	21538
877.546	21469
877.674	21568
877.802	21542
877.93	21485
878.058	21431
878.185	21389
878.313	21454
878.441	21473
878.568	21272
878.696	21435
878.824	21450
878.951	21515
879.079	21644
879.206	21842
879.333	21762
879.461	21561
879.588	21663
879.715	21728
879.842	21686
879.97	21553
880.097	21329
880.224	21237
880.351	21256
880.478	21317
880.605	21310
880.732	21332
880.859	21545
880.986	21367
881.112	21268
881.239	21165
881.366	21028
881.493	21089
881.619	20853
881.746	21009
881.872	20925
881.999	20853
882.125	20944
882.252	20906
882.378	21039
882.505	21020
882.631	20861
882.757	20632
882.883	20743
883.01	20686
883.136	20594
883.262	20552
883.388	20343
883.514	20727
883.64	20670
883.766	20556
883.892	20396
884.018	20389
884.143	20518
884.269	20457
884.395	20240
884.52	20256
884.646	20221
884.772	20237
884.897	20111
885.023	20324
885.148	20263
885.274	20476
885.399	20229
885.524	20259
885.65	20324
885.775	20237
885.9	20237
886.025	20454
886.15	20301
886.275	20240
886.4	20130
886.525	20130
886.65	20077
886.775	20081
886.9	20240
887.025	20522
887.149	20164
887.274	20073
887.399	20062
887.523	19921
887.648	19841
887.773	19898
887.897	20062
888.021	20176
888.146	19906
888.27	20164
888.395	20088
888.519	20062
888.643	20107
888.767	20084
888.891	19993
889.015	19750
889.139	19837
889.263	19727
889.387	19925
889.511	20016
889.635	19906
889.759	19807
889.883	19738
890.006	19860
890.13	19913
890.254	19814
890.377	19742
890.501	19651
890.624	19613
890.748	19708
890.871	19537
890.995	19373
891.118	19373
891.241	19381
891.364	19381
891.488	19438
891.611	19514
891.734	19400
891.857	19506
891.98	19419
892.103	19521
892.226	19441
892.349	19343
892.471	19274
892.594	19312
892.717	19495
892.839	19343
892.962	19381
893.085	19472
893.207	19415
893.33	19316
893.452	19282
893.575	19304
893.697	19346
893.819	19506
893.941	19514
894.064	19582
894.186	19285
894.308	19308
894.43	19445
894.552	19464
894.674	19304
894.796	19202
894.918	19312
895.04	19232
895.161	19327
895.283	19396
895.405	19232
895.526	19304
895.648	19312
895.769	19278
895.891	19441
896.012	19506
896.134	19240
896.255	19388
896.376	19301
896.498	19438
896.619	19346
896.74	19358
896.861	19415
896.982	19529
897.103	19807
897.224	19525
897.345	19518
897.466	19544
897.587	19559
897.708	19738
897.828	19533
897.949	19460
898.07	19419
898.19	19445
898.311	19677
898.431	19518
898.552	19476
898.672	19651
898.792	19655
898.913	19571
899.033	19441
899.153	19358
899.273	19339
899.393	19327
899.513	19259
899.633	19362
899.753	19327
899.873	19213
899.993	19381
900.113	19274
900.232	19407
900.352	19232
900.472	19194
900.591	19084
900.711	19129
900.83	19107
900.95	19168
901.069	19247
901.189	19084
901.308	18833
901.427	18650
901.546	18677
901.665	18802
901.784	18730
901.904	18597
902.023	18551
902.141	18365
902.26	18285
902.379	18300
902.498	18224
902.617	18114
902.735	18251
902.854	18220
902.973	18121
903.091	17935
903.21	17870
903.328	17889
903.446	17771
903.565	17764
903.683	17798
903.801	17532
903.919	17611
904.038	17691
904.156	17509
904.274	17722
904.392	17505
904.51	17532
904.627	17425
904.745	17680
904.863	17433
904.981	17326
905.098	17159
905.216	17227
905.334	17136
905.451	17197
905.569	17273
905.686	17212
905.803	17147
905.921	17067
906.038	17033
906.155	17075
906.272	16923
906.389	16881
906.506	16748
906.623	16675
906.74	16668
906.857	16573
906.974	16786
907.091	16786
907.208	16949
907.324	16774
907.441	16637
907.557	16478
907.674	16409
907.79	16455
907.907	16382
908.023	16451
908.139	16523
908.256	16421
908.372	16341
908.488	16466
908.604	16211
908.72	16147
908.836	16177
908.952	16093
909.068	16200
909.184	16204
909.3	16139
909.415	16242
909.531	16105
909.647	15865
909.762	15842
909.878	15823
909.993	15873
910.108	15888
910.224	15857
910.339	15884
910.454	15720
910.57	15724
910.685	15648
910.8	15953
910.915	15835
911.03	15766
911.145	15564
911.259	15481
911.374	15553
911.489	15485
911.604	15389
911.718	15363
911.833	15230
911.947	15169
912.062	15127
912.176	15287
912.291	15249
912.405	15275
912.519	15485
912.633	15439
912.748	15287
912.862	15313
912.976	15036
913.09	14910
913.204	14948
913.318	15165
913.431	15199
913.545	15116
913.659	15192
913.772	15058
913.886	14956
914	14883
914.113	15032
914.226	14975
914.34	14948
914.453	14788
914.566	14883
914.68	14838
914.793	14758
914.906	14594
915.019	14541
915.132	14434
915.245	14480
915.358	14545
915.47	14560
915.583	14522
915.696	14541
915.809	14564
915.921	14762
916.034	14434
916.146	14438
916.259	14385
916.371	14476
916.483	14427
916.595	14374
916.708	14461
916.82	14377
916.932	14389
917.044	14263
917.156	14195
917.268	14123
917.38	14168
917.491	14183
917.603	14168
917.715	14233
917.826	14240
917.938	14100
918.049	14142
918.161	14161
918.272	14328
918.384	14328
918.495	14172
918.606	14035
918.717	13909
918.828	13928
918.939	14043
919.05	13902
919.161	13928
919.272	13826
919.383	13830
919.494	13970
919.604	14096
919.715	14050
919.826	13883
919.936	13925
920.047	13989
920.157	13955
920.267	14138
920.378	13868
920.488	13944
920.598	14168
920.708	14267
920.818	13974
920.928	13982
921.038	14233
921.148	14263
921.258	13928
921.368	13837
921.477	13712
921.587	13658
921.697	13563
921.806	13742
921.916	13628
922.025	13369
922.134	13274
922.244	13266
922.353	13449
922.462	13228
922.571	13122
922.68	12996
922.789	13076
922.898	13023
923.007	12871
923.116	13023
923.224	13023
923.333	12958
923.442	12878
923.55	12753
923.659	12852
923.767	12947
923.876	12745
923.984	12783
924.092	12722
924.201	12741
924.309	12741
924.417	12730
924.525	12601
924.633	12707
924.741	13457
924.849	12513
924.956	12681
925.064	12521
925.172	12391
925.279	12391
925.387	12483
925.494	12502
925.602	12528
925.709	12490
925.816	12323
925.924	12399
926.031	12513
926.138	12369
926.245	12418
926.352	12372
926.459	12456
926.566	12490
926.673	12334
926.779	12167
926.886	12327
926.993	12053
927.099	12015
927.206	11980
927.312	11980
927.419	12060
927.525	11992
927.631	11950
927.737	11817
927.843	11950
927.95	11824
928.056	11855
928.162	11817
928.267	11878
928.373	12475
928.479	11882
928.585	11661
928.69	11783
928.796	11870
928.901	11718
929.007	11589
929.112	11745
929.218	11684
929.323	11543
929.428	11592
929.533	11615
929.638	11554
929.743	11516
929.848	11554
929.953	11577
930.058	11493
930.163	11341
930.267	11242
930.372	11395
930.477	11239
930.581	11406
930.685	11395
930.79	11189
930.894	11124
930.998	11223
931.103	11299
931.207	10980
931.311	10904
931.415	10793
931.519	10596
931.623	10588
