Data from test_V78500241_2926.txt Node
Date: Fri Mar 25 15:30:14 CST 2022
User: usil
Spectrometer: V785-0024
Trigger mode: 0
Integration Time (sec): 4.000000E-1
Scans to average: 1
Nonlinearity correction enabled: false
Boxcar width: 0
Storing dark spectrum: false
XAxis mode: Wavelengths
Number of Pixels in Spectrum: 1024
>>>>>Begin Spectral Data<<<<<
801.071	27260
801.214	27138
801.356	27039
801.499	26998
801.641	26910
801.783	26727
801.926	26769
802.068	26735
802.211	26724
802.353	26640
802.496	26640
802.638	26396
802.78	26492
802.923	26385
803.065	26210
803.208	26229
803.35	26412
803.492	26549
803.635	26560
803.777	26412
803.919	26670
804.061	26815
804.204	26636
804.346	26438
804.488	26442
804.63	26461
804.773	26434
804.915	26564
805.057	26663
805.199	26503
805.341	26705
805.483	26655
805.626	26693
805.768	26480
805.91	26686
806.052	26693
806.194	26560
806.336	26769
806.478	26720
806.62	26731
806.762	26811
806.904	26830
807.046	27241
807.188	27020
807.33	27222
807.472	27077
807.614	27051
807.756	27043
807.898	26948
808.04	26807
808.182	26906
808.324	27013
808.465	27036
808.607	27135
808.749	27233
808.891	27367
809.033	27454
809.174	27431
809.316	27264
809.458	27313
809.6	27386
809.741	27367
809.883	27481
810.025	27511
810.166	27610
810.308	27443
810.45	27618
810.591	27500
810.733	27389
810.875	27424
811.016	27222
811.158	27222
811.299	27386
811.441	27496
811.582	27545
811.724	27450
811.865	27283
812.007	27397
812.148	27329
812.29	27378
812.431	27367
812.573	27564
812.714	27660
812.855	27766
812.997	27911
813.138	28067
813.279	27873
813.421	27743
813.562	27766
813.703	27561
813.845	27496
813.986	27222
814.127	27211
814.268	26910
814.41	27020
814.551	26937
814.692	27047
814.833	26967
814.974	26975
815.115	26986
815.256	26796
815.397	26960
815.539	26933
815.68	26701
815.821	26815
815.962	26819
816.103	26720
816.244	26575
816.385	26453
816.526	26381
816.666	26419
816.807	26183
816.948	26210
817.089	26286
817.23	26259
817.371	26271
817.512	26187
817.653	26164
817.793	26077
817.934	26278
818.075	26313
818.216	26294
818.356	26237
818.497	26191
818.638	25909
818.778	25959
818.919	25963
819.06	26119
819.2	25989
819.341	26229
819.481	26092
819.622	26385
819.762	26667
819.903	26343
820.043	26355
820.184	26275
820.324	26339
820.465	26389
820.605	26214
820.746	26305
820.886	26267
821.026	26218
821.167	26191
821.307	26305
821.447	26362
821.588	26351
821.728	26092
821.868	25856
822.008	25624
822.149	25761
822.289	25685
822.429	25434
822.569	25312
822.709	25278
822.849	25152
822.99	25164
823.13	25152
823.27	25175
823.41	24977
823.55	24867
823.69	25031
823.83	25137
823.97	24947
824.11	24726
824.25	24795
824.389	24749
824.529	24844
824.669	24669
824.809	24996
824.949	24779
825.089	24859
825.228	24779
825.368	24578
825.508	24654
825.648	24665
825.787	24616
825.927	24749
826.067	24700
826.206	24677
826.346	24730
826.485	24757
826.625	24620
826.765	24749
826.904	24696
827.044	24544
827.183	24460
827.323	24422
827.462	24456
827.601	24388
827.741	24247
827.88	24350
828.02	24197
828.159	24380
828.298	24262
828.437	24426
828.577	24194
828.716	24334
828.855	24213
828.994	24072
829.134	24102
829.273	24095
829.412	23973
829.551	24064
829.69	24076
829.829	24186
829.968	24262
830.107	24186
830.246	24167
830.385	24060
830.524	23969
830.663	23939
830.802	23748
830.941	23604
831.08	23646
831.219	23756
831.357	23684
831.496	24034
831.635	23604
831.774	23535
831.913	23524
832.051	23516
832.19	23471
832.329	23459
832.467	23482
832.606	23303
832.744	23349
832.883	23463
833.022	23231
833.16	23277
833.299	23425
833.437	23337
833.576	23474
833.714	23376
833.852	23406
833.991	23471
834.129	23531
834.267	23364
834.406	23497
834.544	23512
834.682	23334
834.821	23353
834.959	23630
835.097	23288
835.235	23436
835.373	23391
835.511	23406
835.65	23299
835.788	23204
835.926	23136
836.064	22984
836.202	23124
836.34	23220
836.478	23337
836.615	23174
836.753	23299
836.891	23406
837.029	23170
837.167	23326
837.305	23159
837.443	23212
837.58	23025
837.718	23079
837.856	23117
837.993	23052
838.131	23151
838.269	22866
838.406	23006
838.544	22968
838.681	22653
838.819	22645
838.956	22618
839.094	22535
839.231	22569
839.369	22550
839.506	22877
839.643	22782
839.781	22698
839.918	22550
840.055	22538
840.193	22565
840.33	22569
840.467	22550
840.604	22504
840.742	22736
840.879	22371
841.016	22485
841.153	22303
841.29	22565
841.427	22436
841.564	22436
841.701	22478
841.838	22546
841.975	22402
842.112	22333
842.249	22284
842.385	22318
842.522	22386
842.659	22348
842.796	22219
842.933	22162
843.069	22265
843.206	22238
843.343	22382
843.479	22207
843.616	22379
843.752	21979
843.889	22048
844.025	22242
844.162	22025
844.298	22147
844.435	22017
844.571	21884
844.708	22074
844.844	22162
844.98	22139
845.117	22109
845.253	21975
845.389	21956
845.525	21854
845.661	21778
845.798	21732
845.934	21698
846.07	21671
846.206	21743
846.342	21846
846.478	21679
846.614	21614
846.75	21321
846.886	21549
847.022	21538
847.158	21477
847.294	21515
847.429	21523
847.565	21496
847.701	21812
847.837	21211
847.972	21138
848.108	21340
848.244	21275
848.379	21199
848.515	21100
848.65	21043
848.786	21192
848.921	20948
849.057	21169
849.192	21138
849.328	21112
849.463	21070
849.598	21070
849.734	20990
849.869	20842
850.004	20777
850.14	20849
850.275	20883
850.41	20678
850.545	20651
850.68	20716
850.815	20895
850.95	20762
851.085	21116
851.22	20990
851.355	20842
851.49	20800
851.625	20773
851.76	20861
851.895	20765
852.03	20823
852.165	20838
852.299	20823
852.434	20921
852.569	20902
852.703	20864
852.838	21020
852.973	20933
853.107	21009
853.242	20819
853.376	20674
853.511	20518
853.645	20590
853.78	20838
853.914	20712
854.048	20663
854.183	20670
854.317	20697
854.451	20781
854.585	20682
854.72	20636
854.854	20758
854.988	20556
855.122	20705
855.256	20480
855.39	20651
855.524	20746
855.658	20606
855.792	20765
855.926	20632
856.06	20750
856.194	20743
856.327	20636
856.461	20640
856.595	20655
856.729	20590
856.862	20853
856.996	20609
857.13	20731
857.263	20800
857.397	20800
857.53	20708
857.664	20857
857.797	20743
857.931	20769
858.064	20663
858.197	20792
858.331	20518
858.464	20716
858.597	20579
858.731	20644
858.864	20537
858.997	20727
859.13	20705
859.263	20689
859.396	20693
859.529	20587
859.662	20648
859.795	20602
859.928	20826
860.061	20796
860.194	20876
860.327	20735
860.46	20686
860.592	20845
860.725	20765
860.858	20777
860.99	20682
861.123	20499
861.256	20587
861.388	20579
861.521	21222
861.653	20579
861.786	20431
861.918	20473
862.05	20583
862.183	20659
862.315	20606
862.447	20651
862.58	20621
862.712	20484
862.844	20374
862.976	20518
863.108	20476
863.24	20967
863.372	20343
863.504	20412
863.636	20317
863.768	20385
863.9	20320
864.032	20434
864.164	20278
864.296	20446
864.428	20457
864.559	20313
864.691	20492
864.823	20419
864.954	20355
865.086	20473
865.217	20248
865.349	20199
865.48	20267
865.612	20332
865.743	20336
865.875	20290
866.006	20282
866.137	20389
866.269	20309
866.4	20161
866.531	20172
866.662	20122
866.793	20290
866.924	20259
867.055	20336
867.186	20214
867.317	20126
867.448	20176
867.579	20221
867.71	20145
867.841	20161
867.972	20294
868.103	20233
868.233	20244
868.364	20328
868.495	20294
868.625	20549
868.756	20655
868.886	20446
869.017	20499
869.147	20655
869.278	20492
869.408	20408
869.539	20434
869.669	20457
869.799	20514
869.929	20549
870.06	20526
870.19	20625
870.32	20762
870.45	20815
870.58	20815
870.71	21024
870.84	20887
870.97	20826
871.1	20826
871.23	20990
871.36	21062
871.489	20921
871.619	20925
871.749	20971
871.879	21108
872.008	21199
872.138	21013
872.267	21036
872.397	20914
872.526	20948
872.656	20910
872.785	20956
872.915	21062
873.044	21154
873.173	21085
873.303	21199
873.432	21047
873.561	21146
873.69	21104
873.819	21039
873.948	21173
874.077	21108
874.206	21077
874.335	21051
874.464	21207
874.593	21211
874.722	21256
874.851	21298
874.979	21306
875.108	21378
875.237	21188
875.365	21287
875.494	21351
875.623	21344
875.751	21245
875.88	21386
876.008	21416
876.136	21443
876.265	21682
876.393	21892
876.521	21751
876.65	21827
876.778	21755
876.906	21671
877.034	21644
877.162	21637
877.29	21564
877.418	21682
877.546	21648
877.674	21641
877.802	21595
877.93	21675
878.058	21606
878.185	21530
878.313	21637
878.441	21591
878.568	21458
878.696	21625
878.824	21755
878.951	21675
879.079	21846
879.206	21991
879.333	21850
879.461	21747
879.588	21766
879.715	21812
879.842	21960
879.97	21778
880.097	21515
880.224	21572
880.351	21637
880.478	21523
880.605	21534
880.732	21542
880.859	21827
880.986	21515
881.112	21595
881.239	21374
881.366	21214
881.493	21127
881.619	21081
881.746	21100
881.872	21169
881.999	21066
882.125	21032
882.252	21157
882.378	21070
882.505	21173
882.631	20986
882.757	20838
882.883	20982
883.01	20777
883.136	20929
883.262	20667
883.388	20659
883.514	20830
883.64	20815
883.766	20708
883.892	20648
884.018	20587
884.143	20663
884.269	20853
884.395	20552
884.52	20473
884.646	20461
884.772	20336
884.897	20313
885.023	20412
885.148	20545
885.274	20663
885.399	20492
885.524	20465
885.65	20636
885.775	20511
885.9	20446
886.025	20560
886.15	20530
886.275	20427
886.4	20370
886.525	20404
886.65	20366
886.775	20396
886.9	20530
887.025	20651
887.149	20408
887.274	20294
887.399	20267
887.523	20233
887.648	20195
887.773	20157
887.897	20355
888.021	20233
888.146	20142
888.27	20229
888.395	20408
888.519	20301
888.643	20343
888.767	20313
888.891	20100
889.015	20088
889.139	20100
889.263	19989
889.387	20305
889.511	20244
889.635	20267
889.759	19970
889.883	20024
890.006	20088
890.13	20122
890.254	20012
890.377	20012
890.501	19799
890.624	19830
890.748	19864
890.871	19605
890.995	19449
891.118	19556
891.241	19685
891.364	19620
891.488	19655
891.611	19578
891.734	19655
891.857	19734
891.98	19715
892.103	19689
892.226	19647
892.349	19567
892.471	19487
892.594	19567
892.717	19578
892.839	19426
892.962	19586
893.085	19578
893.207	19681
893.33	19308
893.452	19449
893.575	19556
893.697	19590
893.819	19666
893.941	19757
894.064	19624
894.186	19441
894.308	19533
894.43	19552
894.552	19708
894.674	19616
894.796	19343
894.918	19476
895.04	19506
895.161	19601
895.283	19616
895.405	19529
895.526	19430
895.648	19601
895.769	19506
895.891	19647
896.012	19590
896.134	19575
896.255	19594
896.376	19670
896.498	19651
896.619	19400
896.74	19578
896.861	19632
896.982	19799
897.103	19974
897.224	19947
897.345	19845
897.466	19590
897.587	19753
897.708	19852
897.828	19788
897.949	19689
898.07	19521
898.19	19708
898.311	19906
898.431	19723
898.552	19628
898.672	19932
898.792	19830
898.913	19681
899.033	19757
899.153	19620
899.273	19487
899.393	19499
899.513	19521
899.633	19540
899.753	19586
899.873	19343
899.993	19624
900.113	19438
900.232	19502
900.352	19476
900.472	19354
900.591	19289
900.711	19400
900.83	19232
900.95	19476
901.069	19392
901.189	19209
901.308	19050
901.427	18878
901.546	18920
901.665	18996
901.784	18871
901.904	18798
902.023	18776
902.141	18471
902.26	18445
902.379	18551
902.498	18395
902.617	18414
902.735	18528
902.854	18376
902.973	18266
903.091	18114
903.21	18121
903.328	18167
903.446	18072
903.565	17927
903.683	17969
903.801	17855
903.919	17965
904.038	17855
904.156	17756
904.274	17726
904.392	17630
904.51	17596
904.627	17733
904.745	17786
904.863	17695
904.981	17497
905.098	17288
905.216	17372
905.334	17391
905.451	17364
905.569	17334
905.686	17345
905.803	17334
905.921	17181
906.038	17277
906.155	17155
906.272	16980
906.389	17010
906.506	16908
906.623	16900
906.74	16824
906.857	16774
906.974	16885
907.091	17022
907.208	17128
907.324	16854
907.441	16797
907.557	16668
907.674	16584
907.79	16516
907.907	16561
908.023	16626
908.139	16641
908.256	16550
908.372	16535
908.488	16523
908.604	16375
908.72	16394
908.836	16459
908.952	16295
909.068	16200
909.184	16413
909.3	16352
909.415	16344
909.531	16322
909.647	16124
909.762	16051
909.878	16196
909.993	15960
910.108	15983
910.224	16017
910.339	16013
910.454	15850
910.57	15808
910.685	15781
910.8	16051
910.915	15895
911.03	15842
911.145	15728
911.259	15549
911.374	15614
911.489	15519
911.604	15473
911.718	15469
911.833	15447
911.947	15336
912.062	15237
912.176	15428
912.291	15458
912.405	15481
912.519	15663
912.633	15656
912.748	15363
912.862	15405
912.976	15298
913.09	15176
913.204	15119
913.318	15214
913.431	15428
913.545	15332
913.659	15336
913.772	15184
913.886	15077
914	15058
914.113	15173
914.226	15116
914.34	15047
914.453	14937
914.566	14998
914.68	14982
914.793	14902
914.906	14769
915.019	14689
915.132	14625
915.245	14625
915.358	14606
915.47	14731
915.583	14606
915.696	14762
915.809	14796
915.921	14777
916.034	14594
916.146	14568
916.259	14564
916.371	14632
916.483	14606
916.595	14488
916.708	14499
916.82	14560
916.932	14518
917.044	14450
917.156	14438
917.268	14381
917.38	14381
917.491	14301
917.603	14438
917.715	14454
917.826	14347
917.938	14389
918.049	14092
918.161	14240
918.272	14469
918.384	14423
918.495	14355
918.606	14218
918.717	13997
918.828	14073
918.939	14176
919.05	14096
919.161	14084
919.272	13868
919.383	13944
919.494	14176
919.604	14263
919.715	14031
919.826	14054
919.936	14008
920.047	14073
920.157	14115
920.267	14275
920.378	14039
920.488	14008
920.598	14180
920.708	14324
920.818	14218
920.928	14199
921.038	14431
921.148	14305
921.258	14005
921.368	13902
921.477	13864
921.587	13849
921.697	13712
921.806	13833
921.916	13693
922.025	13525
922.134	13457
922.244	13339
922.353	13514
922.462	13350
922.571	13240
922.68	13171
922.789	13057
922.898	13160
923.007	13038
923.116	13168
923.224	13034
923.333	13088
923.442	12989
923.55	12897
923.659	12932
923.767	13061
923.876	12947
923.984	13012
924.092	12741
924.201	12916
924.309	12821
924.417	12886
924.525	12772
924.633	12703
924.741	13689
924.849	12551
924.956	12719
925.064	12528
925.172	12574
925.279	12471
925.387	12448
925.494	12578
925.602	12696
925.709	12635
925.816	12525
925.924	12498
926.031	12616
926.138	12563
926.245	12540
926.352	12391
926.459	12490
926.566	12578
926.673	12376
926.779	12319
926.886	12239
926.993	12247
927.099	12095
927.206	12068
927.312	12152
927.419	12232
927.525	12178
927.631	12133
927.737	12003
927.843	11980
927.95	11901
928.056	11935
928.162	12007
928.267	12083
928.373	12601
928.479	12079
928.585	11821
928.69	11863
928.796	11912
928.901	11836
929.007	11619
929.112	11821
929.218	11794
929.323	11665
929.428	11668
929.533	11878
929.638	11722
929.743	11657
929.848	11638
929.953	11657
930.058	11558
930.163	11436
930.267	11497
930.372	11566
930.477	11406
930.581	11627
930.685	11516
930.79	11345
930.894	11250
930.998	11280
931.103	11364
931.207	11060
931.311	11064
931.415	10896
931.519	10740
931.623	10687
