Data from test_V78500241_2050.txt Node
Date: Fri Mar 25 15:24:07 CST 2022
User: usil
Spectrometer: V785-0024
Trigger mode: 0
Integration Time (sec): 4.000000E-1
Scans to average: 1
Nonlinearity correction enabled: false
Boxcar width: 0
Storing dark spectrum: false
XAxis mode: Wavelengths
Number of Pixels in Spectrum: 1024
>>>>>Begin Spectral Data<<<<<
801.071	27804
801.214	27739
801.356	27538
801.499	27568
801.641	27447
801.783	27606
801.926	27496
802.068	27443
802.211	27329
802.353	27192
802.496	26975
802.638	27100
802.78	27066
802.923	27028
803.065	26815
803.208	26891
803.35	26986
803.492	27058
803.635	27233
803.777	27070
803.919	27230
804.061	27557
804.204	27237
804.346	27313
804.488	27108
804.63	27260
804.773	27127
804.915	27241
805.057	27283
805.199	27268
805.341	27382
805.483	27458
805.626	27401
805.768	27348
805.91	27367
806.052	27466
806.194	27256
806.336	27450
806.478	27283
806.62	27401
806.762	27534
806.904	27648
807.046	27644
807.188	27720
807.33	27873
807.472	27766
807.614	27553
807.756	27804
807.898	27580
808.04	27671
808.182	27610
808.324	27625
808.465	27671
808.607	27865
808.749	28010
808.891	28105
809.033	28204
809.174	27994
809.316	27934
809.458	28002
809.6	27911
809.741	28097
809.883	28230
810.025	28421
810.166	28314
810.308	28348
810.45	28139
810.591	28306
810.733	28010
810.875	28059
811.016	27888
811.158	27823
811.299	28074
811.441	28086
811.582	28177
811.724	28040
811.865	27994
812.007	28051
812.148	28010
812.29	28128
812.431	28044
812.573	28310
812.714	28329
812.855	28405
812.997	28512
813.138	28702
813.279	28615
813.421	28443
813.562	28481
813.703	28261
813.845	28303
813.986	28006
814.127	27857
814.268	27622
814.41	27572
814.551	27751
814.692	27720
814.833	27599
814.974	27641
815.115	27751
815.256	27667
815.397	27587
815.539	27526
815.68	27401
815.821	27237
815.962	27538
816.103	27504
816.244	27214
816.385	27332
816.526	27142
816.666	27032
816.807	26849
816.948	26994
817.089	27032
817.23	26834
817.371	27047
817.512	26998
817.653	26834
817.793	26960
817.934	26925
818.075	26998
818.216	27081
818.356	26838
818.497	26853
818.638	26735
818.778	26720
818.919	26811
819.06	26735
819.2	26902
819.341	26948
819.481	26990
819.622	27161
819.762	27294
819.903	27195
820.043	27245
820.184	27138
820.324	27081
820.465	27116
820.605	27043
820.746	26937
820.886	26864
821.026	26990
821.167	27089
821.307	27055
821.447	27119
821.588	26861
821.728	26769
821.868	26708
822.008	26393
822.149	26389
822.289	26461
822.429	26145
822.569	26134
822.709	26081
822.849	25902
822.99	25921
823.13	25986
823.27	25902
823.41	25765
823.55	25616
823.69	25833
823.83	25731
823.97	25670
824.11	25502
824.25	25499
824.389	25506
824.529	25590
824.669	25556
824.809	25624
824.949	25677
825.089	25658
825.228	25571
825.368	25453
825.508	25510
825.648	25476
825.787	25464
825.927	25624
826.067	25582
826.206	25377
826.346	25529
826.485	25518
826.625	25499
826.765	25464
826.904	25445
827.044	25297
827.183	25308
827.323	25110
827.462	25255
827.601	25236
827.741	25190
827.88	25206
828.02	25084
828.159	25076
828.298	25240
828.437	25145
828.577	25076
828.716	25251
828.855	25217
828.994	24916
829.134	24913
829.273	24802
829.412	24722
829.551	24764
829.69	24920
829.829	24928
829.968	25038
830.107	24890
830.246	24882
830.385	24852
830.524	24798
830.663	24776
830.802	24574
830.941	24532
831.08	24445
831.219	24555
831.357	24650
831.496	24589
831.635	24403
831.774	24399
831.913	24251
832.051	24205
832.19	24167
832.329	24254
832.467	24171
832.606	24102
832.744	24038
832.883	24247
833.022	24155
833.16	24190
833.299	24300
833.437	24273
833.576	24304
833.714	24308
833.852	24064
833.991	24171
834.129	24235
834.267	24289
834.406	24270
834.544	24174
834.682	24144
834.821	24098
834.959	24353
835.097	24064
835.235	24144
835.373	24144
835.511	24197
835.65	24152
835.788	24064
835.926	24038
836.064	23859
836.202	23977
836.34	24072
836.478	24064
836.615	23847
836.753	23958
836.891	24038
837.029	24003
837.167	23950
837.305	23969
837.443	23836
837.58	23904
837.718	24076
837.856	23828
837.993	23703
838.131	23779
838.269	23779
838.406	23779
838.544	23703
838.681	23566
838.819	23512
838.956	23341
839.094	23356
839.231	23425
839.369	23589
839.506	23802
839.643	23471
839.781	23372
839.918	23391
840.055	23235
840.193	23261
840.33	23235
840.467	23330
840.604	23299
840.742	23417
840.879	23193
841.016	23155
841.153	23136
841.29	23318
841.427	23250
841.564	23265
841.701	23284
841.838	23193
841.975	23079
842.112	23155
842.249	23029
842.385	23010
842.522	23189
842.659	23064
842.796	23033
842.933	23006
843.069	22866
843.206	22911
843.343	23094
843.479	23037
843.616	22915
843.752	22858
843.889	22835
844.025	22949
844.162	22637
844.298	22957
844.435	22862
844.571	22713
844.708	22812
844.844	22858
844.98	22835
845.117	22881
845.253	22702
845.389	22607
845.525	22706
845.661	22645
845.798	22481
845.934	22557
846.07	22615
846.206	22462
846.342	22626
846.478	22573
846.614	22382
846.75	22226
846.886	22246
847.022	22276
847.158	22348
847.294	22344
847.429	22284
847.565	22185
847.701	22489
847.837	22044
847.972	21964
848.108	22021
848.244	22059
848.379	22040
848.515	21922
848.65	21800
848.786	21827
848.921	21854
849.057	21968
849.192	21682
849.328	21819
849.463	21842
849.598	21770
849.734	21724
849.869	21701
850.004	21637
850.14	21557
850.275	21587
850.41	21542
850.545	21625
850.68	21530
850.815	21568
850.95	21591
851.085	21739
851.22	21732
851.355	21576
851.49	21606
851.625	21637
851.76	21458
851.895	21595
852.03	21557
852.165	21625
852.299	21652
852.434	21679
852.569	21667
852.703	21732
852.838	21709
852.973	21747
853.107	21717
853.242	21549
853.376	21545
853.511	21401
853.645	21431
853.78	21679
853.914	21473
854.048	21370
854.183	21454
854.317	21504
854.451	21675
854.585	21420
854.72	21549
854.854	21572
854.988	21321
855.122	21515
855.256	21393
855.39	21386
855.524	21538
855.658	21401
855.792	21416
855.926	21599
856.06	21572
856.194	21606
856.327	21538
856.461	21325
856.595	21462
856.729	21439
856.862	21458
856.996	21386
857.13	21561
857.263	21618
857.397	21481
857.53	21431
857.664	21416
857.797	21511
857.931	21572
858.064	21462
858.197	21629
858.331	21473
858.464	21443
858.597	21226
858.731	21389
858.864	21408
858.997	21431
859.13	21431
859.263	21496
859.396	21424
859.529	21420
859.662	21370
859.795	21485
859.928	21488
860.061	21644
860.194	21652
860.327	21351
860.46	21382
860.592	21526
860.725	21701
860.858	21515
860.99	21389
861.123	21389
861.256	21458
861.388	21435
861.521	22291
861.653	21283
861.786	21188
861.918	21142
862.05	21260
862.183	21325
862.315	21348
862.447	21386
862.58	21435
862.712	21222
862.844	21142
862.976	21173
863.108	21214
863.24	21443
863.372	21055
863.504	21058
863.636	21146
863.768	21195
863.9	21108
864.032	20990
864.164	21085
864.296	21184
864.428	21131
864.559	21252
864.691	21138
864.823	21211
864.954	21142
865.086	21028
865.217	21024
865.349	20925
865.48	21017
865.612	21093
865.743	21142
865.875	20986
866.006	21028
866.137	20998
866.269	20982
866.4	21039
866.531	21005
866.662	20895
866.793	21043
866.924	20956
867.055	20994
867.186	21013
867.317	20956
867.448	20944
867.579	20925
867.71	20899
867.841	20880
867.972	21043
868.103	21032
868.233	20990
868.364	20960
868.495	21131
868.625	21161
868.756	21252
868.886	21195
869.017	21195
869.147	21340
869.278	21291
869.408	21283
869.539	21203
869.669	21199
869.799	21096
869.929	21283
870.06	21233
870.19	21454
870.32	21587
870.45	21469
870.58	21557
870.71	21690
870.84	21709
870.97	21606
871.1	21469
871.23	21774
871.36	21838
871.489	21720
871.619	21835
871.749	21652
871.879	21850
872.008	21861
872.138	21736
872.267	21884
872.397	21644
872.526	21743
872.656	21671
872.785	21622
872.915	21728
873.044	21854
873.173	21842
873.303	21884
873.432	21876
873.561	21907
873.69	21819
873.819	21797
873.948	21869
874.077	21854
874.206	21797
874.335	21812
874.464	21903
874.593	21991
874.722	22021
874.851	22120
874.979	22063
875.108	22048
875.237	21956
875.365	21922
875.494	22070
875.623	22090
875.751	21899
875.88	22143
876.008	22139
876.136	22150
876.265	22478
876.393	22497
876.521	22561
876.65	22557
876.778	22485
876.906	22428
877.034	22451
877.162	22516
877.29	22417
877.418	22390
877.546	22318
877.674	22371
877.802	22402
877.93	22356
878.058	22405
878.185	22428
878.313	22421
878.441	22375
878.568	22192
878.696	22306
878.824	22379
878.951	22398
879.079	22573
879.206	22615
879.333	22516
879.461	22546
879.588	22527
879.715	22611
879.842	22653
879.97	22550
880.097	22219
880.224	22185
880.351	22211
880.478	22185
880.605	22291
880.732	22154
880.859	22394
880.986	22291
881.112	22207
881.239	22021
881.366	21964
881.493	21766
881.619	21846
881.746	21797
881.872	21869
881.999	21785
882.125	21709
882.252	21861
882.378	21736
882.505	21960
882.631	21732
882.757	21435
882.883	21557
883.01	21454
883.136	21443
883.262	21412
883.388	21313
883.514	21481
883.64	21526
883.766	21454
883.892	21272
884.018	21264
884.143	21431
884.269	21564
884.395	21218
884.52	21192
884.646	21123
884.772	20967
884.897	21070
885.023	21100
885.148	21161
885.274	21275
885.399	21256
885.524	21032
885.65	21142
885.775	21085
885.9	21214
886.025	21302
886.15	21188
886.275	21070
886.4	21138
886.525	21001
886.65	20899
886.775	20902
886.9	21302
887.025	21386
887.149	21089
887.274	20960
887.399	20891
887.523	20826
887.648	20910
887.773	20853
887.897	20769
888.021	20872
888.146	20887
888.27	20986
888.395	20982
888.519	20899
888.643	20921
888.767	20921
888.891	20845
889.015	20606
889.139	20773
889.263	20705
889.387	20796
889.511	20849
889.635	20861
889.759	20686
889.883	20651
890.006	20686
890.13	20617
890.254	20651
890.377	20556
890.501	20438
890.624	20530
890.748	20503
890.871	20396
890.995	20336
891.118	20199
891.241	20347
891.364	20149
891.488	20457
891.611	20328
891.734	20214
891.857	20248
891.98	20244
892.103	20313
892.226	20214
892.349	20088
892.471	20172
892.594	20172
892.717	20142
892.839	20157
892.962	20199
893.085	20286
893.207	20259
893.33	20157
893.452	20073
893.575	20218
893.697	20130
893.819	20282
893.941	20446
894.064	20362
894.186	20062
894.308	20058
894.43	20202
894.552	20309
894.674	20176
894.796	20073
894.918	20183
895.04	20134
895.161	20229
895.283	20103
895.405	20092
895.526	20138
895.648	20206
895.769	20206
895.891	20168
896.012	20282
896.134	20145
896.255	20214
896.376	20054
896.498	20244
896.619	20172
896.74	20111
896.861	20172
896.982	20434
897.103	20648
897.224	20370
897.345	20522
897.466	20309
897.587	20442
897.708	20484
897.828	20427
897.949	20305
898.07	20275
898.19	20301
898.311	20408
898.431	20351
898.552	20343
898.672	20431
898.792	20404
898.913	20412
899.033	20298
899.153	20290
899.273	20096
899.393	20176
899.513	20142
899.633	20103
899.753	20225
899.873	20084
899.993	20115
900.113	19986
900.232	20122
900.352	20111
900.472	20065
900.591	19860
900.711	19951
900.83	19906
900.95	19963
901.069	19986
901.189	19849
901.308	19567
901.427	19434
901.546	19445
901.665	19457
901.784	19499
901.904	19350
902.023	19206
902.141	19053
902.26	19031
902.379	19122
902.498	19012
902.617	18966
902.735	18913
902.854	19034
902.973	18935
903.091	18635
903.21	18597
903.328	18585
903.446	18540
903.565	18441
903.683	18559
903.801	18395
903.919	18483
904.038	18384
904.156	18235
904.274	18235
904.392	18186
904.51	18361
904.627	18254
904.745	18213
904.863	18311
904.981	18003
905.098	17897
905.216	17920
905.334	18068
905.451	17969
905.569	17866
905.686	17912
905.803	17870
905.921	17726
906.038	17817
906.155	17703
906.272	17756
906.389	17665
906.506	17585
906.623	17414
906.74	17490
906.857	17345
906.974	17387
907.091	17543
907.208	17455
907.324	17512
907.441	17349
907.557	17128
907.674	17223
907.79	17003
907.907	17124
908.023	17246
908.139	17170
908.256	17064
908.372	17025
908.488	16991
908.604	17014
908.72	16927
908.836	16919
908.952	16953
909.068	16965
909.184	16892
909.3	16774
909.415	16881
909.531	16820
909.647	16622
909.762	16554
909.878	16546
909.993	16531
910.108	16653
910.224	16527
910.339	16546
910.454	16402
910.57	16462
910.685	16356
910.8	16558
910.915	16519
911.03	16413
911.145	16215
911.259	16188
911.374	16112
911.489	16093
911.604	16036
911.718	15895
911.833	15983
911.947	15808
912.062	15633
912.176	15949
912.291	15892
912.405	15850
912.519	16040
912.633	16124
912.748	15960
912.862	15888
912.976	15709
913.09	15595
913.204	15720
913.318	15732
913.431	15785
913.545	15823
913.659	15937
913.772	15804
913.886	15625
914	15519
914.113	15580
914.226	15671
914.34	15656
914.453	15458
914.566	15599
914.68	15416
914.793	15386
914.906	15165
915.019	15127
915.132	15070
915.245	15161
915.358	15127
915.47	15176
915.583	15097
915.696	15123
915.809	15252
915.921	15302
916.034	15157
916.146	15074
916.259	14994
916.371	15112
916.483	15009
916.595	15066
916.708	14956
916.82	15032
916.932	14861
917.044	15001
917.156	14883
917.268	14731
917.38	14792
917.491	14804
917.603	14792
917.715	14853
917.826	14956
917.938	14697
918.049	14613
918.161	14777
918.272	14842
918.384	14838
918.495	14724
918.606	14625
918.717	14571
918.828	14617
918.939	14530
919.05	14419
919.161	14549
919.272	14324
919.383	14377
919.494	14541
919.604	14785
919.715	14590
919.826	14454
919.936	14537
920.047	14526
920.157	14476
920.267	14708
920.378	14545
920.488	14503
920.598	14754
920.708	14830
920.818	14674
920.928	14625
921.038	14773
921.148	14781
921.258	14549
921.368	14438
921.477	14244
921.587	14195
921.697	14103
921.806	14271
921.916	14096
922.025	13959
922.134	13776
922.244	13883
922.353	13951
922.462	13776
922.571	13704
922.68	13597
922.789	13521
922.898	13559
923.007	13521
923.116	13529
923.224	13510
923.333	13480
923.442	13362
923.55	13407
923.659	13354
923.767	13460
923.876	13327
923.984	13430
924.092	13301
924.201	13263
924.309	13225
924.417	13263
924.525	13225
924.633	13221
924.741	13925
924.849	13050
924.956	13107
925.064	13015
925.172	12844
925.279	12970
925.387	12966
925.494	12920
925.602	13069
925.709	13019
925.816	12852
925.924	12871
926.031	12943
926.138	12928
926.245	12905
926.352	12829
926.459	12985
926.566	12947
926.673	12871
926.779	12665
926.886	12753
926.993	12654
927.099	12517
927.206	12536
927.312	12460
927.419	12631
927.525	12494
927.631	12536
927.737	12494
927.843	12342
927.95	12315
928.056	12357
928.162	12391
928.267	12410
928.373	13000
928.479	12357
928.585	12155
928.69	12323
928.796	12311
928.901	12224
929.007	12087
929.112	12216
929.218	12136
929.323	12060
929.428	12026
929.533	12159
929.638	12026
929.743	11984
929.848	12060
929.953	12007
930.058	11843
930.163	11775
930.267	11733
930.372	11832
930.477	11710
930.581	11874
930.685	11794
930.79	11566
930.894	11714
930.998	11547
931.103	11779
931.207	11315
931.311	11356
931.415	11212
931.519	10999
931.623	11132
