Data from test_V78500241_2550.txt Node
Date: Fri Mar 25 15:27:36 CST 2022
User: usil
Spectrometer: V785-0024
Trigger mode: 0
Integration Time (sec): 4.000000E-1
Scans to average: 1
Nonlinearity correction enabled: false
Boxcar width: 0
Storing dark spectrum: false
XAxis mode: Wavelengths
Number of Pixels in Spectrum: 1024
>>>>>Begin Spectral Data<<<<<
801.071	27230
801.214	27249
801.356	26883
801.499	26849
801.641	26876
801.783	26842
801.926	26895
802.068	26697
802.211	26727
802.353	26659
802.496	26427
802.638	26404
802.78	26389
802.923	26465
803.065	26252
803.208	26385
803.35	26457
803.492	26488
803.635	26651
803.777	26290
803.919	26530
804.061	26967
804.204	26537
804.346	26602
804.488	26598
804.63	26613
804.773	26488
804.915	26609
805.057	26720
805.199	26598
805.341	26476
805.483	26689
805.626	26598
805.768	26670
805.91	26727
806.052	26705
806.194	26518
806.336	26960
806.478	26731
806.62	26720
806.762	26765
806.904	26971
807.046	27123
807.188	27211
807.33	27203
807.472	27161
807.614	26963
807.756	27062
807.898	26940
808.04	26895
808.182	26861
808.324	27013
808.465	26887
808.607	27123
808.749	27207
808.891	27412
809.033	27427
809.174	27340
809.316	27275
809.458	27329
809.6	27207
809.741	27302
809.883	27367
810.025	27435
810.166	27625
810.308	27553
810.45	27553
810.591	27424
810.733	27241
810.875	27154
811.016	27195
811.158	27165
811.299	27466
811.441	27553
811.582	27386
811.724	27302
811.865	27313
812.007	27272
812.148	27043
812.29	27211
812.431	27374
812.573	27603
812.714	27629
812.855	27709
812.997	27762
813.138	27964
813.279	27998
813.421	27732
813.562	27701
813.703	27454
813.845	27500
813.986	27260
814.127	27100
814.268	27032
814.41	26857
814.551	26765
814.692	26921
814.833	26921
814.974	26971
815.115	26921
815.256	26815
815.397	26940
815.539	26830
815.68	26716
815.821	26648
815.962	26682
816.103	26640
816.244	26571
816.385	26564
816.526	26434
816.666	26320
816.807	26130
816.948	26362
817.089	26233
817.23	26221
817.371	26286
817.512	26172
817.653	26195
817.793	26062
817.934	26183
818.075	26263
818.216	26199
818.356	26275
818.497	26271
818.638	26077
818.778	25890
818.919	25947
819.06	25940
819.2	26191
819.341	26145
819.481	26161
819.622	26206
819.762	26644
819.903	26434
820.043	26275
820.184	26332
820.324	26237
820.465	26278
820.605	26358
820.746	26317
820.886	26107
821.026	26351
821.167	26191
821.307	26355
821.447	26164
821.588	26229
821.728	25959
821.868	25849
822.008	25791
822.149	25693
822.289	25666
822.429	25445
822.569	25274
822.709	25411
822.849	25217
822.99	25320
823.13	25129
823.27	25190
823.41	25069
823.55	24878
823.69	24970
823.83	25050
823.97	24894
824.11	24753
824.25	24795
824.389	24703
824.529	24829
824.669	24757
824.809	24970
824.949	24795
825.089	24817
825.228	24791
825.368	24681
825.508	24665
825.648	24810
825.787	24749
825.927	24810
826.067	24741
826.206	24757
826.346	24703
826.485	24726
826.625	24639
826.765	24768
826.904	24741
827.044	24437
827.183	24399
827.323	24289
827.462	24350
827.601	24456
827.741	24376
827.88	24422
828.02	24445
828.159	24369
828.298	24407
828.437	24445
828.577	24296
828.716	24448
828.855	24372
828.994	24144
829.134	24155
829.273	24201
829.412	24110
829.551	24045
829.69	23992
829.829	24285
829.968	24133
830.107	24079
830.246	24045
830.385	24011
830.524	23977
830.663	23961
830.802	23878
830.941	23790
831.08	23646
831.219	23676
831.357	23870
831.496	23965
831.635	23783
831.774	23630
831.913	23653
832.051	23448
832.19	23592
832.329	23528
832.467	23379
832.606	23341
832.744	23467
832.883	23421
833.022	23368
833.16	23471
833.299	23307
833.437	23406
833.576	23452
833.714	23398
833.852	23414
833.991	23543
834.129	23665
834.267	23471
834.406	23512
834.544	23421
834.682	23512
834.821	23490
834.959	23604
835.097	23459
835.235	23554
835.373	23467
835.511	23395
835.65	23410
835.788	23387
835.926	23212
836.064	23231
836.202	23296
836.34	23379
836.478	23353
836.615	23311
836.753	23311
836.891	23395
837.029	23242
837.167	23231
837.305	23299
837.443	23292
837.58	23140
837.718	23159
837.856	23128
837.993	23037
838.131	23124
838.269	23060
838.406	23048
838.544	23003
838.681	22805
838.819	22763
838.956	22668
839.094	22649
839.231	22801
839.369	22782
839.506	23022
839.643	22866
839.781	22653
839.918	22668
840.055	22626
840.193	22698
840.33	22637
840.467	22569
840.604	22538
840.742	22919
840.879	22462
841.016	22588
841.153	22481
841.29	22656
841.427	22618
841.564	22645
841.701	22527
841.838	22447
841.975	22561
842.112	22596
842.249	22489
842.385	22280
842.522	22622
842.659	22344
842.796	22356
842.933	22303
843.069	22215
843.206	22356
843.343	22478
843.479	22432
843.616	22375
843.752	22280
843.889	22063
844.025	22196
844.162	22135
844.298	22211
844.435	22074
844.571	22006
844.708	22139
844.844	22226
844.98	22265
845.117	22162
845.253	22109
845.389	21941
845.525	21972
845.661	21972
845.798	21899
845.934	21861
846.07	21842
846.206	21922
846.342	21964
846.478	21899
846.614	21701
846.75	21462
846.886	21428
847.022	21622
847.158	21599
847.294	21705
847.429	21545
847.565	21644
847.701	21892
847.837	21298
847.972	21279
848.108	21340
848.244	21420
848.379	21294
848.515	21199
848.65	21226
848.786	21150
848.921	21287
849.057	21287
849.192	21260
849.328	21222
849.463	21272
849.598	21127
849.734	21081
849.869	20990
850.004	20986
850.14	20967
850.275	20952
850.41	20849
850.545	20918
850.68	20990
850.815	20880
850.95	20887
851.085	21138
851.22	21001
851.355	20979
851.49	21032
851.625	20982
851.76	20937
851.895	20876
852.03	20861
852.165	20895
852.299	20956
852.434	21047
852.569	20979
852.703	20956
852.838	21024
852.973	21089
853.107	21077
853.242	20952
853.376	20773
853.511	20575
853.645	20731
853.78	20830
853.914	20868
854.048	20804
854.183	20678
854.317	20762
854.451	21058
854.585	20902
854.72	20750
854.854	20948
854.988	20792
855.122	20830
855.256	20785
855.39	20689
855.524	20883
855.658	20868
855.792	20849
855.926	20754
856.06	20800
856.194	20754
856.327	20625
856.461	20765
856.595	20762
856.729	20796
856.862	20864
856.996	20811
857.13	20785
857.263	20792
857.397	21028
857.53	20750
857.664	20838
857.797	20727
857.931	20883
858.064	20792
858.197	20910
858.331	20697
858.464	20750
858.597	20697
858.731	20792
858.864	20773
858.997	20819
859.13	20686
859.263	20788
859.396	20918
859.529	20807
859.662	20731
859.795	20724
859.928	20826
860.061	21036
860.194	21047
860.327	20960
860.46	20804
860.592	20967
860.725	21131
860.858	21013
860.99	20769
861.123	20720
861.256	20830
861.388	20765
861.521	21386
861.653	20636
861.786	20530
861.918	20495
862.05	20667
862.183	20689
862.315	20785
862.447	20773
862.58	20682
862.712	20469
862.844	20469
862.976	20613
863.108	20530
863.24	21001
863.372	20537
863.504	20571
863.636	20465
863.768	20575
863.9	20514
864.032	20355
864.164	20385
864.296	20526
864.428	20552
864.559	20621
864.691	20473
864.823	20495
864.954	20541
865.086	20431
865.217	20309
865.349	20282
865.48	20358
865.612	20412
865.743	20564
865.875	20438
866.006	20427
866.137	20381
866.269	20317
866.4	20385
866.531	20389
866.662	20332
866.793	20278
866.924	20404
867.055	20450
867.186	20309
867.317	20351
867.448	20294
867.579	20393
867.71	20332
867.841	20240
867.972	20313
868.103	20309
868.233	20404
868.364	20301
868.495	20446
868.625	20457
868.756	20693
868.886	20476
869.017	20579
869.147	20632
869.278	20720
869.408	20579
869.539	20560
869.669	20590
869.799	20701
869.929	20708
870.06	20629
870.19	20906
870.32	20853
870.45	20891
870.58	20941
870.71	21123
870.84	21074
870.97	20948
871.1	20963
871.23	21157
871.36	21169
871.489	21013
871.619	21135
871.749	21112
871.879	21321
872.008	21195
872.138	21313
872.267	21131
872.397	21070
872.526	20921
872.656	21024
872.785	21020
872.915	21211
873.044	21241
873.173	21237
873.303	21218
873.432	21241
873.561	21264
873.69	21222
873.819	21180
873.948	21291
874.077	21325
874.206	21066
874.335	21218
874.464	21317
874.593	21473
874.722	21294
874.851	21401
874.979	21412
875.108	21568
875.237	21492
875.365	21351
875.494	21329
875.623	21553
875.751	21466
875.88	21405
876.008	21717
876.136	21728
876.265	21842
876.393	21983
876.521	21861
876.65	21911
876.778	21937
876.906	21846
877.034	21823
877.162	21747
877.29	21808
877.418	21755
877.546	21778
877.674	21808
877.802	21785
877.93	21759
878.058	21686
878.185	21667
878.313	21808
878.441	21682
878.568	21629
878.696	21667
878.824	21778
878.951	21918
879.079	21907
879.206	22124
879.333	21899
879.461	21869
879.588	21797
879.715	22017
879.842	22002
879.97	21850
880.097	21682
880.224	21591
880.351	21694
880.478	21648
880.605	21648
880.732	21701
880.859	21827
880.986	21599
881.112	21667
881.239	21428
881.366	21370
881.493	21310
881.619	21222
881.746	21214
881.872	21230
881.999	21199
882.125	21176
882.252	21283
882.378	21176
882.505	21245
882.631	21055
882.757	20853
882.883	21017
883.01	20838
883.136	20880
883.262	20796
883.388	20769
883.514	20880
883.64	20902
883.766	20826
883.892	20606
884.018	20777
884.143	20895
884.269	20826
884.395	20655
884.52	20537
884.646	20564
884.772	20488
884.897	20549
885.023	20594
885.148	20663
885.274	20807
885.399	20678
885.524	20575
885.65	20552
885.775	20644
885.9	20438
886.025	20640
886.15	20621
886.275	20583
886.4	20495
886.525	20564
886.65	20465
886.775	20454
886.9	20629
887.025	20750
887.149	20552
887.274	20301
887.399	20332
887.523	20305
887.648	20199
887.773	20256
887.897	20400
888.021	20374
888.146	20263
888.27	20366
888.395	20457
888.519	20389
888.643	20374
888.767	20351
888.891	20240
889.015	20103
889.139	20221
889.263	20096
889.387	20233
889.511	20358
889.635	20282
889.759	20035
889.883	20027
890.006	20122
890.13	20142
890.254	20043
890.377	20050
890.501	19841
890.624	19776
890.748	19963
890.871	19807
890.995	19727
891.118	19696
891.241	19830
891.364	19655
891.488	19917
891.611	19704
891.734	19700
891.857	19616
891.98	19666
892.103	19681
892.226	19746
892.349	19704
892.471	19502
892.594	19662
892.717	19700
892.839	19624
892.962	19548
893.085	19708
893.207	19514
893.33	19662
893.452	19590
893.575	19693
893.697	19582
893.819	19780
893.941	19776
894.064	19849
894.186	19540
894.308	19537
894.43	19719
894.552	19689
894.674	19696
894.796	19556
894.918	19639
895.04	19613
895.161	19616
895.283	19670
895.405	19624
895.526	19567
895.648	19632
895.769	19708
895.891	19700
896.012	19708
896.134	19715
896.255	19609
896.376	19582
896.498	19613
896.619	19731
896.74	19624
896.861	19658
896.982	19860
897.103	20005
897.224	19807
897.345	19814
897.466	19734
897.587	19803
897.708	20024
897.828	19944
897.949	19727
898.07	19689
898.19	19788
898.311	19879
898.431	19864
898.552	19947
898.672	19868
898.792	19921
898.913	19890
899.033	19696
899.153	19666
899.273	19594
899.393	19655
899.513	19613
899.633	19647
899.753	19624
899.873	19544
899.993	19575
900.113	19628
900.232	19651
900.352	19438
900.472	19438
900.591	19259
900.711	19396
900.83	19274
900.95	19506
901.069	19476
901.189	19194
901.308	19019
901.427	19031
901.546	19027
901.665	19080
901.784	18913
901.904	18928
902.023	18688
902.141	18570
902.26	18490
902.379	18654
902.498	18582
902.617	18544
902.735	18551
902.854	18429
902.973	18414
903.091	18201
903.21	18182
903.328	18163
903.446	18087
903.565	17946
903.683	17942
903.801	17927
903.919	17961
904.038	17927
904.156	17764
904.274	17897
904.392	17684
904.51	17813
904.627	17779
904.745	17699
904.863	17657
904.981	17463
905.098	17532
905.216	17433
905.334	17459
905.451	17376
905.569	17425
905.686	17436
905.803	17448
905.921	17220
906.038	17284
906.155	17124
906.272	17113
906.389	17052
906.506	16965
906.623	17067
906.74	17033
906.857	16866
906.974	16889
907.091	16938
907.208	17155
907.324	16942
907.441	16850
907.557	16729
907.674	16622
907.79	16698
907.907	16622
908.023	16744
908.139	16706
908.256	16694
908.372	16622
908.488	16672
908.604	16402
908.72	16432
908.836	16375
908.952	16394
909.068	16421
909.184	16535
909.3	16424
909.415	16481
909.531	16318
909.647	16177
909.762	16185
909.878	16074
909.993	16139
910.108	16097
910.224	16044
910.339	16093
910.454	16044
910.57	15945
910.685	15884
910.8	16215
910.915	16093
911.03	15968
911.145	15823
911.259	15759
911.374	15739
911.489	15545
911.604	15720
911.718	15511
911.833	15568
911.947	15504
912.062	15397
912.176	15526
912.291	15473
912.405	15606
912.519	15751
912.633	15637
912.748	15545
912.862	15462
912.976	15332
913.09	15085
913.204	15291
913.318	15249
913.431	15313
913.545	15313
913.659	15397
913.772	15272
913.886	15184
914	15100
914.113	15154
914.226	15306
914.34	15154
914.453	14925
914.566	15203
914.68	15066
914.793	15032
914.906	14735
915.019	14708
915.132	14648
915.245	14746
915.358	14727
915.47	14815
915.583	14689
915.696	14750
915.809	14727
915.921	14811
916.034	14743
916.146	14701
916.259	14629
916.371	14716
916.483	14758
916.595	14610
916.708	14495
916.82	14568
916.932	14537
917.044	14560
917.156	14454
917.268	14377
917.38	14404
917.491	14484
917.603	14423
917.715	14450
917.826	14419
917.938	14454
918.049	14358
918.161	14233
918.272	14415
918.384	14476
918.495	14328
918.606	14225
918.717	14191
918.828	14221
918.939	14202
919.05	14172
919.161	14187
919.272	13936
919.383	14107
919.494	14183
919.604	14328
919.715	14221
919.826	14012
919.936	14046
920.047	14157
920.157	14043
920.267	14358
920.378	14149
920.488	14027
920.598	14267
920.708	14431
920.818	14324
920.928	14301
921.038	14415
921.148	14320
921.258	14107
921.368	14058
921.477	13989
921.587	13921
921.697	13712
921.806	13940
921.916	13712
922.025	13578
922.134	13556
922.244	13476
922.353	13666
922.462	13453
922.571	13346
922.68	13187
922.789	13168
922.898	13217
923.007	13149
923.116	13225
923.224	13057
923.333	13206
923.442	13038
923.55	13069
923.659	12973
923.767	13095
923.876	13034
923.984	12993
924.092	12882
924.201	12932
924.309	12909
924.417	12947
924.525	12878
924.633	12894
924.741	13746
924.849	12654
924.956	12753
925.064	12639
925.172	12623
925.279	12608
925.387	12593
925.494	12627
925.602	12722
925.709	12692
925.816	12570
925.924	12593
926.031	12696
926.138	12582
926.245	12608
926.352	12464
926.459	12585
926.566	12642
926.673	12551
926.779	12342
926.886	12289
926.993	12213
927.099	12262
927.206	12197
927.312	12148
927.419	12194
927.525	12114
927.631	12060
927.737	12011
927.843	12003
927.95	11973
928.056	12011
928.162	11984
928.267	12026
928.373	12696
928.479	12060
928.585	11942
928.69	11969
928.796	12003
928.901	11840
929.007	11718
929.112	11882
929.218	11863
929.323	11756
929.428	11665
929.533	11882
929.638	11771
929.743	11710
929.848	11703
929.953	11691
930.058	11566
930.163	11425
930.267	11505
930.372	11528
930.477	11410
930.581	11627
930.685	11524
930.79	11280
930.894	11376
930.998	11269
931.103	11433
931.207	11147
931.311	10999
931.415	10953
931.519	10759
931.623	10691
