Data from test_V78500241_2873.txt Node
Date: Fri Mar 25 15:29:51 CST 2022
User: usil
Spectrometer: V785-0024
Trigger mode: 0
Integration Time (sec): 4.000000E-1
Scans to average: 1
Nonlinearity correction enabled: false
Boxcar width: 0
Storing dark spectrum: false
XAxis mode: Wavelengths
Number of Pixels in Spectrum: 1024
>>>>>Begin Spectral Data<<<<<
801.071	27203
801.214	27127
801.356	26845
801.499	26815
801.641	26701
801.783	26632
801.926	26880
802.068	26701
802.211	26670
802.353	26663
802.496	26492
802.638	26370
802.78	26248
802.923	26164
803.065	26309
803.208	26286
803.35	26355
803.492	26408
803.635	26571
803.777	26419
803.919	26541
804.061	26796
804.204	26648
804.346	26488
804.488	26419
804.63	26511
804.773	26469
804.915	26564
805.057	26541
805.199	26518
805.341	26461
805.483	26724
805.626	26750
805.768	26499
805.91	26469
806.052	26583
806.194	26530
806.336	26697
806.478	26613
806.62	26514
806.762	26663
806.904	26899
807.046	27241
807.188	27051
807.33	27123
807.472	27138
807.614	27066
807.756	26944
807.898	26777
808.04	26891
808.182	26906
808.324	26899
808.465	26830
808.607	27055
808.749	27226
808.891	27367
809.033	27496
809.174	27313
809.316	27207
809.458	27203
809.6	27150
809.741	27279
809.883	27268
810.025	27511
810.166	27591
810.308	27485
810.45	27351
810.591	27485
810.733	27408
810.875	27302
811.016	27077
811.158	27241
811.299	27355
811.441	27466
811.582	27416
811.724	27386
811.865	27192
812.007	27203
812.148	27176
812.29	27230
812.431	27401
812.573	27583
812.714	27492
812.855	27698
812.997	27732
813.138	27785
813.279	27812
813.421	27641
813.562	27648
813.703	27275
813.845	27408
813.986	27173
814.127	27135
814.268	26883
814.41	26864
814.551	26819
814.692	27024
814.833	26800
814.974	26845
815.115	26861
815.256	26693
815.397	26731
815.539	26830
815.68	26769
815.821	26549
815.962	26644
816.103	26674
816.244	26571
816.385	26358
816.526	26457
816.666	26237
816.807	26119
816.948	26256
817.089	26309
817.23	26252
817.371	26187
817.512	26073
817.653	26119
817.793	26073
817.934	26157
818.075	26233
818.216	26187
818.356	26115
818.497	25982
818.638	25925
818.778	25906
818.919	25906
819.06	26050
819.2	26020
819.341	26145
819.481	26138
819.622	26225
819.762	26514
819.903	26336
820.043	26351
820.184	26286
820.324	26358
820.465	26210
820.605	26225
820.746	26233
820.886	26103
821.026	26221
821.167	26263
821.307	26199
821.447	26176
821.588	26062
821.728	25978
821.868	25712
822.008	25677
822.149	25670
822.289	25537
822.429	25388
822.569	25285
822.709	25362
822.849	24989
822.99	25137
823.13	25225
823.27	25095
823.41	24897
823.55	24924
823.69	24817
823.83	24817
823.97	24730
824.11	24681
824.25	24661
824.389	24639
824.529	24833
824.669	24711
824.809	24795
824.949	24848
825.089	24745
825.228	24719
825.368	24642
825.508	24475
825.648	24608
825.787	24589
825.927	24700
826.067	24684
826.206	24601
826.346	24540
826.485	24544
826.625	24658
826.765	24692
826.904	24688
827.044	24330
827.183	24289
827.323	24247
827.462	24361
827.601	24201
827.741	24304
827.88	24289
828.02	24148
828.159	24251
828.298	24235
828.437	24308
828.577	24323
828.716	24300
828.855	24167
828.994	23916
829.134	24091
829.273	24045
829.412	23927
829.551	23855
829.69	24034
829.829	23965
829.968	24201
830.107	24091
830.246	24038
830.385	23912
830.524	23863
830.663	23946
830.802	23642
830.941	23653
831.08	23592
831.219	23627
831.357	23649
831.496	23828
831.635	23627
831.774	23531
831.913	23376
832.051	23356
832.19	23330
832.329	23512
832.467	23372
832.606	23193
832.744	23216
832.883	23246
833.022	23185
833.16	23395
833.299	23337
833.437	23368
833.576	23387
833.714	23326
833.852	23303
833.991	23406
834.129	23292
834.267	23368
834.406	23383
834.544	23376
834.682	23223
834.821	23414
834.959	23455
835.097	23376
835.235	23353
835.373	23315
835.511	23334
835.65	23208
835.788	23178
835.926	22987
836.064	22923
836.202	23010
836.34	23155
836.478	23200
836.615	23102
836.753	23064
836.891	23208
837.029	23136
837.167	23048
837.305	23128
837.443	23052
837.58	23025
837.718	23071
837.856	23098
837.993	23006
838.131	22957
838.269	22938
838.406	23018
838.544	22790
838.681	22626
838.819	22611
838.956	22455
839.094	22500
839.231	22531
839.369	22599
839.506	22869
839.643	22778
839.781	22618
839.918	22360
840.055	22379
840.193	22367
840.33	22356
840.467	22409
840.604	22428
840.742	22675
840.879	22394
841.016	22413
841.153	22284
841.29	22421
841.427	22375
841.564	22455
841.701	22443
841.838	22455
841.975	22177
842.112	22272
842.249	22291
842.385	22207
842.522	22424
842.659	22253
842.796	22044
842.933	22200
843.069	22082
843.206	22101
843.343	22204
843.479	22196
843.616	22204
843.752	21930
843.889	21915
844.025	22097
844.162	22017
844.298	21949
844.435	21838
844.571	21918
844.708	21987
844.844	21953
844.98	21956
845.117	22013
845.253	21941
845.389	21880
845.525	21770
845.661	21884
845.798	21614
845.934	21648
846.07	21568
846.206	21652
846.342	21743
846.478	21641
846.614	21561
846.75	21443
846.886	21504
847.022	21492
847.158	21534
847.294	21355
847.429	21466
847.565	21306
847.701	21690
847.837	21119
847.972	21154
848.108	21184
848.244	21203
848.379	20952
848.515	20986
848.65	21001
848.786	20990
848.921	21013
849.057	21104
849.192	21070
849.328	20944
849.463	21013
849.598	20998
849.734	20941
849.869	20902
850.004	20716
850.14	20739
850.275	20773
850.41	20625
850.545	20568
850.68	20731
850.815	20769
850.95	20765
851.085	20937
851.22	20910
851.355	20765
851.49	20762
851.625	20678
851.76	20769
851.895	20708
852.03	20617
852.165	20689
852.299	20754
852.434	20849
852.569	20708
852.703	20705
852.838	20773
852.973	20777
853.107	20857
853.242	20777
853.376	20659
853.511	20571
853.645	20450
853.78	20674
853.914	20613
854.048	20514
854.183	20511
854.317	20594
854.451	20792
854.585	20613
854.72	20568
854.854	20655
854.988	20522
855.122	20575
855.256	20408
855.39	20541
855.524	20609
855.658	20621
855.792	20636
855.926	20648
856.06	20632
856.194	20716
856.327	20613
856.461	20629
856.595	20621
856.729	20587
856.862	20739
856.996	20583
857.13	20697
857.263	20636
857.397	20617
857.53	20579
857.664	20640
857.797	20644
857.931	20785
858.064	20651
858.197	20712
858.331	20507
858.464	20583
858.597	20412
858.731	20579
858.864	20590
858.997	20442
859.13	20522
859.263	20606
859.396	20663
859.529	20594
859.662	20549
859.795	20575
859.928	20693
860.061	20602
860.194	20800
860.327	20629
860.46	20571
860.592	20769
860.725	20788
860.858	20625
860.99	20549
861.123	20488
861.256	20514
861.388	20499
861.521	21218
861.653	20343
861.786	20374
861.918	20419
862.05	20484
862.183	20594
862.315	20552
862.447	20632
862.58	20545
862.712	20324
862.844	20256
862.976	20461
863.108	20404
863.24	20815
863.372	20339
863.504	20305
863.636	20324
863.768	20317
863.9	20237
864.032	20168
864.164	20218
864.296	20431
864.428	20514
864.559	20457
864.691	20415
864.823	20393
864.954	20259
865.086	20263
865.217	20233
865.349	20069
865.48	20111
865.612	20183
865.743	20366
865.875	20191
866.006	20218
866.137	20271
866.269	20240
866.4	20271
866.531	20100
866.662	20187
866.793	20199
866.924	20180
867.055	20145
867.186	20202
867.317	20153
867.448	19974
867.579	20259
867.71	20183
867.841	20058
867.972	20050
868.103	20111
868.233	20119
868.364	20195
868.495	20214
868.625	20301
868.756	20533
868.886	20377
869.017	20377
869.147	20427
869.278	20427
869.408	20400
869.539	20298
869.669	20488
869.799	20480
869.929	20442
870.06	20469
870.19	20625
870.32	20613
870.45	20701
870.58	20880
870.71	20819
870.84	20979
870.97	20640
871.1	20849
871.23	21036
871.36	21032
871.489	20883
871.619	21093
871.749	20891
871.879	21169
872.008	21127
872.138	20975
872.267	21024
872.397	20986
872.526	20895
872.656	20845
872.785	20838
872.915	21017
873.044	21051
873.173	21017
873.303	21032
873.432	21138
873.561	21112
873.69	21009
873.819	21089
873.948	21096
874.077	20937
874.206	21028
874.335	20975
874.464	21142
874.593	21260
874.722	21192
874.851	21329
874.979	21252
875.108	21218
875.237	21188
875.365	21184
875.494	21184
875.623	21302
875.751	21287
875.88	21245
876.008	21359
876.136	21439
876.265	21739
876.393	21819
876.521	21717
876.65	21717
876.778	21671
876.906	21690
877.034	21591
877.162	21568
877.29	21629
877.418	21568
877.546	21614
877.674	21614
877.802	21610
877.93	21622
878.058	21538
878.185	21454
878.313	21454
878.441	21603
878.568	21447
878.696	21663
878.824	21485
878.951	21717
879.079	21842
879.206	21831
879.333	21755
879.461	21580
879.588	21720
879.715	21781
879.842	21876
879.97	21667
880.097	21496
880.224	21443
880.351	21496
880.478	21485
880.605	21424
880.732	21397
880.859	21675
880.986	21610
881.112	21462
881.239	21310
881.366	21192
881.493	21051
881.619	21108
881.746	21081
881.872	21074
881.999	21001
882.125	20963
882.252	21005
882.378	20960
882.505	21138
882.631	20941
882.757	20674
882.883	20842
883.01	20674
883.136	20670
883.262	20514
883.388	20587
883.514	20682
883.64	20895
883.766	20590
883.892	20590
884.018	20522
884.143	20689
884.269	20720
884.395	20488
884.52	20366
884.646	20381
884.772	20324
884.897	20244
885.023	20419
885.148	20404
885.274	20568
885.399	20446
885.524	20278
885.65	20469
885.775	20328
885.9	20278
886.025	20560
886.15	20454
886.275	20240
886.4	20298
886.525	20336
886.65	20313
886.775	20271
886.9	20347
887.025	20499
887.149	20374
887.274	20122
887.399	20172
887.523	20054
887.648	20046
887.773	20046
887.897	20069
888.021	20221
888.146	20161
888.27	20221
888.395	20214
888.519	20233
888.643	20153
888.767	20153
888.891	20043
889.015	20077
889.139	20043
889.263	19841
889.387	20043
889.511	20103
889.635	20001
889.759	19860
889.883	19856
890.006	20077
890.13	20054
890.254	19833
890.377	19875
890.501	19700
890.624	19651
890.748	19849
890.871	19582
890.995	19460
891.118	19556
891.241	19438
891.364	19396
891.488	19616
891.611	19563
891.734	19518
891.857	19575
891.98	19521
892.103	19559
892.226	19377
892.349	19343
892.471	19468
892.594	19415
892.717	19358
892.839	19438
892.962	19476
893.085	19502
893.207	19381
893.33	19289
893.452	19415
893.575	19430
893.697	19403
893.819	19586
893.941	19616
894.064	19677
894.186	19377
894.308	19392
894.43	19445
894.552	19548
894.674	19544
894.796	19335
894.918	19480
895.04	19430
895.161	19616
895.283	19518
895.405	19400
895.526	19403
895.648	19422
895.769	19445
895.891	19483
896.012	19601
896.134	19430
896.255	19445
896.376	19438
896.498	19320
896.619	19529
896.74	19422
896.861	19495
896.982	19837
897.103	19864
897.224	19784
897.345	19620
897.466	19628
897.587	19727
897.708	19811
897.828	19791
897.949	19734
898.07	19552
898.19	19670
898.311	19917
898.431	19491
898.552	19662
898.672	19704
898.792	19852
898.913	19734
899.033	19605
899.153	19540
899.273	19506
899.393	19537
899.513	19567
899.633	19419
899.753	19445
899.873	19441
899.993	19430
900.113	19377
900.232	19434
900.352	19403
900.472	19282
900.591	19331
900.711	19171
900.83	19202
900.95	19266
901.069	19381
901.189	19202
901.308	18973
901.427	18833
901.546	18825
901.665	18958
901.784	18856
901.904	18665
902.023	18612
902.141	18414
902.26	18384
902.379	18433
902.498	18502
902.617	18372
902.735	18448
902.854	18315
902.973	18315
903.091	18030
903.21	17977
903.328	18194
903.446	17942
903.565	17866
903.683	17821
903.801	17798
903.919	17764
904.038	17813
904.156	17764
904.274	17668
904.392	17596
904.51	17604
904.627	17703
904.745	17691
904.863	17577
904.981	17395
905.098	17166
905.216	17376
905.334	17398
905.451	17337
905.569	17280
905.686	17334
905.803	17242
905.921	17151
906.038	17143
906.155	17086
906.272	17010
906.389	17010
906.506	16816
906.623	16843
906.74	16938
906.857	16740
906.974	16687
907.091	16915
907.208	17037
907.324	16866
907.441	16694
907.557	16599
907.674	16478
907.79	16535
907.907	16489
908.023	16561
908.139	16580
908.256	16569
908.372	16428
908.488	16398
908.604	16360
908.72	16196
908.836	16303
908.952	16211
909.068	16230
909.184	16417
909.3	16310
909.415	16287
909.531	16249
909.647	16006
909.762	16150
909.878	16010
909.993	15998
910.108	15987
910.224	15915
910.339	15960
910.454	15850
910.57	15861
910.685	15644
910.8	15994
910.915	15991
911.03	15766
911.145	15599
911.259	15515
911.374	15587
911.489	15500
911.604	15549
911.718	15348
911.833	15412
911.947	15283
912.062	15146
912.176	15336
912.291	15389
912.405	15340
912.519	15606
912.633	15603
912.748	15317
912.862	15272
912.976	15272
913.09	14990
913.204	15233
913.318	15146
913.431	15332
913.545	15256
913.659	15245
913.772	15085
913.886	15017
914	14891
914.113	15024
914.226	15146
914.34	14971
914.453	14899
914.566	15085
914.68	14910
914.793	14880
914.906	14724
915.019	14651
915.132	14537
915.245	14648
915.358	14556
915.47	14610
915.583	14651
915.696	14640
915.809	14720
915.921	14708
916.034	14549
916.146	14617
916.259	14469
916.371	14575
916.483	14530
916.595	14427
916.708	14454
916.82	14415
916.932	14461
917.044	14355
917.156	14385
917.268	14286
917.38	14282
917.491	14275
917.603	14351
917.715	14313
917.826	14370
917.938	14164
918.049	14100
918.161	14233
918.272	14427
918.384	14351
918.495	14088
918.606	14088
918.717	14046
918.828	14130
918.939	14149
919.05	13909
919.161	13970
919.272	13776
919.383	13841
919.494	14130
919.604	14240
919.715	14077
919.826	13963
919.936	14001
920.047	14065
920.157	13970
920.267	14248
920.378	14024
920.488	13974
920.598	14130
920.708	14298
920.818	14248
920.928	14115
921.038	14267
921.148	14244
921.258	13902
921.368	13856
921.477	13902
921.587	13860
921.697	13677
921.806	13746
921.916	13605
922.025	13476
922.134	13419
922.244	13331
922.353	13460
922.462	13312
922.571	13255
922.68	13107
922.789	13076
922.898	13065
923.007	13050
923.116	12996
923.224	13091
923.333	13080
923.442	12886
923.55	12791
923.659	12928
923.767	12973
923.876	12951
923.984	12848
924.092	12757
924.201	12806
924.309	12795
924.417	12859
924.525	12768
924.633	12817
924.741	13704
924.849	12486
924.956	12764
925.064	12540
925.172	12486
925.279	12475
925.387	12509
925.494	12566
925.602	12585
925.709	12547
925.816	12471
925.924	12422
926.031	12582
926.138	12486
926.245	12536
926.352	12346
926.459	12494
926.566	12563
926.673	12346
926.779	12338
926.886	12289
926.993	12159
927.099	12163
927.206	12038
927.312	12053
927.419	12148
927.525	12076
927.631	12106
927.737	11984
927.843	11954
927.95	11813
928.056	12003
928.162	12030
928.267	12011
928.373	12448
928.479	11893
928.585	11790
928.69	11859
928.796	11893
928.901	11764
929.007	11722
929.112	11737
929.218	11767
929.323	11733
929.428	11699
929.533	11722
929.638	11543
929.743	11585
929.848	11630
929.953	11596
930.058	11516
930.163	11372
930.267	11364
930.372	11452
930.477	11414
930.581	11535
930.685	11345
930.79	11181
930.894	11273
930.998	11197
931.103	11391
931.207	11060
931.311	10972
931.415	10847
931.519	10641
931.623	10596
