Data from test_V78500241_1615.txt Node
Date: Fri Mar 25 15:21:06 CST 2022
User: usil
Spectrometer: V785-0024
Trigger mode: 0
Integration Time (sec): 4.000000E-1
Scans to average: 1
Nonlinearity correction enabled: false
Boxcar width: 0
Storing dark spectrum: false
XAxis mode: Wavelengths
Number of Pixels in Spectrum: 1024
>>>>>Begin Spectral Data<<<<<
801.071	27861
801.214	27713
801.356	27538
801.499	27576
801.641	27336
801.783	27207
801.926	27218
802.068	27306
802.211	27211
802.353	27252
802.496	27036
802.638	27020
802.78	27024
802.923	26895
803.065	26918
803.208	26864
803.35	27085
803.492	27104
803.635	27074
803.777	27009
803.919	27249
804.061	27507
804.204	27252
804.346	27226
804.488	27119
804.63	27135
804.773	27245
804.915	27108
805.057	27279
805.199	27180
805.341	27252
805.483	27329
805.626	27359
805.768	27096
805.91	27374
806.052	27256
806.194	27336
806.336	27427
806.478	27294
806.62	27256
806.762	27408
806.904	27443
807.046	27701
807.188	27823
807.33	27690
807.472	27800
807.614	27500
807.756	27720
807.898	27603
808.04	27534
808.182	27564
808.324	27694
808.465	27606
808.607	27762
808.749	27968
808.891	28044
809.033	27975
809.174	27998
809.316	27789
809.458	27937
809.6	27854
809.741	27964
809.883	28112
810.025	28169
810.166	28158
810.308	28219
810.45	28306
810.591	28249
810.733	28036
810.875	27941
811.016	27739
811.158	27873
811.299	27926
811.441	27979
811.582	28211
811.724	27854
811.865	27884
812.007	27998
812.148	27964
812.29	27926
812.431	28131
812.573	28204
812.714	28303
812.855	28474
812.997	28497
813.138	28645
813.279	28653
813.421	28497
813.562	28497
813.703	28291
813.845	28215
813.986	27911
814.127	27831
814.268	27660
814.41	27739
814.551	27530
814.692	27633
814.833	27549
814.974	27568
815.115	27751
815.256	27496
815.397	27481
815.539	27515
815.68	27416
815.821	27275
815.962	27298
816.103	27466
816.244	27332
816.385	27256
816.526	27184
816.666	26933
816.807	26705
816.948	27043
817.089	26948
817.23	26925
817.371	26895
817.512	26944
817.653	26853
817.793	26925
817.934	26811
818.075	26891
818.216	26975
818.356	26883
818.497	26853
818.638	26590
818.778	26796
818.919	26720
819.06	26644
819.2	26758
819.341	26902
819.481	26880
819.622	27066
819.762	27119
819.903	27180
820.043	27074
820.184	26960
820.324	27074
820.465	27135
820.605	26994
820.746	26982
820.886	26788
821.026	27112
821.167	26830
821.307	27127
821.447	26921
821.588	26819
821.728	26689
821.868	26457
822.008	26450
822.149	26415
822.289	26332
822.429	25951
822.569	26005
822.709	26027
822.849	25917
822.99	25932
823.13	25818
823.27	25799
823.41	25624
823.55	25518
823.69	25681
823.83	25837
823.97	25628
824.11	25491
824.25	25396
824.389	25613
824.529	25632
824.669	25571
824.809	25765
824.949	25464
825.089	25620
825.228	25556
825.368	25441
825.508	25384
825.648	25400
825.787	25320
825.927	25438
826.067	25263
826.206	25396
826.346	25453
826.485	25483
826.625	25362
826.765	25419
826.904	25483
827.044	25187
827.183	25274
827.323	25118
827.462	25187
827.601	25213
827.741	25042
827.88	25065
828.02	24981
828.159	25084
828.298	25164
828.437	25114
828.577	25114
828.716	25244
828.855	24951
828.994	24768
829.134	24795
829.273	24875
829.412	24783
829.551	24700
829.69	24825
829.829	24787
829.968	24935
830.107	24772
830.246	24798
830.385	24783
830.524	24620
830.663	24692
830.802	24445
830.941	24422
831.08	24437
831.219	24460
831.357	24589
831.496	24616
831.635	24418
831.774	24369
831.913	24308
832.051	24201
832.19	24258
832.329	24190
832.467	24102
832.606	24091
832.744	24030
832.883	24030
833.022	24098
833.16	24243
833.299	24011
833.437	24072
833.576	24125
833.714	24125
833.852	24159
833.991	24174
834.129	24038
834.267	24171
834.406	24182
834.544	24266
834.682	24273
834.821	24133
834.959	24285
835.097	24038
835.235	24235
835.373	24201
835.511	24121
835.65	23958
835.788	24038
835.926	23817
836.064	23882
836.202	23912
836.34	24007
836.478	23969
836.615	23824
836.753	23946
836.891	23874
837.029	23901
837.167	23912
837.305	23771
837.443	23859
837.58	23718
837.718	23939
837.856	23870
837.993	23665
838.131	23623
838.269	23642
838.406	23741
838.544	23585
838.681	23566
838.819	23258
838.956	23303
839.094	23185
839.231	23318
839.369	23463
839.506	23551
839.643	23493
839.781	23318
839.918	23231
840.055	23341
840.193	23322
840.33	23140
840.467	23212
840.604	23181
840.742	23376
840.879	23075
841.016	23060
841.153	23189
841.29	23478
841.427	23254
841.564	23124
841.701	23223
841.838	23128
841.975	23029
842.112	23033
842.249	23003
842.385	22911
842.522	23117
842.659	22999
842.796	22930
842.933	22976
843.069	22839
843.206	22824
843.343	23102
843.479	22911
843.616	22999
843.752	22763
843.889	22782
844.025	22847
844.162	22645
844.298	22889
844.435	22767
844.571	22729
844.708	22713
844.844	22946
844.98	22889
845.117	22805
845.253	22573
845.389	22774
845.525	22687
845.661	22668
845.798	22455
845.934	22485
846.07	22398
846.206	22516
846.342	22573
846.478	22516
846.614	22291
846.75	22059
846.886	22261
847.022	22169
847.158	22116
847.294	22219
847.429	22204
847.565	22173
847.701	22402
847.837	21945
847.972	21972
848.108	22044
848.244	21972
848.379	21774
848.515	21549
848.65	21701
848.786	21850
848.921	21698
849.057	21911
849.192	21869
849.328	21941
849.463	21762
849.598	21759
849.734	21587
849.869	21637
850.004	21561
850.14	21538
850.275	21534
850.41	21424
850.545	21439
850.68	21553
850.815	21553
850.95	21447
851.085	21800
851.22	21587
851.355	21629
851.49	21504
851.625	21355
851.76	21500
851.895	21549
852.03	21370
852.165	21523
852.299	21526
852.434	21622
852.569	21526
852.703	21488
852.838	21614
852.973	21698
853.107	21614
853.242	21511
853.376	21439
853.511	21252
853.645	21298
853.78	21458
853.914	21378
854.048	21386
854.183	21340
854.317	21351
854.451	21382
854.585	21443
854.72	21348
854.854	21454
854.988	21233
855.122	21439
855.256	21321
855.39	21378
855.524	21428
855.658	21496
855.792	21431
855.926	21420
856.06	21492
856.194	21542
856.327	21359
856.461	21230
856.595	21439
856.729	21302
856.862	21420
856.996	21485
857.13	21405
857.263	21496
857.397	21477
857.53	21435
857.664	21310
857.797	21454
857.931	21447
858.064	21378
858.197	21545
858.331	21329
858.464	21294
858.597	21302
858.731	21420
858.864	21363
858.997	21298
859.13	21313
859.263	21313
859.396	21424
859.529	21359
859.662	21313
859.795	21199
859.928	21397
860.061	21408
860.194	21515
860.327	21439
860.46	21393
860.592	21580
860.725	21500
860.858	21534
860.99	21447
861.123	21256
861.256	21340
861.388	21287
861.521	22101
861.653	21256
861.786	21093
861.918	21165
862.05	21138
862.183	21245
862.315	21355
862.447	21412
862.58	21332
862.712	21066
862.844	20948
862.976	21192
863.108	21188
863.24	21367
863.372	21005
863.504	21036
863.636	21005
863.768	21211
863.9	20944
864.032	21001
864.164	21100
864.296	21184
864.428	21195
864.559	21112
864.691	21138
864.823	21001
864.954	21070
865.086	21047
865.217	20994
865.349	21005
865.48	20960
865.612	20971
865.743	21150
865.875	21009
866.006	20956
866.137	20994
866.269	21081
866.4	20963
866.531	20834
866.662	20804
866.793	20887
866.924	20895
867.055	20948
867.186	20891
867.317	20777
867.448	20800
867.579	20682
867.71	20743
867.841	20830
867.972	20918
868.103	20902
868.233	20849
868.364	20982
868.495	20834
868.625	21207
868.756	21321
868.886	21017
869.017	21252
869.147	21192
869.278	21135
869.408	21169
869.539	21047
869.669	21173
869.799	21222
869.929	21230
870.06	21317
870.19	21515
870.32	21416
870.45	21511
870.58	21485
870.71	21553
870.84	21564
870.97	21580
871.1	21507
871.23	21781
871.36	21861
871.489	21614
871.619	21720
871.749	21736
871.879	21785
872.008	21717
872.138	21808
872.267	21724
872.397	21587
872.526	21595
872.656	21618
872.785	21572
872.915	21819
873.044	21968
873.173	21682
873.303	21823
873.432	21835
873.561	21804
873.69	21804
873.819	21774
873.948	21793
874.077	21781
874.206	21778
874.335	21618
874.464	21823
874.593	21968
874.722	21975
874.851	22021
874.979	22044
875.108	21968
875.237	21907
875.365	21793
875.494	22013
875.623	21953
875.751	21949
875.88	22090
876.008	22116
876.136	22162
876.265	22436
876.393	22542
876.521	22459
876.65	22405
876.778	22421
876.906	22379
877.034	22409
877.162	22322
877.29	22215
877.418	22394
877.546	22272
877.674	22356
877.802	22257
877.93	22367
878.058	22284
878.185	22257
878.313	22310
878.441	22402
878.568	22147
878.696	22299
878.824	22341
878.951	22470
879.079	22485
879.206	22542
879.333	22500
879.461	22443
879.588	22459
879.715	22546
879.842	22466
879.97	22379
880.097	22109
880.224	22120
880.351	22124
880.478	22116
880.605	22192
880.732	22109
880.859	22253
880.986	22310
881.112	22166
881.239	22082
881.366	21934
881.493	21823
881.619	21701
881.746	21778
881.872	21736
881.999	21739
882.125	21667
882.252	21778
882.378	21690
882.505	21793
882.631	21542
882.757	21488
882.883	21507
883.01	21431
883.136	21344
883.262	21294
883.388	21287
883.514	21443
883.64	21469
883.766	21401
883.892	21222
884.018	21275
884.143	21473
884.269	21500
884.395	21127
884.52	21093
884.646	21119
884.772	21020
884.897	21028
885.023	21028
885.148	21104
885.274	21180
885.399	21161
885.524	21085
885.65	21074
885.775	21154
885.9	20975
886.025	21211
886.15	21131
886.275	21009
886.4	20883
886.525	21055
886.65	21005
886.775	21028
886.9	21150
887.025	21241
887.149	21077
887.274	20746
887.399	20899
887.523	20804
887.648	20655
887.773	20659
887.897	20956
888.021	20948
888.146	20739
888.27	20925
888.395	20826
888.519	20880
888.643	20765
888.767	20834
888.891	20743
889.015	20602
889.139	20868
889.263	20564
889.387	20788
889.511	20857
889.635	20773
889.759	20648
889.883	20735
890.006	20807
890.13	20777
890.254	20564
890.377	20499
890.501	20488
890.624	20328
890.748	20526
890.871	20309
890.995	20210
891.118	20180
891.241	20324
891.364	20195
891.488	20282
891.611	20218
891.734	20119
891.857	20278
891.98	20324
892.103	20336
892.226	20180
892.349	20130
892.471	19997
892.594	20050
892.717	20161
892.839	20126
892.962	20077
893.085	20161
893.207	20008
893.33	19932
893.452	20043
893.575	20214
893.697	20096
893.819	20206
893.941	20339
894.064	20176
894.186	20115
894.308	20081
894.43	20218
894.552	20290
894.674	20191
894.796	20088
894.918	20218
895.04	20008
895.161	20130
895.283	20157
895.405	20084
895.526	20149
895.648	20202
895.769	20164
895.891	20202
896.012	20115
896.134	20138
896.255	20130
896.376	20096
896.498	20153
896.619	20111
896.74	20077
896.861	20153
896.982	20492
897.103	20701
897.224	20336
897.345	20332
897.466	20263
897.587	20351
897.708	20587
897.828	20442
897.949	20389
898.07	20134
898.19	20313
898.311	20408
898.431	20259
898.552	20381
898.672	20347
898.792	20431
898.913	20355
899.033	20195
899.153	20252
899.273	20031
899.393	20126
899.513	20240
899.633	20100
899.753	20115
899.873	20100
899.993	20191
900.113	20027
900.232	20111
900.352	19951
900.472	19997
900.591	19833
900.711	19731
900.83	19837
900.95	20073
901.069	19970
901.189	19761
901.308	19521
901.427	19445
901.546	19419
901.665	19377
901.784	19460
901.904	19350
902.023	19122
902.141	19072
902.26	19027
902.379	19114
902.498	19019
902.617	18916
902.735	19061
902.854	19004
902.973	18852
903.091	18642
903.21	18661
903.328	18616
903.446	18547
903.565	18323
903.683	18547
903.801	18304
903.919	18422
904.038	18399
904.156	18285
904.274	18319
904.392	18197
904.51	18251
904.627	18273
904.745	18235
904.863	18258
904.981	18091
905.098	17897
905.216	17901
905.334	17996
905.451	17878
905.569	17935
905.686	17847
905.803	17958
905.921	17646
906.038	17729
906.155	17775
906.272	17577
906.389	17596
906.506	17433
906.623	17379
906.74	17440
906.857	17265
906.974	17258
907.091	17497
907.208	17467
907.324	17493
907.441	17353
907.557	17174
907.674	17197
907.79	16972
907.907	17083
908.023	17299
908.139	17132
908.256	17033
908.372	17018
908.488	17056
908.604	16854
908.72	16866
908.836	16873
908.952	16934
909.068	16900
909.184	16938
909.3	16805
909.415	16843
909.531	16900
909.647	16603
909.762	16660
909.878	16497
909.993	16542
910.108	16596
910.224	16565
910.339	16527
910.454	16417
910.57	16367
910.685	16299
910.8	16588
910.915	16508
911.03	16379
911.145	16219
911.259	16135
911.374	16143
911.489	16063
911.604	16059
911.718	15922
911.833	15869
911.947	15835
912.062	15709
912.176	15861
912.291	15907
912.405	15861
912.519	16109
912.633	16131
912.748	15892
912.862	15968
912.976	15720
913.09	15561
913.204	15679
913.318	15831
913.431	15918
913.545	15804
913.659	15873
913.772	15728
913.886	15428
914	15553
914.113	15618
914.226	15572
914.34	15519
914.453	15397
914.566	15504
914.68	15401
914.793	15279
914.906	15256
915.019	15119
915.132	15036
915.245	15119
915.358	15195
915.47	15093
915.583	15112
915.696	15116
915.809	15214
915.921	15302
916.034	14994
916.146	15081
916.259	15070
916.371	15104
916.483	15077
916.595	14960
916.708	14895
916.82	15001
916.932	14906
917.044	14891
917.156	14849
917.268	14769
917.38	14769
917.491	14788
917.603	14754
917.715	14861
917.826	14868
917.938	14781
918.049	14492
918.161	14815
918.272	14781
918.384	14762
918.495	14686
918.606	14625
918.717	14442
918.828	14549
918.939	14583
919.05	14438
919.161	14549
919.272	14332
919.383	14355
919.494	14530
919.604	14712
919.715	14598
919.826	14393
919.936	14480
920.047	14731
920.157	14514
920.267	14705
920.378	14499
920.488	14480
920.598	14731
920.708	14899
920.818	14625
920.928	14606
921.038	14826
921.148	14689
921.258	14442
921.368	14286
921.477	14195
921.587	14263
921.697	14130
921.806	14157
921.916	14111
922.025	13986
922.134	13879
922.244	13826
922.353	13902
922.462	13738
922.571	13655
922.68	13491
922.789	13453
922.898	13472
923.007	13426
923.116	13571
923.224	13533
923.333	13449
923.442	13343
923.55	13392
923.659	13301
923.767	13392
923.876	13301
923.984	13388
924.092	13339
924.201	13255
924.309	13198
924.417	13297
924.525	13137
924.633	13152
924.741	14119
924.849	13023
924.956	13038
925.064	12905
925.172	12897
925.279	12882
925.387	12897
925.494	12871
925.602	13031
925.709	12970
925.816	12829
925.924	12894
926.031	13000
926.138	12859
926.245	12852
926.352	12806
926.459	12875
926.566	12909
926.673	12768
926.779	12681
926.886	12707
926.993	12540
927.099	12555
927.206	12475
927.312	12574
927.419	12623
927.525	12441
927.631	12467
927.737	12365
927.843	12399
927.95	12300
928.056	12334
928.162	12330
928.267	12353
928.373	12981
928.479	12391
928.585	12114
928.69	12365
928.796	12342
928.901	12171
929.007	12064
929.112	12251
929.218	12053
929.323	12129
929.428	12049
929.533	12117
929.638	11965
929.743	11996
929.848	12053
929.953	11958
930.058	11923
930.163	11745
930.267	11771
930.372	11904
930.477	11733
930.581	11961
930.685	11707
930.79	11642
930.894	11604
930.998	11524
931.103	11756
931.207	11425
931.311	11307
931.415	11189
931.519	11010
931.623	10934
