Data from test_V78500241_3391.txt Node
Date: Fri Mar 25 15:33:28 CST 2022
User: usil
Spectrometer: V785-0024
Trigger mode: 0
Integration Time (sec): 4.000000E-1
Scans to average: 1
Nonlinearity correction enabled: false
Boxcar width: 0
Storing dark spectrum: false
XAxis mode: Wavelengths
Number of Pixels in Spectrum: 1024
>>>>>Begin Spectral Data<<<<<
801.071	27260
801.214	27150
801.356	26979
801.499	26834
801.641	26739
801.783	26625
801.926	26815
802.068	26724
802.211	26712
802.353	26655
802.496	26533
802.638	26511
802.78	26400
802.923	26267
803.065	26199
803.208	26282
803.35	26427
803.492	26606
803.635	26644
803.777	26495
803.919	26453
804.061	26830
804.204	26575
804.346	26579
804.488	26362
804.63	26480
804.773	26488
804.915	26621
805.057	26545
805.199	26370
805.341	26663
805.483	26773
805.626	26705
805.768	26450
805.91	26594
806.052	26682
806.194	26476
806.336	26804
806.478	26796
806.62	26594
806.762	26743
806.904	26895
807.046	27142
807.188	27135
807.33	27104
807.472	27188
807.614	26853
807.756	27009
807.898	26853
808.04	26937
808.182	26834
808.324	26933
808.465	27043
808.607	27188
808.749	27351
808.891	27397
809.033	27367
809.174	27298
809.316	27207
809.458	27230
809.6	27104
809.741	27351
809.883	27405
810.025	27458
810.166	27382
810.308	27576
810.45	27542
810.591	27386
810.733	27252
810.875	27313
811.016	27062
811.158	27211
811.299	27302
811.441	27351
811.582	27348
811.724	27161
811.865	27188
812.007	27116
812.148	27207
812.29	27256
812.431	27401
812.573	27545
812.714	27599
812.855	27724
812.997	27736
813.138	27914
813.279	27842
813.421	27838
813.562	27816
813.703	27500
813.845	27416
813.986	27138
814.127	26918
814.268	26811
814.41	26849
814.551	26838
814.692	27005
814.833	26883
814.974	26834
815.115	26826
815.256	26697
815.397	26697
815.539	26876
815.68	26689
815.821	26568
815.962	26579
816.103	26743
816.244	26571
816.385	26499
816.526	26492
816.666	26290
816.807	26126
816.948	26103
817.089	26301
817.23	26218
817.371	26088
817.512	26161
817.653	26119
817.793	26149
817.934	26168
818.075	26237
818.216	26081
818.356	26100
818.497	26138
818.638	25868
818.778	25883
818.919	25932
819.06	25921
819.2	25986
819.341	26100
819.481	26092
819.622	26237
819.762	26427
819.903	26549
820.043	26366
820.184	26180
820.324	26358
820.465	26415
820.605	26168
820.746	26183
820.886	26191
821.026	26183
821.167	26107
821.307	26210
821.447	26256
821.588	26043
821.728	25852
821.868	25731
822.008	25681
822.149	25559
822.289	25609
822.429	25369
822.569	25183
822.709	25278
822.849	25187
822.99	25198
823.13	25110
823.27	25126
823.41	24867
823.55	24928
823.69	25046
823.83	24989
823.97	24882
824.11	24757
824.25	24844
824.389	24837
824.529	24802
824.669	24601
824.809	24837
824.949	24707
825.089	24791
825.228	24833
825.368	24608
825.508	24547
825.648	24505
825.787	24547
825.927	24783
826.067	24635
826.206	24700
826.346	24623
826.485	24646
826.625	24646
826.765	24791
826.904	24703
827.044	24365
827.183	24369
827.323	24319
827.462	24505
827.601	24228
827.741	24365
827.88	24350
828.02	24243
828.159	24277
828.298	24277
828.437	24357
828.577	24247
828.716	24509
828.855	24190
828.994	23965
829.134	24098
829.273	24030
829.412	23999
829.551	24007
829.69	23969
829.829	24057
829.968	24076
830.107	24072
830.246	24038
830.385	23950
830.524	23988
830.663	23707
830.802	23779
830.941	23608
831.08	23668
831.219	23779
831.357	23676
831.496	24018
831.635	23627
831.774	23539
831.913	23467
832.051	23486
832.19	23505
832.329	23414
832.467	23303
832.606	23216
832.744	23273
832.883	23326
833.022	23349
833.16	23410
833.299	23296
833.437	23417
833.576	23383
833.714	23360
833.852	23581
833.991	23543
834.129	23531
834.267	23570
834.406	23402
834.544	23250
834.682	23402
834.821	23520
834.959	23528
835.097	23341
835.235	23391
835.373	23467
835.511	23368
835.65	23151
835.788	23379
835.926	23105
836.064	23121
836.202	23239
836.34	23265
836.478	23273
836.615	23265
836.753	23315
836.891	23296
837.029	23307
837.167	23277
837.305	23193
837.443	23098
837.58	23060
837.718	23204
837.856	23090
837.993	23056
838.131	23200
838.269	22968
838.406	22991
838.544	22927
838.681	22698
838.819	22755
838.956	22656
839.094	22447
839.231	22565
839.369	22831
839.506	22976
839.643	22858
839.781	22675
839.918	22580
840.055	22656
840.193	22512
840.33	22447
840.467	22485
840.604	22516
840.742	22721
840.879	22402
841.016	22421
841.153	22402
841.29	22557
841.427	22519
841.564	22485
841.701	22470
841.838	22440
841.975	22531
842.112	22333
842.249	22398
842.385	22303
842.522	22584
842.659	22341
842.796	22272
842.933	22280
843.069	22226
843.206	22169
843.343	22196
843.479	22303
843.616	22337
843.752	22120
843.889	22070
844.025	22234
844.162	22013
844.298	22147
844.435	22002
844.571	21987
844.708	22036
844.844	22158
844.98	22093
845.117	22162
845.253	22078
845.389	21876
845.525	22093
845.661	21911
845.798	21842
845.934	21800
846.07	21816
846.206	21838
846.342	21953
846.478	21728
846.614	21545
846.75	21519
846.886	21515
847.022	21610
847.158	21572
847.294	21553
847.429	21572
847.565	21549
847.701	21713
847.837	21260
847.972	21283
848.108	21260
848.244	21275
848.379	21249
848.515	21108
848.65	21081
848.786	21249
848.921	21207
849.057	21233
849.192	21180
849.328	21192
849.463	21138
849.598	21005
849.734	21104
849.869	21017
850.004	20910
850.14	20933
850.275	20910
850.41	20739
850.545	20762
850.68	20906
850.815	20765
850.95	20842
851.085	21161
851.22	20982
851.355	21039
851.49	20921
851.625	20765
851.76	20853
851.895	20880
852.03	20918
852.165	20910
852.299	20914
852.434	20960
852.569	20986
852.703	20918
852.838	20975
852.973	21131
853.107	21020
853.242	20902
853.376	20609
853.511	20693
853.645	20724
853.78	20830
853.914	20800
854.048	20754
854.183	20705
854.317	20769
854.451	21017
854.585	20834
854.72	20857
854.854	20842
854.988	20609
855.122	20648
855.256	20526
855.39	20670
855.524	20895
855.658	20861
855.792	20724
855.926	20697
856.06	20807
856.194	20880
856.327	20655
856.461	20609
856.595	20727
856.729	20651
856.862	20876
856.996	20800
857.13	20899
857.263	20849
857.397	20777
857.53	20750
857.664	20758
857.797	20819
857.931	20826
858.064	20788
858.197	20819
858.331	20735
858.464	20629
858.597	20663
858.731	20746
858.864	20716
858.997	20792
859.13	20762
859.263	20773
859.396	20781
859.529	20651
859.662	20708
859.795	20617
859.928	20823
860.061	20864
860.194	20998
860.327	20864
860.46	20667
860.592	20872
860.725	20880
860.858	20952
860.99	20754
861.123	20682
861.256	20731
861.388	20754
861.521	21408
861.653	20507
861.786	20480
861.918	20560
862.05	20613
862.183	20689
862.315	20663
862.447	20777
862.58	20613
862.712	20492
862.844	20374
862.976	20545
863.108	20606
863.24	20762
863.372	20381
863.504	20507
863.636	20385
863.768	20389
863.9	20583
864.032	20575
864.164	20533
864.296	20450
864.428	20644
864.559	20545
864.691	20400
864.823	20415
864.954	20621
865.086	20461
865.217	20492
865.349	20221
865.48	20431
865.612	20290
865.743	20351
865.875	20366
866.006	20271
866.137	20332
866.269	20404
866.4	20377
866.531	20328
866.662	20282
866.793	20298
866.924	20278
867.055	20347
867.186	20355
867.317	20256
867.448	20240
867.579	20294
867.71	20229
867.841	20172
867.972	20412
868.103	20282
868.233	20237
868.364	20385
868.495	20328
868.625	20545
868.756	20689
868.886	20461
869.017	20560
869.147	20731
869.278	20682
869.408	20492
869.539	20541
869.669	20674
869.799	20731
869.929	20587
870.06	20674
870.19	20864
870.32	20864
870.45	20944
870.58	20982
870.71	21241
870.84	21093
870.97	20910
871.1	21005
871.23	21161
871.36	21150
871.489	20960
871.619	21093
871.749	21009
871.879	21131
872.008	21230
872.138	21135
872.267	21150
872.397	21081
872.526	21024
872.656	20963
872.785	20979
872.915	21203
873.044	21351
873.173	21245
873.303	21222
873.432	21157
873.561	21226
873.69	21275
873.819	21089
873.948	21378
874.077	21226
874.206	21116
874.335	21169
874.464	21313
874.593	21386
874.722	21428
874.851	21382
874.979	21485
875.108	21496
875.237	21496
875.365	21283
875.494	21542
875.623	21485
875.751	21428
875.88	21496
876.008	21637
876.136	21644
876.265	21823
876.393	21899
876.521	22036
876.65	21892
876.778	21770
876.906	21686
877.034	21835
877.162	21857
877.29	21736
877.418	21812
877.546	21743
877.674	21698
877.802	21713
877.93	21823
878.058	21713
878.185	21637
878.313	21705
878.441	21728
878.568	21633
878.696	21800
878.824	21690
878.951	21842
879.079	21911
879.206	22017
879.333	22025
879.461	21812
879.588	21732
879.715	21972
879.842	22051
879.97	21945
880.097	21614
880.224	21595
880.351	21629
880.478	21576
880.605	21610
880.732	21542
880.859	21857
880.986	21603
881.112	21614
881.239	21420
881.366	21363
881.493	21298
881.619	21192
881.746	21317
881.872	21203
881.999	21157
882.125	21104
882.252	21195
882.378	21032
882.505	21363
882.631	21036
882.757	20845
882.883	21009
883.01	20804
883.136	20777
883.262	20853
883.388	20705
883.514	20823
883.64	20944
883.766	20735
883.892	20590
884.018	20648
884.143	20826
884.269	20830
884.395	20598
884.52	20389
884.646	20571
884.772	20514
884.897	20533
885.023	20499
885.148	20579
885.274	20549
885.399	20773
885.524	20549
885.65	20545
885.775	20575
885.9	20492
886.025	20674
886.15	20594
886.275	20446
886.4	20434
886.525	20476
886.65	20434
886.775	20408
886.9	20579
887.025	20804
887.149	20571
887.274	20434
887.399	20263
887.523	20320
887.648	20252
887.773	20164
887.897	20358
888.021	20366
888.146	20301
888.27	20461
888.395	20396
888.519	20271
888.643	20195
888.767	20278
888.891	20240
889.015	20183
889.139	20149
889.263	20130
889.387	20202
889.511	20275
889.635	20317
889.759	19974
889.883	20035
890.006	20084
890.13	20168
890.254	20142
890.377	20058
890.501	19902
890.624	19788
890.748	19993
890.871	19727
890.995	19674
891.118	19696
891.241	19689
891.364	19784
891.488	19830
891.611	19700
891.734	19677
891.857	19795
891.98	19681
892.103	19689
892.226	19666
892.349	19658
892.471	19582
892.594	19586
892.717	19575
892.839	19651
892.962	19651
893.085	19537
893.207	19586
893.33	19533
893.452	19559
893.575	19563
893.697	19651
893.819	19780
893.941	19753
894.064	19753
894.186	19605
894.308	19563
894.43	19537
894.552	19655
894.674	19799
894.796	19529
894.918	19647
895.04	19582
895.161	19590
895.283	19655
895.405	19590
895.526	19655
895.648	19552
895.769	19670
895.891	19647
896.012	19666
896.134	19700
896.255	19605
896.376	19533
896.498	19601
896.619	19605
896.74	19571
896.861	19750
896.982	19841
897.103	20043
897.224	19932
897.345	19913
897.466	19803
897.587	19795
897.708	19852
897.828	19811
897.949	19830
898.07	19651
898.19	19791
898.311	19909
898.431	19772
898.552	19856
898.672	19852
898.792	20008
898.913	19841
899.033	19856
899.153	19635
899.273	19540
899.393	19575
899.513	19624
899.633	19670
899.753	19601
899.873	19597
899.993	19556
900.113	19502
900.232	19616
900.352	19575
900.472	19487
900.591	19293
900.711	19396
900.83	19316
900.95	19441
901.069	19540
901.189	19335
901.308	19099
901.427	19050
901.546	19000
901.665	18966
901.784	19133
901.904	18825
902.023	18783
902.141	18639
902.26	18559
902.379	18574
902.498	18483
902.617	18509
902.735	18532
902.854	18346
902.973	18357
903.091	18140
903.21	18045
903.328	18140
903.446	18045
903.565	17920
903.683	18060
903.801	17961
903.919	17931
904.038	17798
904.156	17771
904.274	17813
904.392	17779
904.51	17661
904.627	17680
904.745	17798
904.863	17775
904.981	17585
905.098	17463
905.216	17368
905.334	17429
905.451	17452
905.569	17429
905.686	17402
905.803	17421
905.921	17193
906.038	17258
906.155	17151
906.272	17170
906.389	17174
906.506	17075
906.623	16995
906.74	17010
906.857	16767
906.974	16889
907.091	16919
907.208	17056
907.324	17006
907.441	16957
907.557	16771
907.674	16672
907.79	16561
907.907	16702
908.023	16698
908.139	16721
908.256	16561
908.372	16512
908.488	16375
908.604	16508
908.72	16310
908.836	16470
908.952	16333
909.068	16333
909.184	16451
909.3	16382
909.415	16504
909.531	16440
909.647	16143
909.762	16150
909.878	16131
909.993	16074
910.108	16040
910.224	16078
910.339	16055
910.454	16029
910.57	15842
910.685	15778
910.8	16211
910.915	16063
911.03	15945
911.145	15724
911.259	15644
911.374	15720
911.489	15595
911.604	15633
911.718	15450
911.833	15469
911.947	15488
912.062	15321
912.176	15542
912.291	15511
912.405	15412
912.519	15648
912.633	15713
912.748	15443
912.862	15393
912.976	15268
913.09	15154
913.204	15237
913.318	15321
913.431	15412
913.545	15424
913.659	15416
913.772	15211
913.886	15150
914	15074
914.113	15169
914.226	15249
914.34	15085
914.453	14921
914.566	15203
914.68	14956
914.793	15020
914.906	14762
915.019	14758
915.132	14632
915.245	14667
915.358	14746
915.47	14777
915.583	14670
915.696	14670
915.809	14792
915.921	14807
916.034	14606
916.146	14598
916.259	14549
916.371	14720
916.483	14701
916.595	14590
916.708	14571
916.82	14492
916.932	14552
917.044	14530
917.156	14530
917.268	14377
917.38	14370
917.491	14317
917.603	14400
917.715	14469
917.826	14507
917.938	14355
918.049	14172
918.161	14317
918.272	14476
918.384	14419
918.495	14259
918.606	14214
918.717	14119
918.828	14176
918.939	14142
919.05	14035
919.161	14065
919.272	13963
919.383	14020
919.494	14206
919.604	14339
919.715	14164
919.826	14050
919.936	14073
920.047	14294
920.157	14115
920.267	14168
920.378	14187
920.488	14157
920.598	14347
920.708	14404
920.818	14244
920.928	14294
921.038	14400
921.148	14393
921.258	14046
921.368	14020
921.477	13890
921.587	13875
921.697	13753
921.806	13894
921.916	13746
922.025	13567
922.134	13533
922.244	13495
922.353	13521
922.462	13411
922.571	13316
922.68	13110
922.789	13091
922.898	13122
923.007	13118
923.116	13236
923.224	13149
923.333	13023
923.442	13080
923.55	12989
923.659	12973
923.767	13034
923.876	12989
923.984	13008
924.092	12848
924.201	12878
924.309	12951
924.417	12905
924.525	12863
924.633	12814
924.741	13685
924.849	12601
924.956	12848
925.064	12601
925.172	12513
925.279	12525
925.387	12547
925.494	12665
925.602	12715
925.709	12597
925.816	12566
925.924	12483
926.031	12608
926.138	12506
926.245	12547
926.352	12483
926.459	12597
926.566	12540
926.673	12460
926.779	12327
926.886	12372
926.993	12209
927.099	12167
927.206	12091
927.312	12155
927.419	12125
927.525	12136
927.631	12197
927.737	12034
927.843	12019
927.95	11927
928.056	12011
928.162	12034
928.267	12060
928.373	12540
928.479	12144
928.585	11889
928.69	11954
928.796	12011
928.901	11840
929.007	11665
929.112	11824
929.218	11859
929.323	11733
929.428	11676
929.533	11813
929.638	11634
929.743	11676
929.848	11714
929.953	11646
930.058	11592
930.163	11391
930.267	11459
930.372	11566
930.477	11330
930.581	11573
930.685	11433
930.79	11318
930.894	11334
930.998	11273
931.103	11379
931.207	11010
931.311	10980
931.415	10961
931.519	10694
931.623	10694
