Data from test_V78500241_1980.txt Node
Date: Fri Mar 25 15:23:38 CST 2022
User: usil
Spectrometer: V785-0024
Trigger mode: 0
Integration Time (sec): 4.000000E-1
Scans to average: 1
Nonlinearity correction enabled: false
Boxcar width: 0
Storing dark spectrum: false
XAxis mode: Wavelengths
Number of Pixels in Spectrum: 1024
>>>>>Begin Spectral Data<<<<<
801.071	27876
801.214	27759
801.356	27549
801.499	27412
801.641	27378
801.783	27447
801.926	27389
802.068	27332
802.211	27268
802.353	27283
802.496	27154
802.638	26944
802.78	27032
802.923	26902
803.065	26990
803.208	26960
803.35	26842
803.492	27169
803.635	27325
803.777	27074
803.919	27165
804.061	27443
804.204	27348
804.346	27252
804.488	27116
804.63	27173
804.773	26994
804.915	27199
805.057	27351
805.199	27180
805.341	27283
805.483	27466
805.626	27256
805.768	27252
805.91	27439
806.052	27321
806.194	27264
806.336	27416
806.478	27340
806.62	27264
806.762	27439
806.904	27564
807.046	27781
807.188	27724
807.33	27823
807.472	27869
807.614	27724
807.756	27732
807.898	27606
808.04	27572
808.182	27580
808.324	27599
808.465	27610
808.607	27816
808.749	28010
808.891	28048
809.033	28059
809.174	27956
809.316	27781
809.458	27983
809.6	27930
809.741	28112
809.883	27994
810.025	28185
810.166	28211
810.308	28112
810.45	28150
810.591	28070
810.733	27854
810.875	27949
811.016	27785
811.158	27888
811.299	27972
811.441	28112
811.582	28021
811.724	27869
811.865	27854
812.007	27884
812.148	27895
812.29	27926
812.431	28128
812.573	28162
812.714	28230
812.855	28428
812.997	28546
813.138	28710
813.279	28603
813.421	28557
813.562	28360
813.703	28253
813.845	28097
813.986	27823
814.127	27679
814.268	27583
814.41	27652
814.551	27762
814.692	27701
814.833	27564
814.974	27614
815.115	27580
815.256	27469
815.397	27526
815.539	27500
815.68	27435
815.821	27382
815.962	27458
816.103	27359
816.244	27431
816.385	27249
816.526	27192
816.666	27051
816.807	26868
816.948	26994
817.089	26960
817.23	27051
817.371	26853
817.512	26883
817.653	26910
817.793	26864
817.934	26940
818.075	26967
818.216	26944
818.356	26872
818.497	26716
818.638	26651
818.778	26720
818.919	26765
819.06	26758
819.2	26807
819.341	26967
819.481	26906
819.622	27070
819.762	27359
819.903	27195
820.043	27192
820.184	27020
820.324	27081
820.465	26979
820.605	27013
820.746	27066
820.886	26891
821.026	26933
821.167	27047
821.307	27055
821.447	26929
821.588	26826
821.728	26651
821.868	26560
822.008	26381
822.149	26332
822.289	26282
822.429	26145
822.569	25993
822.709	26065
822.849	25879
822.99	25887
823.13	25837
823.27	25883
823.41	25780
823.55	25632
823.69	25715
823.83	25761
823.97	25552
824.11	25510
824.25	25563
824.389	25457
824.529	25620
824.669	25643
824.809	25582
824.949	25632
825.089	25689
825.228	25613
825.368	25430
825.508	25354
825.648	25346
825.787	25559
825.927	25495
826.067	25419
826.206	25422
826.346	25571
826.485	25563
826.625	25377
826.765	25476
826.904	25388
827.044	25129
827.183	25217
827.323	25171
827.462	25209
827.601	25221
827.741	25122
827.88	25168
828.02	25031
828.159	25065
828.298	25103
828.437	25122
828.577	25019
828.716	25126
828.855	25126
828.994	24753
829.134	24833
829.273	24852
829.412	24924
829.551	24730
829.69	24882
829.829	24795
829.968	24848
830.107	24890
830.246	24783
830.385	24802
830.524	24791
830.663	24661
830.802	24536
830.941	24433
831.08	24372
831.219	24490
831.357	24601
831.496	24601
831.635	24528
831.774	24357
831.913	24281
832.051	24330
832.19	24239
832.329	24197
832.467	24087
832.606	23984
832.744	23916
832.883	24133
833.022	24030
833.16	24079
833.299	24072
833.437	24140
833.576	24079
833.714	24182
833.852	24205
833.991	24251
834.129	24258
834.267	24273
834.406	24129
834.544	24216
834.682	24144
834.821	24110
834.959	24266
835.097	24182
835.235	24251
835.373	24209
835.511	24110
835.65	24076
835.788	23973
835.926	23931
836.064	23828
836.202	23805
836.34	24140
836.478	23999
836.615	24007
836.753	24057
836.891	24003
837.029	24026
837.167	23980
837.305	23874
837.443	23980
837.58	23790
837.718	23992
837.856	23813
837.993	23878
838.131	23889
838.269	23817
838.406	23691
838.544	23627
838.681	23611
838.819	23581
838.956	23387
839.094	23429
839.231	23250
839.369	23376
839.506	23794
839.643	23573
839.781	23315
839.918	23216
840.055	23353
840.193	23170
840.33	23216
840.467	23216
840.604	23318
840.742	23391
840.879	23124
841.016	23231
841.153	23079
841.29	23391
841.427	23208
841.564	23273
841.701	23280
841.838	23235
841.975	23067
842.112	23185
842.249	23037
842.385	22972
842.522	23235
842.659	22995
842.796	22968
842.933	23003
843.069	22953
843.206	22881
843.343	22995
843.479	23132
843.616	23052
843.752	22744
843.889	22790
844.025	23006
844.162	22744
844.298	22843
844.435	22694
844.571	22759
844.708	22816
844.844	22911
844.98	22965
845.117	22873
845.253	22668
845.389	22573
845.525	22527
845.661	22618
845.798	22470
845.934	22584
846.07	22436
846.206	22554
846.342	22603
846.478	22436
846.614	22284
846.75	22284
846.886	22242
847.022	22409
847.158	22333
847.294	22234
847.429	22360
847.565	22219
847.701	22478
847.837	21907
847.972	21907
848.108	22093
848.244	22135
848.379	21816
848.515	21827
848.65	21888
848.786	21823
848.921	21895
849.057	21953
849.192	21842
849.328	21732
849.463	21804
849.598	21720
849.734	21705
849.869	21663
850.004	21747
850.14	21633
850.275	21568
850.41	21515
850.545	21492
850.68	21553
850.815	21679
850.95	21553
851.085	21698
851.22	21675
851.355	21751
851.49	21580
851.625	21641
851.76	21545
851.895	21618
852.03	21469
852.165	21583
852.299	21595
852.434	21576
852.569	21701
852.703	21580
852.838	21530
852.973	21698
853.107	21720
853.242	21561
853.376	21420
853.511	21294
853.645	21424
853.78	21469
853.914	21496
854.048	21450
854.183	21481
854.317	21439
854.451	21728
854.585	21370
854.72	21462
854.854	21557
854.988	21374
855.122	21416
855.256	21218
855.39	21367
855.524	21462
855.658	21332
855.792	21542
855.926	21450
856.06	21496
856.194	21408
856.327	21473
856.461	21264
856.595	21443
856.729	21344
856.862	21488
856.996	21450
857.13	21469
857.263	21462
857.397	21568
857.53	21447
857.664	21523
857.797	21492
857.931	21591
858.064	21477
858.197	21488
858.331	21348
858.464	21416
858.597	21272
858.731	21431
858.864	21393
858.997	21389
859.13	21393
859.263	21500
859.396	21477
859.529	21298
859.662	21431
859.795	21374
859.928	21405
860.061	21553
860.194	21580
860.327	21458
860.46	21454
860.592	21507
860.725	21564
860.858	21412
860.99	21408
861.123	21386
861.256	21401
861.388	21363
861.521	22097
861.653	21313
861.786	21264
861.918	21146
862.05	21256
862.183	21420
862.315	21348
862.447	21401
862.58	21294
862.712	21173
862.844	21085
862.976	21252
863.108	21237
863.24	21576
863.372	21138
863.504	21161
863.636	21039
863.768	21077
863.9	21066
864.032	20895
864.164	21070
864.296	21047
864.428	21264
864.559	21142
864.691	21237
864.823	21165
864.954	21119
865.086	21131
865.217	21074
865.349	20929
865.48	21081
865.612	20971
865.743	21131
865.875	21020
866.006	21066
866.137	21093
866.269	20960
866.4	20952
866.531	21074
866.662	20807
866.793	21039
866.924	20944
867.055	20883
867.186	20914
867.317	21001
867.448	20952
867.579	20902
867.71	20933
867.841	20823
867.972	20952
868.103	20899
868.233	20823
868.364	20956
868.495	21013
868.625	21180
868.756	21329
868.886	21237
869.017	21119
869.147	21313
869.278	21272
869.408	21195
869.539	21135
869.669	21237
869.799	21256
869.929	21424
870.06	21199
870.19	21412
870.32	21485
870.45	21481
870.58	21595
870.71	21709
870.84	21622
870.97	21568
871.1	21587
871.23	21728
871.36	21789
871.489	21648
871.619	21747
871.749	21873
871.879	21770
872.008	21808
872.138	21789
872.267	21732
872.397	21633
872.526	21720
872.656	21568
872.785	21629
872.915	21869
873.044	21838
873.173	21850
873.303	21865
873.432	21876
873.561	21903
873.69	21770
873.819	21831
873.948	21808
874.077	21781
874.206	21720
874.335	21774
874.464	21972
874.593	21861
874.722	22051
874.851	22040
874.979	22169
875.108	22097
875.237	22013
875.365	21903
875.494	22059
875.623	22067
875.751	21956
875.88	22082
876.008	22086
876.136	22131
876.265	22443
876.393	22459
876.521	22523
876.65	22462
876.778	22398
876.906	22367
877.034	22398
877.162	22344
877.29	22333
877.418	22424
877.546	22440
877.674	22398
877.802	22344
877.93	22284
878.058	22329
878.185	22249
878.313	22428
878.441	22398
878.568	22253
878.696	22276
878.824	22466
878.951	22413
879.079	22504
879.206	22523
879.333	22527
879.461	22390
879.588	22493
879.715	22554
879.842	22687
879.97	22474
880.097	22204
880.224	22131
880.351	22265
880.478	22261
880.605	22169
880.732	22162
880.859	22375
880.986	22238
881.112	22082
881.239	22048
881.366	21926
881.493	21903
881.619	21880
881.746	21724
881.872	21781
881.999	21755
882.125	21755
882.252	21850
882.378	21778
882.505	21869
882.631	21690
882.757	21492
882.883	21530
883.01	21504
883.136	21458
883.262	21397
883.388	21195
883.514	21504
883.64	21515
883.766	21294
883.892	21298
884.018	21340
884.143	21389
884.269	21538
884.395	21169
884.52	21066
884.646	21127
884.772	21161
884.897	21066
885.023	21108
885.148	21264
885.274	21313
885.399	21226
885.524	21150
885.65	21157
885.775	21085
885.9	21116
886.025	21173
886.15	21302
886.275	21009
886.4	21066
886.525	21093
886.65	20990
886.775	20971
886.9	21302
887.025	21211
887.149	21127
887.274	20906
887.399	20883
887.523	20952
887.648	20872
887.773	20739
887.897	20998
888.021	20982
888.146	20845
888.27	20937
888.395	20990
888.519	20933
888.643	21032
888.767	20960
888.891	20773
889.015	20697
889.139	20724
889.263	20773
889.387	20788
889.511	20986
889.635	20849
889.759	20682
889.883	20537
890.006	20819
890.13	20651
890.254	20598
890.377	20556
890.501	20415
890.624	20278
890.748	20495
890.871	20286
890.995	20240
891.118	20176
891.241	20305
891.364	20202
891.488	20248
891.611	20191
891.734	20195
891.857	20400
891.98	20286
892.103	20122
892.226	20240
892.349	20180
892.471	20058
892.594	20119
892.717	20305
892.839	20069
892.962	20263
893.085	20199
893.207	20233
893.33	20020
893.452	20149
893.575	20103
893.697	20043
893.819	20278
893.941	20434
894.064	20332
894.186	20088
894.308	20073
894.43	20206
894.552	20389
894.674	20336
894.796	20031
894.918	20043
895.04	20096
895.161	20115
895.283	20088
895.405	19986
895.526	20210
895.648	20138
895.769	20092
895.891	20176
896.012	20168
896.134	20149
896.255	20168
896.376	20115
896.498	20092
896.619	20237
896.74	20206
896.861	20172
896.982	20419
897.103	20549
897.224	20450
897.345	20320
897.466	20336
897.587	20408
897.708	20446
897.828	20526
897.949	20362
898.07	20218
898.19	20313
898.311	20446
898.431	20237
898.552	20317
898.672	20476
898.792	20446
898.913	20305
899.033	20385
899.153	20138
899.273	20046
899.393	20107
899.513	20172
899.633	20183
899.753	20138
899.873	20054
899.993	20206
900.113	19944
900.232	20027
900.352	20058
900.472	19906
900.591	19902
900.711	19890
900.83	19742
900.95	19932
901.069	19902
901.189	19833
901.308	19540
901.427	19464
901.546	19476
901.665	19529
901.784	19445
901.904	19346
902.023	19263
902.141	18993
902.26	19122
902.379	19103
902.498	18916
902.617	18913
902.735	19065
902.854	18924
902.973	18806
903.091	18703
903.21	18661
903.328	18646
903.446	18498
903.565	18456
903.683	18623
903.801	18361
903.919	18437
904.038	18384
904.156	18285
904.274	18376
904.392	18258
904.51	18148
904.627	18266
904.745	18304
904.863	18167
904.981	18045
905.098	17950
905.216	17992
905.334	18041
905.451	17809
905.569	17908
905.686	17954
905.803	17931
905.921	17729
906.038	17752
906.155	17668
906.272	17729
906.389	17687
906.506	17478
906.623	17486
906.74	17417
906.857	17318
906.974	17303
907.091	17528
907.208	17509
907.324	17482
907.441	17280
907.557	17178
907.674	17193
907.79	16999
907.907	17132
908.023	17102
908.139	17102
908.256	16987
908.372	17052
908.488	16987
908.604	16930
908.72	16812
908.836	16896
908.952	16858
909.068	16873
909.184	16904
909.3	16885
909.415	16934
909.531	16778
909.647	16577
909.762	16561
909.878	16561
909.993	16558
910.108	16519
910.224	16592
910.339	16542
910.454	16417
910.57	16379
910.685	16310
910.8	16519
910.915	16413
911.03	16356
911.145	16181
911.259	16147
911.374	16158
911.489	16067
911.604	15975
911.718	15941
911.833	15880
911.947	15892
912.062	15736
912.176	15876
912.291	15899
912.405	16044
912.519	16116
912.633	16074
912.748	15930
912.862	15930
912.976	15762
913.09	15641
913.204	15762
913.318	15713
913.431	15827
913.545	15793
913.659	15800
913.772	15641
913.886	15534
914	15553
914.113	15538
914.226	15694
914.34	15603
914.453	15382
914.566	15549
914.68	15500
914.793	15329
914.906	15306
915.019	15203
915.132	15104
915.245	15138
915.358	15146
915.47	15180
915.583	15131
915.696	15089
915.809	15195
915.921	15245
916.034	14994
916.146	14990
916.259	14956
916.371	15108
916.483	15066
916.595	14971
916.708	15005
916.82	14971
916.932	14819
917.044	14982
917.156	15017
917.268	14849
917.38	14880
917.491	14781
917.603	14868
917.715	14834
917.826	14880
917.938	14598
918.049	14583
918.161	14731
918.272	14868
918.384	14857
918.495	14716
918.606	14640
918.717	14465
918.828	14556
918.939	14602
919.05	14514
919.161	14480
919.272	14358
919.383	14393
919.494	14571
919.604	14743
919.715	14518
919.826	14564
919.936	14488
920.047	14602
920.157	14465
920.267	14708
920.378	14549
920.488	14503
920.598	14720
920.708	14819
920.818	14636
920.928	14693
921.038	14849
921.148	14689
921.258	14419
921.368	14385
921.477	14298
921.587	14199
921.697	14062
921.806	14218
921.916	14103
922.025	13925
922.134	13909
922.244	13879
922.353	13947
922.462	13807
922.571	13734
922.68	13582
922.789	13533
922.898	13506
923.007	13468
923.116	13597
923.224	13510
923.333	13620
923.442	13460
923.55	13369
923.659	13354
923.767	13396
923.876	13244
923.984	13312
924.092	13301
924.201	13400
924.309	13244
924.417	13293
924.525	13251
924.633	13213
924.741	14039
924.849	12932
924.956	13171
925.064	12989
925.172	12958
925.279	12970
925.387	12958
925.494	12981
925.602	13126
925.709	12970
925.816	12859
925.924	12901
926.031	13004
926.138	12821
926.245	12844
926.352	12802
926.459	12909
926.566	12947
926.673	12760
926.779	12719
926.886	12684
926.993	12502
927.099	12582
927.206	12494
927.312	12452
927.419	12578
927.525	12479
927.631	12498
927.737	12372
927.843	12414
927.95	12140
928.056	12220
928.162	12319
928.267	12437
928.373	12905
928.479	12464
928.585	12186
928.69	12300
928.796	12254
928.901	12148
929.007	12091
929.112	12220
929.218	12125
929.323	12026
929.428	12068
929.533	12201
929.638	11961
929.743	12007
929.848	12095
929.953	11954
930.058	11863
930.163	11767
930.267	11748
930.372	11897
930.477	11649
930.581	11988
930.685	11813
930.79	11672
930.894	11634
930.998	11703
931.103	11672
931.207	11402
931.311	11315
931.415	11242
931.519	11075
931.623	10961
