Data from test_V78500241_1755.txt Node
Date: Fri Mar 25 15:22:04 CST 2022
User: usil
Spectrometer: V785-0024
Trigger mode: 0
Integration Time (sec): 4.000000E-1
Scans to average: 1
Nonlinearity correction enabled: false
Boxcar width: 0
Storing dark spectrum: false
XAxis mode: Wavelengths
Number of Pixels in Spectrum: 1024
>>>>>Begin Spectral Data<<<<<
801.071	27819
801.214	27922
801.356	27523
801.499	27530
801.641	27370
801.783	27534
801.926	27580
802.068	27553
802.211	27325
802.353	27249
802.496	27192
802.638	27169
802.78	27070
802.923	27112
803.065	26986
803.208	27036
803.35	27074
803.492	27249
803.635	27336
803.777	27237
803.919	27272
804.061	27618
804.204	27351
804.346	27226
804.488	27157
804.63	27226
804.773	27218
804.915	27199
805.057	27382
805.199	27150
805.341	27439
805.483	27477
805.626	27348
805.768	27287
805.91	27427
806.052	27473
806.194	27207
806.336	27447
806.478	27412
806.62	27382
806.762	27454
806.904	27614
807.046	27819
807.188	27956
807.33	27842
807.472	28048
807.614	27686
807.756	27800
807.898	27660
808.04	27755
808.182	27675
808.324	27682
808.465	27785
808.607	27880
808.749	27884
808.891	28036
809.033	28093
809.174	28192
809.316	28078
809.458	28032
809.6	27994
809.741	28238
809.883	28143
810.025	28246
810.166	28284
810.308	28257
810.45	28272
810.591	28158
810.733	27998
810.875	27953
811.016	27842
811.158	27861
811.299	28086
811.441	28169
811.582	28234
811.724	28112
811.865	27937
812.007	28051
812.148	28059
812.29	28017
812.431	28272
812.573	28291
812.714	28519
812.855	28607
812.997	28561
813.138	28816
813.279	28596
813.421	28516
813.562	28424
813.703	28333
813.845	28173
813.986	27972
814.127	27766
814.268	27823
814.41	27816
814.551	27648
814.692	27781
814.833	27564
814.974	27656
815.115	27629
815.256	27507
815.397	27667
815.539	27561
815.68	27427
815.821	27332
815.962	27576
816.103	27283
816.244	27412
816.385	27233
816.526	27142
816.666	27127
816.807	27081
816.948	27051
817.089	27020
817.23	27058
817.371	27032
817.512	26929
817.653	27032
817.793	26899
817.934	27001
818.075	27070
818.216	27043
818.356	26982
818.497	26868
818.638	26796
818.778	26720
818.919	26864
819.06	26750
819.2	26933
819.341	27028
819.481	26880
819.622	27233
819.762	27325
819.903	27272
820.043	27138
820.184	27036
820.324	27047
820.465	27214
820.605	27150
820.746	27184
820.886	26998
821.026	27116
821.167	27070
821.307	27096
821.447	27135
821.588	26883
821.728	26804
821.868	26758
822.008	26579
822.149	26518
822.289	26419
822.429	26191
822.569	26176
822.709	26164
822.849	26005
822.99	25963
823.13	25936
823.27	25940
823.41	25868
823.55	25734
823.69	25715
823.83	25738
823.97	25795
824.11	25674
824.25	25502
824.389	25537
824.529	25765
824.669	25700
824.809	25643
824.949	25685
825.089	25670
825.228	25613
825.368	25495
825.508	25556
825.648	25674
825.787	25651
825.927	25578
826.067	25483
826.206	25529
826.346	25620
826.485	25491
826.625	25476
826.765	25590
826.904	25613
827.044	25343
827.183	25430
827.323	25270
827.462	25354
827.601	25274
827.741	25209
827.88	25316
828.02	25133
828.159	25327
828.298	25282
828.437	25285
828.577	25228
828.716	25396
828.855	25198
828.994	24943
829.134	24814
829.273	25046
829.412	24833
829.551	24886
829.69	25000
829.829	25031
829.968	24856
830.107	25042
830.246	24890
830.385	24897
830.524	24935
830.663	24848
830.802	24795
830.941	24669
831.08	24532
831.219	24677
831.357	24608
831.496	24840
831.635	24517
831.774	24528
831.913	24403
832.051	24391
832.19	24388
832.329	24498
832.467	24384
832.606	24251
832.744	24235
832.883	24224
833.022	24205
833.16	24448
833.299	24388
833.437	24452
833.576	24441
833.714	24384
833.852	24353
833.991	24433
834.129	24532
834.267	24475
834.406	24330
834.544	24445
834.682	24509
834.821	24369
834.959	24380
835.097	24346
835.235	24399
835.373	24315
835.511	24327
835.65	24289
835.788	24224
835.926	24034
836.064	23805
836.202	24007
836.34	24273
836.478	24251
836.615	24216
836.753	24273
836.891	24289
837.029	24342
837.167	24076
837.305	24144
837.443	24133
837.58	24015
837.718	24102
837.856	23980
837.993	24034
838.131	23832
838.269	23954
838.406	23942
838.544	23767
838.681	23836
838.819	23646
838.956	23524
839.094	23577
839.231	23600
839.369	23726
839.506	23908
839.643	23775
839.781	23455
839.918	23433
840.055	23524
840.193	23505
840.33	23433
840.467	23452
840.604	23417
840.742	23672
840.879	23421
841.016	23197
841.153	23337
841.29	23455
841.427	23269
841.564	23417
841.701	23433
841.838	23258
841.975	23356
842.112	23410
842.249	23227
842.385	23162
842.522	23410
842.659	23181
842.796	23170
842.933	23098
843.069	23140
843.206	23056
843.343	23227
843.479	23223
843.616	23056
843.752	22896
843.889	22965
844.025	23052
844.162	22850
844.298	23109
844.435	22942
844.571	22927
844.708	22889
844.844	23178
844.98	23090
845.117	23094
845.253	22995
845.389	22847
845.525	22755
845.661	22847
845.798	22675
845.934	22771
846.07	22618
846.206	22687
846.342	22668
846.478	22653
846.614	22352
846.75	22481
846.886	22394
847.022	22447
847.158	22405
847.294	22436
847.429	22329
847.565	22360
847.701	22717
847.837	22139
847.972	22078
848.108	22150
848.244	22166
848.379	22021
848.515	22078
848.65	21899
848.786	22070
848.921	22025
849.057	22036
849.192	22192
849.328	21991
849.463	21850
849.598	21892
849.734	21895
849.869	21812
850.004	21759
850.14	21785
850.275	21759
850.41	21679
850.545	21812
850.68	21625
850.815	21770
850.95	21797
851.085	21930
851.22	21808
851.355	21808
851.49	21732
851.625	21781
851.76	21766
851.895	21675
852.03	21625
852.165	21800
852.299	21888
852.434	21865
852.569	21861
852.703	21701
852.838	21797
852.973	21831
853.107	21941
853.242	21701
853.376	21709
853.511	21553
853.645	21587
853.78	21728
853.914	21481
854.048	21519
854.183	21599
854.317	21622
854.451	21789
854.585	21652
854.72	21595
854.854	21629
854.988	21534
855.122	21610
855.256	21431
855.39	21572
855.524	21606
855.658	21622
855.792	21610
855.926	21671
856.06	21622
856.194	21576
856.327	21538
856.461	21515
856.595	21614
856.729	21553
856.862	21622
856.996	21671
857.13	21610
857.263	21774
857.397	21633
857.53	21526
857.664	21568
857.797	21648
857.931	21720
858.064	21618
858.197	21778
858.331	21485
858.464	21450
858.597	21583
858.731	21618
858.864	21523
858.997	21488
859.13	21504
859.263	21610
859.396	21736
859.529	21553
859.662	21583
859.795	21469
859.928	21519
860.061	21755
860.194	21747
860.327	21622
860.46	21618
860.592	21663
860.725	21610
860.858	21766
860.99	21545
861.123	21408
861.256	21443
861.388	21595
861.521	22135
861.653	21450
861.786	21386
861.918	21462
862.05	21561
862.183	21606
862.315	21519
862.447	21450
862.58	21420
862.712	21344
862.844	21260
862.976	21382
863.108	21374
863.24	21637
863.372	21291
863.504	21370
863.636	21272
863.768	21439
863.9	21340
864.032	21142
864.164	21199
864.296	21176
864.428	21256
864.559	21264
864.691	21348
864.823	21207
864.954	21279
865.086	21237
865.217	21100
865.349	21081
865.48	21199
865.612	21131
865.743	21279
865.875	21233
866.006	21100
866.137	21249
866.269	21283
866.4	21150
866.531	21070
866.662	20921
866.793	20963
866.924	21047
867.055	21157
867.186	21135
867.317	21081
867.448	21020
867.579	21043
867.71	21024
867.841	20967
867.972	21032
868.103	21203
868.233	21142
868.364	21112
868.495	21188
868.625	21382
868.756	21481
868.886	21252
869.017	21363
869.147	21397
869.278	21507
869.408	21386
869.539	21378
869.669	21401
869.799	21408
869.929	21515
870.06	21458
870.19	21599
870.32	21656
870.45	21743
870.58	21671
870.71	21911
870.84	21876
870.97	21774
871.1	21842
871.23	21816
871.36	21945
871.489	21835
871.619	21960
871.749	22002
871.879	21953
872.008	21968
872.138	22006
872.267	21934
872.397	21865
872.526	21831
872.656	21778
872.785	21766
872.915	21964
873.044	21998
873.173	21994
873.303	22032
873.432	21991
873.561	21953
873.69	21869
873.819	21869
873.948	22051
874.077	22029
874.206	21926
874.335	21937
874.464	22097
874.593	22333
874.722	22158
874.851	22181
874.979	22147
875.108	22253
875.237	22086
875.365	22169
875.494	22162
875.623	22268
875.751	22139
875.88	22120
876.008	22322
876.136	22470
876.265	22706
876.393	22706
876.521	22683
876.65	22656
876.778	22546
876.906	22573
877.034	22436
877.162	22580
877.29	22538
877.418	22500
877.546	22554
877.674	22538
877.802	22459
877.93	22592
878.058	22603
878.185	22363
878.313	22386
878.441	22675
878.568	22428
878.696	22329
878.824	22622
878.951	22649
879.079	22626
879.206	22767
879.333	22653
879.461	22523
879.588	22675
879.715	22793
879.842	22809
879.97	22691
880.097	22367
880.224	22371
880.351	22432
880.478	22333
880.605	22310
880.732	22226
880.859	22668
880.986	22352
881.112	22398
881.239	22169
881.366	22257
881.493	22090
881.619	21869
881.746	21930
881.872	21869
881.999	21994
882.125	21823
882.252	22032
882.378	21911
882.505	21949
882.631	21838
882.757	21679
882.883	21682
883.01	21637
883.136	21679
883.262	21542
883.388	21500
883.514	21713
883.64	21504
883.766	21526
883.892	21382
884.018	21397
884.143	21637
884.269	21603
884.395	21332
884.52	21184
884.646	21211
884.772	21116
884.897	21173
885.023	21363
885.148	21264
885.274	21363
885.399	21374
885.524	21256
885.65	21184
885.775	21313
885.9	21245
886.025	21386
886.15	21233
886.275	21199
886.4	21123
886.525	21214
886.65	21100
886.775	21222
886.9	21382
887.025	21332
887.149	21222
887.274	21100
887.399	21020
887.523	20937
887.648	21100
887.773	20849
887.897	21055
888.021	21112
888.146	20967
888.27	21135
888.395	21222
888.519	21013
888.643	20982
888.767	21089
888.891	20811
889.015	20902
889.139	20857
889.263	20807
889.387	20925
889.511	21039
889.635	20944
889.759	20712
889.883	20823
890.006	20796
890.13	20872
890.254	20686
890.377	20697
890.501	20629
890.624	20556
890.748	20613
890.871	20545
890.995	20351
891.118	20347
891.241	20431
891.364	20419
891.488	20461
891.611	20362
891.734	20374
891.857	20396
891.98	20385
892.103	20511
892.226	20450
892.349	20225
892.471	20202
892.594	20218
892.717	20301
892.839	20172
892.962	20248
893.085	20370
893.207	20240
893.33	20294
893.452	20206
893.575	20374
893.697	20290
893.819	20393
893.941	20400
894.064	20499
894.186	20339
894.308	20164
894.43	20218
894.552	20461
894.674	20450
894.796	20191
894.918	20252
895.04	20210
895.161	20355
895.283	20305
895.405	20210
895.526	20221
895.648	20164
895.769	20130
895.891	20286
896.012	20370
896.134	20301
896.255	20305
896.376	20286
896.498	20282
896.619	20301
896.74	20191
896.861	20389
896.982	20613
897.103	20758
897.224	20644
897.345	20503
897.466	20423
897.587	20495
897.708	20609
897.828	20575
897.949	20381
898.07	20370
898.19	20385
898.311	20594
898.431	20317
898.552	20450
898.672	20590
898.792	20450
898.913	20492
899.033	20362
899.153	20309
899.273	20263
899.393	20100
899.513	20355
899.633	20271
899.753	20172
899.873	20153
899.993	20225
900.113	20050
900.232	20119
900.352	20221
900.472	19989
900.591	20107
900.711	20050
900.83	20005
900.95	20084
901.069	20187
901.189	19913
901.308	19624
901.427	19502
901.546	19616
901.665	19552
901.784	19514
901.904	19449
902.023	19335
902.141	19251
902.26	19072
902.379	19308
902.498	19076
902.617	19072
902.735	19057
902.854	19015
902.973	18954
903.091	18897
903.21	18806
903.328	18768
903.446	18544
903.565	18570
903.683	18608
903.801	18395
903.919	18555
904.038	18414
904.156	18369
904.274	18262
904.392	18346
904.51	18323
904.627	18243
904.745	18376
904.863	18399
904.981	18201
905.098	18045
905.216	18041
905.334	18019
905.451	18011
905.569	17885
905.686	17980
905.803	18003
905.921	17836
906.038	17961
906.155	17729
906.272	17630
906.389	17665
906.506	17596
906.623	17539
906.74	17535
906.857	17444
906.974	17512
907.091	17486
907.208	17653
907.324	17623
907.441	17478
907.557	17315
907.674	17200
907.79	17200
907.907	17185
908.023	17284
908.139	17239
908.256	17159
908.372	17086
908.488	17181
908.604	16961
908.72	16930
908.836	17067
908.952	16911
909.068	16984
909.184	17136
909.3	16877
909.415	17041
909.531	16877
909.647	16816
909.762	16733
909.878	16668
909.993	16759
910.108	16664
910.224	16637
910.339	16748
910.454	16584
910.57	16516
910.685	16394
910.8	16748
910.915	16588
911.03	16341
911.145	16360
911.259	16318
911.374	16238
911.489	16238
911.604	16166
911.718	15991
911.833	16044
911.947	15899
912.062	15816
912.176	16082
912.291	16036
912.405	15998
912.519	16147
912.633	16158
912.748	16021
912.862	16051
912.976	15812
913.09	15816
913.204	15759
913.318	15808
913.431	15846
913.545	15968
913.659	15926
913.772	15793
913.886	15584
914	15496
914.113	15743
914.226	15751
914.34	15686
914.453	15538
914.566	15679
914.68	15534
914.793	15424
914.906	15268
915.019	15222
915.132	15154
915.245	15154
915.358	15264
915.47	15192
915.583	15150
915.696	15245
915.809	15329
915.921	15329
916.034	15058
916.146	15066
916.259	15013
916.371	15226
916.483	15272
916.595	15070
916.708	14998
916.82	15047
916.932	14982
917.044	14914
917.156	15009
917.268	14849
917.38	14933
917.491	14800
917.603	14864
917.715	14929
917.826	14929
917.938	14883
918.049	14727
918.161	14857
918.272	14872
918.384	14960
918.495	14834
918.606	14693
918.717	14659
918.828	14682
918.939	14613
919.05	14431
919.161	14575
919.272	14351
919.383	14446
919.494	14735
919.604	14834
919.715	14568
919.826	14530
919.936	14712
920.047	14678
920.157	14545
920.267	14762
920.378	14655
920.488	14530
920.598	14735
920.708	14876
920.818	14636
920.928	14678
921.038	14933
921.148	14781
921.258	14507
921.368	14457
921.477	14419
921.587	14404
921.697	14199
921.806	14351
921.916	14256
922.025	14016
922.134	13932
922.244	13917
922.353	14008
922.462	13879
922.571	13750
922.68	13632
922.789	13624
922.898	13609
923.007	13495
923.116	13674
923.224	13533
923.333	13521
923.442	13381
923.55	13396
923.659	13559
923.767	13540
923.876	13346
923.984	13495
924.092	13263
924.201	13354
924.309	13365
924.417	13365
924.525	13274
924.633	13316
924.741	14161
924.849	13091
924.956	13308
925.064	13015
925.172	12993
925.279	13008
925.387	13019
925.494	12958
925.602	13103
925.709	13072
925.816	12981
925.924	12977
926.031	13027
926.138	12947
926.245	13050
926.352	12825
926.459	12913
926.566	13027
926.673	12951
926.779	12810
926.886	12707
926.993	12551
927.099	12669
927.206	12506
927.312	12589
927.419	12627
927.525	12517
927.631	12563
927.737	12403
927.843	12338
927.95	12262
928.056	12357
928.162	12475
928.267	12422
928.373	13046
928.479	12452
928.585	12258
928.69	12410
928.796	12346
928.901	12270
929.007	12068
929.112	12239
929.218	12220
929.323	12106
929.428	12159
929.533	12182
929.638	12125
929.743	12121
929.848	12171
929.953	12045
930.058	12049
930.163	11805
930.267	11805
930.372	11980
930.477	11745
930.581	11992
930.685	11855
930.79	11726
930.894	11775
930.998	11703
931.103	11752
931.207	11356
931.311	11326
931.415	11299
931.519	11064
931.623	11025
