Data from test_V78500241_428.txt Node
Date: Fri Mar 25 15:12:50 CST 2022
User: usil
Spectrometer: V785-0024
Trigger mode: 0
Integration Time (sec): 4.000000E-1
Scans to average: 1
Nonlinearity correction enabled: false
Boxcar width: 0
Storing dark spectrum: false
XAxis mode: Wavelengths
Number of Pixels in Spectrum: 1024
>>>>>Begin Spectral Data<<<<<
801.071	27100
801.214	27017
801.356	26826
801.499	26739
801.641	26655
801.783	26651
801.926	26834
802.068	26667
802.211	26621
802.353	26434
802.496	26484
802.638	26347
802.78	26324
802.923	26210
803.065	26275
803.208	26385
803.35	26339
803.492	26511
803.635	26431
803.777	26400
803.919	26514
804.061	26769
804.204	26438
804.346	26370
804.488	26613
804.63	26549
804.773	26355
804.915	26507
805.057	26571
805.199	26495
805.341	26606
805.483	26632
805.626	26518
805.768	26503
805.91	26453
806.052	26518
806.194	26575
806.336	26651
806.478	26629
806.62	26541
806.762	26708
806.904	26906
807.046	27100
807.188	27051
807.33	26948
807.472	27146
807.614	26895
807.756	26929
807.898	26902
808.04	26785
808.182	26834
808.324	26940
808.465	26777
808.607	26979
808.749	27074
808.891	27252
809.033	27401
809.174	27256
809.316	27165
809.458	27222
809.6	27173
809.741	27241
809.883	27157
810.025	27488
810.166	27435
810.308	27427
810.45	27427
810.591	27473
810.733	27180
810.875	27207
811.016	27081
811.158	27100
811.299	27169
811.441	27329
811.582	27268
811.724	27089
811.865	27017
812.007	27154
812.148	27009
812.29	27146
812.431	27169
812.573	27435
812.714	27603
812.855	27724
812.997	27835
813.138	27994
813.279	27739
813.421	27728
813.562	27679
813.703	27473
813.845	27363
813.986	27116
814.127	26902
814.268	26933
814.41	26773
814.551	26796
814.692	26921
814.833	26815
814.974	26701
815.115	26746
815.256	26686
815.397	26853
815.539	26724
815.68	26670
815.821	26579
815.962	26609
816.103	26606
816.244	26503
816.385	26343
816.526	26339
816.666	26305
816.807	26092
816.948	26119
817.089	26142
817.23	26191
817.371	26065
817.512	26130
817.653	26065
817.793	26073
817.934	26039
818.075	26218
818.216	26122
818.356	26065
818.497	25906
818.638	25822
818.778	25875
818.919	25925
819.06	25849
819.2	25890
819.341	26122
819.481	26054
819.622	26286
819.762	26393
819.903	26336
820.043	26183
820.184	26153
820.324	26180
820.465	26294
820.605	26229
820.746	26180
820.886	26065
821.026	26039
821.167	26119
821.307	26126
821.447	26092
821.588	26043
821.728	25837
821.868	25715
822.008	25502
822.149	25605
822.289	25487
822.429	25236
822.569	25126
822.709	25293
822.849	25091
822.99	25012
823.13	25114
823.27	24973
823.41	24890
823.55	24829
823.69	24924
823.83	24992
823.97	24894
824.11	24661
824.25	24616
824.389	24551
824.529	24856
824.669	24730
824.809	24943
824.949	24810
825.089	24795
825.228	24684
825.368	24528
825.508	24681
825.648	24745
825.787	24696
825.927	24604
826.067	24646
826.206	24563
826.346	24673
826.485	24635
826.625	24646
826.765	24521
826.904	24658
827.044	24376
827.183	24216
827.323	24262
827.462	24357
827.601	24292
827.741	24277
827.88	24388
828.02	24148
828.159	24300
828.298	24201
828.437	24361
828.577	24384
828.716	24350
828.855	24178
828.994	24068
829.134	24064
829.273	24110
829.412	23942
829.551	23996
829.69	24022
829.829	23973
829.968	24087
830.107	24022
830.246	24003
830.385	23942
830.524	23836
830.663	23832
830.802	23843
830.941	23608
831.08	23459
831.219	23699
831.357	23703
831.496	23817
831.635	23604
831.774	23573
831.913	23345
832.051	23535
832.19	23356
832.329	23425
832.467	23353
832.606	23292
832.744	23181
832.883	23299
833.022	23212
833.16	23391
833.299	23459
833.437	23288
833.576	23315
833.714	23368
833.852	23322
833.991	23360
834.129	23463
834.267	23528
834.406	23277
834.544	23395
834.682	23356
834.821	23299
834.959	23684
835.097	23296
835.235	23486
835.373	23467
835.511	23318
835.65	23376
835.788	23292
835.926	23033
836.064	23044
836.202	23109
836.34	23360
836.478	23341
836.615	23162
836.753	23200
836.891	23322
837.029	23322
837.167	23136
837.305	23151
837.443	23242
837.58	23067
837.718	23189
837.856	23105
837.993	23056
838.131	23212
838.269	22976
838.406	22949
838.544	22862
838.681	22831
838.819	22733
838.956	22603
839.094	22538
839.231	22504
839.369	22706
839.506	22908
839.643	22736
839.781	22588
839.918	22481
840.055	22569
840.193	22478
840.33	22455
840.467	22478
840.604	22527
840.742	22763
840.879	22318
841.016	22314
841.153	22337
841.29	22584
841.427	22424
841.564	22554
841.701	22424
841.838	22386
841.975	22295
842.112	22424
842.249	22253
842.385	22223
842.522	22481
842.659	22363
842.796	22268
842.933	22215
843.069	22299
843.206	22276
843.343	22386
843.479	22257
843.616	22280
843.752	22078
843.889	22086
844.025	22215
844.162	21983
844.298	21899
844.435	22021
844.571	22017
844.708	22173
844.844	22150
844.98	22124
845.117	22128
845.253	21941
845.389	21960
845.525	21994
845.661	21899
845.798	21816
845.934	21747
846.07	21789
846.206	21854
846.342	21873
846.478	21781
846.614	21667
846.75	21412
846.886	21488
847.022	21595
847.158	21412
847.294	21507
847.429	21416
847.565	21553
847.701	21599
847.837	21214
847.972	21176
848.108	21310
848.244	21272
848.379	21055
848.515	21169
848.65	21017
848.786	21146
848.921	21058
849.057	21188
849.192	21119
849.328	21245
849.463	21199
849.598	21020
849.734	21001
849.869	20826
850.004	20838
850.14	20826
850.275	20887
850.41	20861
850.545	20838
850.68	20769
850.815	20815
850.95	20967
851.085	21043
851.22	21058
851.355	20868
851.49	20941
851.625	20849
851.76	20758
851.895	20743
852.03	20716
852.165	20956
852.299	20830
852.434	20880
852.569	20815
852.703	20899
852.838	20853
852.973	20910
853.107	20933
853.242	20777
853.376	20648
853.511	20461
853.645	20617
853.78	20834
853.914	20697
854.048	20545
854.183	20663
854.317	20731
854.451	20845
854.585	20746
854.72	20621
854.854	20746
854.988	20644
855.122	20697
855.256	20476
855.39	20636
855.524	20727
855.658	20796
855.792	20724
855.926	20735
856.06	20655
856.194	20781
856.327	20735
856.461	20621
856.595	20670
856.729	20629
856.862	20758
856.996	20686
857.13	20769
857.263	20804
857.397	20792
857.53	20746
857.664	20804
857.797	20727
857.931	20834
858.064	20689
858.197	20754
858.331	20689
858.464	20743
858.597	20636
858.731	20712
858.864	20533
858.997	20609
859.13	20682
859.263	20708
859.396	20743
859.529	20651
859.662	20754
859.795	20773
859.928	20686
860.061	20804
860.194	20785
860.327	20746
860.46	20712
860.592	20743
860.725	20811
860.858	20906
860.99	20735
861.123	20667
861.256	20602
861.388	20674
861.521	21321
861.653	20541
861.786	20537
861.918	20465
862.05	20602
862.183	20617
862.315	20587
862.447	20625
862.58	20537
862.712	20442
862.844	20408
862.976	20560
863.108	20328
863.24	20807
863.372	20431
863.504	20298
863.636	20415
863.768	20415
863.9	20446
864.032	20259
864.164	20286
864.296	20358
864.428	20552
864.559	20347
864.691	20457
864.823	20351
864.954	20381
865.086	20461
865.217	20385
865.349	20278
865.48	20267
865.612	20336
865.743	20484
865.875	20263
866.006	20191
866.137	20332
866.269	20233
866.4	20263
866.531	20248
866.662	20191
866.793	20252
866.924	20286
867.055	20244
867.186	20442
867.317	20206
867.448	20161
867.579	20168
867.71	20164
867.841	20153
867.972	20256
868.103	20134
868.233	20221
868.364	20115
868.495	20473
868.625	20545
868.756	20568
868.886	20423
869.017	20522
869.147	20556
869.278	20537
869.408	20545
869.539	20469
869.669	20423
869.799	20495
869.929	20667
870.06	20541
870.19	20758
870.32	20857
870.45	20758
870.58	20830
870.71	21017
870.84	20883
870.97	20880
871.1	20906
871.23	21032
871.36	21062
871.489	20956
871.619	20994
871.749	21116
871.879	20960
872.008	21218
872.138	21070
872.267	21108
872.397	20975
872.526	20868
872.656	20868
872.785	20925
872.915	21039
873.044	21161
873.173	21028
873.303	21085
873.432	21222
873.561	21218
873.69	21150
873.819	21192
873.948	21024
874.077	21070
874.206	21165
874.335	21100
874.464	21310
874.593	21245
874.722	21192
874.851	21393
874.979	21359
875.108	21340
875.237	21329
875.365	21283
875.494	21321
875.623	21424
875.751	21351
875.88	21329
876.008	21447
876.136	21416
876.265	21724
876.393	21922
876.521	21789
876.65	21823
876.778	21648
876.906	21660
877.034	21709
877.162	21724
877.29	21545
877.418	21732
877.546	21937
877.674	21728
877.802	21732
877.93	21610
878.058	21583
878.185	21641
878.313	21701
878.441	21675
878.568	21496
878.696	21675
878.824	21736
878.951	21713
879.079	21915
879.206	22032
879.333	21884
879.461	21652
879.588	21823
879.715	21922
879.842	21941
879.97	21743
880.097	21428
880.224	21507
880.351	21500
880.478	21469
880.605	21534
880.732	21496
880.859	21766
880.986	21637
881.112	21469
881.239	21485
881.366	21355
881.493	21173
881.619	21108
881.746	21135
881.872	21070
881.999	21093
882.125	21089
882.252	21184
882.378	21150
882.505	21195
882.631	20956
882.757	20880
882.883	20960
883.01	20910
883.136	20845
883.262	20762
883.388	20773
883.514	20826
883.64	20899
883.766	20735
883.892	20488
884.018	20648
884.143	20838
884.269	20830
884.395	20579
884.52	20511
884.646	20492
884.772	20396
884.897	20309
885.023	20488
885.148	20499
885.274	20667
885.399	20644
885.524	20492
885.65	20556
885.775	20609
885.9	20385
886.025	20541
886.15	20583
886.275	20556
886.4	20450
886.525	20507
886.65	20495
886.775	20507
886.9	20667
887.025	20667
887.149	20507
887.274	20328
887.399	20370
887.523	20282
887.648	20145
887.773	20225
887.897	20358
888.021	20339
888.146	20271
888.27	20317
888.395	20343
888.519	20263
888.643	20294
888.767	20328
888.891	20191
889.015	20119
889.139	20138
889.263	19967
889.387	20256
889.511	20248
889.635	20225
889.759	20103
889.883	20024
890.006	20130
890.13	20142
890.254	19928
890.377	20065
890.501	19734
890.624	19693
890.748	19833
890.871	19769
890.995	19613
891.118	19651
891.241	19674
891.364	19586
891.488	19769
891.611	19533
891.734	19696
891.857	19742
891.98	19639
892.103	19704
892.226	19670
892.349	19578
892.471	19445
892.594	19571
892.717	19734
892.839	19594
892.962	19624
893.085	19674
893.207	19540
893.33	19480
893.452	19597
893.575	19719
893.697	19544
893.819	19776
893.941	19533
894.064	19624
894.186	19434
894.308	19533
894.43	19590
894.552	19753
894.674	19635
894.796	19381
894.918	19537
895.04	19537
895.161	19567
895.283	19544
895.405	19559
895.526	19518
895.648	19529
895.769	19609
895.891	19510
896.012	19594
896.134	19590
896.255	19563
896.376	19620
896.498	19594
896.619	19651
896.74	19540
896.861	19605
896.982	19917
897.103	20016
897.224	19909
897.345	19769
897.466	19765
897.587	19791
897.708	19947
897.828	19788
897.949	19700
898.07	19655
898.19	19708
898.311	19947
898.431	19719
898.552	19746
898.672	19833
898.792	19936
898.913	19761
899.033	19704
899.153	19476
899.273	19415
899.393	19525
899.513	19525
899.633	19601
899.753	19578
899.873	19525
899.993	19578
900.113	19506
900.232	19540
900.352	19445
900.472	19384
900.591	19301
900.711	19434
900.83	19244
900.95	19453
901.069	19476
901.189	19187
901.308	19053
901.427	18932
901.546	18852
901.665	18970
901.784	18829
901.904	18753
902.023	18798
902.141	18483
902.26	18395
902.379	18506
902.498	18448
902.617	18357
902.735	18490
902.854	18414
902.973	18323
903.091	18117
903.21	18091
903.328	18068
903.446	17965
903.565	17908
903.683	17908
903.801	17824
903.919	17931
904.038	17855
904.156	17680
904.274	17885
904.392	17676
904.51	17783
904.627	17642
904.745	17718
904.863	17657
904.981	17573
905.098	17455
905.216	17315
905.334	17345
905.451	17364
905.569	17216
905.686	17368
905.803	17364
905.921	17124
906.038	17235
906.155	17178
906.272	17079
906.389	17037
906.506	17014
906.623	16904
906.74	16843
906.857	16771
906.974	16911
907.091	16972
907.208	17022
907.324	16930
907.441	16946
907.557	16706
907.674	16596
907.79	16565
907.907	16668
908.023	16675
908.139	16569
908.256	16611
908.372	16618
908.488	16497
908.604	16436
908.72	16238
908.836	16436
908.952	16234
909.068	16440
909.184	16440
909.3	16382
909.415	16379
909.531	16348
909.647	16128
909.762	16048
909.878	16040
909.993	16048
910.108	16025
910.224	15975
910.339	16025
910.454	15899
910.57	15937
910.685	15785
910.8	16074
910.915	16025
911.03	15831
911.145	15686
911.259	15663
911.374	15682
911.489	15682
911.604	15572
911.718	15473
911.833	15481
911.947	15283
912.062	15203
912.176	15428
912.291	15370
912.405	15382
912.519	15439
912.633	15603
912.748	15530
912.862	15370
912.976	15214
913.09	15150
913.204	15104
913.318	15306
913.431	15268
913.545	15329
913.659	15336
913.772	15184
913.886	15112
914	15074
914.113	15070
914.226	15165
914.34	15097
914.453	14921
914.566	15146
914.68	14872
914.793	14998
914.906	14758
915.019	14697
915.132	14598
915.245	14674
915.358	14613
915.47	14632
915.583	14659
915.696	14659
915.809	14743
915.921	14781
916.034	14621
916.146	14701
916.259	14568
916.371	14590
916.483	14610
916.595	14537
916.708	14530
916.82	14480
916.932	14480
917.044	14537
917.156	14492
917.268	14309
917.38	14362
917.491	14286
917.603	14317
917.715	14438
917.826	14473
917.938	14267
918.049	14172
918.161	14351
918.272	14381
918.384	14522
918.495	14358
918.606	14157
918.717	14035
918.828	14180
918.939	14233
919.05	14069
919.161	14062
919.272	13898
919.383	14065
919.494	14119
919.604	14336
919.715	14103
919.826	14065
919.936	14058
920.047	14130
920.157	14008
920.267	14164
920.378	14130
920.488	13997
920.598	14237
920.708	14339
920.818	14187
920.928	14210
921.038	14358
921.148	14347
921.258	14054
921.368	13845
921.477	13864
921.587	13894
921.697	13742
921.806	13860
921.916	13734
922.025	13544
922.134	13468
922.244	13400
922.353	13521
922.462	13381
922.571	13381
922.68	13126
922.789	13179
922.898	13149
923.007	13069
923.116	13171
923.224	13103
923.333	13122
923.442	13027
923.55	12958
923.659	12989
923.767	13034
923.876	12897
923.984	13031
924.092	12935
924.201	12844
924.309	12882
924.417	12894
924.525	12783
924.633	12814
924.741	13753
924.849	12593
924.956	12726
925.064	12669
925.172	12467
925.279	12517
925.387	12544
925.494	12551
925.602	12673
925.709	12601
925.816	12448
925.924	12475
926.031	12555
926.138	12570
926.245	12544
926.352	12372
926.459	12551
926.566	12563
926.673	12437
926.779	12323
926.886	12338
926.993	12148
927.099	12163
927.206	12068
927.312	12155
927.419	12262
927.525	12197
927.631	12140
927.737	12072
927.843	11996
927.95	11920
928.056	11935
928.162	12049
928.267	12060
928.373	12566
928.479	12060
928.585	11847
928.69	11977
928.796	12007
928.901	11882
929.007	11779
929.112	11832
929.218	11798
929.323	11741
929.428	11699
929.533	11950
929.638	11573
929.743	11703
929.848	11771
929.953	11688
930.058	11497
930.163	11425
930.267	11364
930.372	11482
930.477	11356
930.581	11570
930.685	11535
930.79	11368
930.894	11326
930.998	11231
931.103	11383
931.207	11071
931.311	10961
931.415	10881
931.519	10729
931.623	10736
