Data from test_V78500241_447.txt Node
Date: Fri Mar 25 15:12:58 CST 2022
User: usil
Spectrometer: V785-0024
Trigger mode: 0
Integration Time (sec): 4.000000E-1
Scans to average: 1
Nonlinearity correction enabled: false
Boxcar width: 0
Storing dark spectrum: false
XAxis mode: Wavelengths
Number of Pixels in Spectrum: 1024
>>>>>Begin Spectral Data<<<<<
801.071	27154
801.214	27150
801.356	26826
801.499	26906
801.641	26682
801.783	26727
801.926	26868
802.068	26636
802.211	26549
802.353	26434
802.496	26351
802.638	26400
802.78	26434
802.923	26434
803.065	26183
803.208	26343
803.35	26309
803.492	26511
803.635	26488
803.777	26545
803.919	26522
804.061	26724
804.204	26598
804.346	26484
804.488	26450
804.63	26568
804.773	26393
804.915	26499
805.057	26834
805.199	26514
805.341	26518
805.483	26697
805.626	26587
805.768	26438
805.91	26613
806.052	26629
806.194	26465
806.336	26785
806.478	26632
806.62	26632
806.762	26701
806.904	26975
807.046	27074
807.188	27089
807.33	27043
807.472	27233
807.614	26834
807.756	27009
807.898	26834
808.04	26781
808.182	26823
808.324	26796
808.465	27001
808.607	27051
808.749	27104
808.891	27313
809.033	27332
809.174	27230
809.316	27157
809.458	27165
809.6	27249
809.741	27214
809.883	27218
810.025	27466
810.166	27686
810.308	27397
810.45	27637
810.591	27420
810.733	27310
810.875	27123
811.016	27108
811.158	27150
811.299	27310
811.441	27256
811.582	27317
811.724	27173
811.865	27302
812.007	27268
812.148	27180
812.29	27332
812.431	27245
812.573	27473
812.714	27633
812.855	27698
812.997	27850
813.138	27972
813.279	27983
813.421	27857
813.562	27625
813.703	27427
813.845	27523
813.986	27154
814.127	26990
814.268	26937
814.41	26944
814.551	26887
814.692	26857
814.833	26921
814.974	26796
815.115	27009
815.256	26769
815.397	26697
815.539	26743
815.68	26659
815.821	26571
815.962	26746
816.103	26632
816.244	26511
816.385	26556
816.526	26442
816.666	26294
816.807	26088
816.948	26199
817.089	26195
817.23	26225
817.371	26206
817.512	26191
817.653	26107
817.793	26096
817.934	26183
818.075	26187
818.216	26237
818.356	25966
818.497	25974
818.638	25921
818.778	25974
818.919	25944
819.06	25902
819.2	26065
819.341	26126
819.481	26111
819.622	26328
819.762	26537
819.903	26294
820.043	26278
820.184	26259
820.324	26267
820.465	26469
820.605	26206
820.746	26199
820.886	26058
821.026	26180
821.167	26252
821.307	26282
821.447	26221
821.588	26134
821.728	25932
821.868	25742
822.008	25715
822.149	25563
822.289	25392
822.429	25422
822.569	25278
822.709	25247
822.849	25050
822.99	25095
823.13	25206
823.27	25050
823.41	24966
823.55	24734
823.69	24894
823.83	25042
823.97	24932
824.11	24814
824.25	24601
824.389	24688
824.529	24798
824.669	24650
824.809	24810
824.949	24848
825.089	24760
825.228	24703
825.368	24646
825.508	24639
825.648	24593
825.787	24623
825.927	24707
826.067	24490
826.206	24620
826.346	24623
826.485	24608
826.625	24684
826.765	24757
826.904	24703
827.044	24403
827.183	24384
827.323	24247
827.462	24304
827.601	24281
827.741	24296
827.88	24395
828.02	24289
828.159	24270
828.298	24251
828.437	24353
828.577	24334
828.716	24372
828.855	24304
828.994	23961
829.134	24060
829.273	24129
829.412	23984
829.551	23885
829.69	24015
829.829	24007
829.968	24083
830.107	24106
830.246	24076
830.385	23904
830.524	23897
830.663	23863
830.802	23783
830.941	23589
831.08	23608
831.219	23729
831.357	23840
831.496	23855
831.635	23642
831.774	23600
831.913	23543
832.051	23486
832.19	23501
832.329	23429
832.467	23353
832.606	23280
832.744	23414
832.883	23284
833.022	23288
833.16	23330
833.299	23303
833.437	23402
833.576	23368
833.714	23379
833.852	23520
833.991	23493
834.129	23398
834.267	23444
834.406	23398
834.544	23337
834.682	23444
834.821	23280
834.959	23558
835.097	23353
835.235	23368
835.373	23421
835.511	23353
835.65	23368
835.788	23337
835.926	23052
836.064	23029
836.202	22949
836.34	23269
836.478	23212
836.615	23250
836.753	23265
836.891	23288
837.029	23341
837.167	23140
837.305	23159
837.443	23151
837.58	23094
837.718	23094
837.856	23208
837.993	22999
838.131	23121
838.269	22911
838.406	23033
838.544	22930
838.681	22782
838.819	22717
838.956	22626
839.094	22527
839.231	22550
839.369	22698
839.506	23075
839.643	22809
839.781	22668
839.918	22424
840.055	22535
840.193	22504
840.33	22382
840.467	22474
840.604	22554
840.742	22812
840.879	22421
841.016	22546
841.153	22500
841.29	22664
841.427	22535
841.564	22554
841.701	22504
841.838	22512
841.975	22367
842.112	22371
842.249	22352
842.385	22257
842.522	22405
842.659	22333
842.796	22207
842.933	22246
843.069	22246
843.206	22223
843.343	22337
843.479	22310
843.616	22299
843.752	22177
843.889	22109
844.025	22154
844.162	22036
844.298	22169
844.435	21972
844.571	21994
844.708	22017
844.844	22181
844.98	22131
845.117	21972
845.253	22029
845.389	21987
845.525	21907
845.661	21823
845.798	21823
845.934	21812
846.07	21842
846.206	21819
846.342	21892
846.478	21781
846.614	21576
846.75	21450
846.886	21530
847.022	21679
847.158	21580
847.294	21625
847.429	21515
847.565	21576
847.701	21720
847.837	21291
847.972	21241
848.108	21306
848.244	21336
848.379	21150
848.515	21169
848.65	20967
848.786	21070
848.921	21112
849.057	21321
849.192	21161
849.328	21028
849.463	21039
849.598	21112
849.734	21081
849.869	20948
850.004	20883
850.14	20864
850.275	20902
850.41	20746
850.545	20758
850.68	20933
850.815	20982
850.95	20781
851.085	21013
851.22	20925
851.355	20937
851.49	20944
851.625	20796
851.76	20800
851.895	20777
852.03	20762
852.165	20876
852.299	20933
852.434	20857
852.569	20910
852.703	20918
852.838	20792
852.973	20929
853.107	20979
853.242	20826
853.376	20769
853.511	20552
853.645	20632
853.78	20857
853.914	20689
854.048	20765
854.183	20659
854.317	20594
854.451	20941
854.585	20663
854.72	20727
854.854	20724
854.988	20583
855.122	20701
855.256	20511
855.39	20705
855.524	20689
855.658	20743
855.792	20754
855.926	20769
856.06	20750
856.194	20777
856.327	20625
856.461	20636
856.595	20678
856.729	20667
856.862	20807
856.996	20785
857.13	20731
857.263	20906
857.397	20781
857.53	20655
857.664	20781
857.797	20724
857.931	20834
858.064	20720
858.197	20651
858.331	20629
858.464	20708
858.597	20629
858.731	20659
858.864	20674
858.997	20689
859.13	20689
859.263	20693
859.396	20807
859.529	20758
859.662	20606
859.795	20777
859.928	20750
860.061	20853
860.194	20960
860.327	20712
860.46	20712
860.592	20876
860.725	20906
860.858	20834
860.99	20724
861.123	20636
861.256	20590
861.388	20667
861.521	21416
861.653	20499
861.786	20469
861.918	20503
862.05	20560
862.183	20678
862.315	20537
862.447	20598
862.58	20640
862.712	20556
862.844	20351
862.976	20507
863.108	20457
863.24	20819
863.372	20282
863.504	20362
863.636	20412
863.768	20408
863.9	20400
864.032	20309
864.164	20324
864.296	20301
864.428	20419
864.559	20442
864.691	20465
864.823	20568
864.954	20370
865.086	20427
865.217	20431
865.349	20225
865.48	20465
865.612	20324
865.743	20408
865.875	20389
866.006	20336
866.137	20362
866.269	20404
866.4	20446
866.531	20259
866.662	20164
866.793	20343
866.924	20267
867.055	20400
867.186	20301
867.317	20218
867.448	20142
867.579	20199
867.71	20138
867.841	20237
867.972	20183
868.103	20332
868.233	20351
868.364	20218
868.495	20332
868.625	20518
868.756	20655
868.886	20423
869.017	20541
869.147	20629
869.278	20667
869.408	20545
869.539	20545
869.669	20674
869.799	20560
869.929	20530
870.06	20697
870.19	20895
870.32	20720
870.45	20826
870.58	20887
870.71	21058
870.84	20918
870.97	20910
871.1	20937
871.23	21116
871.36	21104
871.489	21104
871.619	21154
871.749	21093
871.879	20994
872.008	21203
872.138	21066
872.267	21135
872.397	20933
872.526	20929
872.656	20944
872.785	21013
872.915	21275
873.044	21230
873.173	21089
873.303	21119
873.432	21272
873.561	21272
873.69	21096
873.819	21077
873.948	21192
874.077	21195
874.206	21112
874.335	21157
874.464	21275
874.593	21389
874.722	21332
874.851	21469
874.979	21340
875.108	21325
875.237	21279
875.365	21207
875.494	21435
875.623	21428
875.751	21321
875.88	21313
876.008	21431
876.136	21564
876.265	21831
876.393	21876
876.521	21808
876.65	21751
876.778	21831
876.906	21698
877.034	21564
877.162	21743
877.29	21709
877.418	21743
877.546	21694
877.674	21827
877.802	21694
877.93	21857
878.058	21755
878.185	21576
878.313	21576
878.441	21823
878.568	21625
878.696	21713
878.824	21606
878.951	21747
879.079	21968
879.206	22002
879.333	21911
879.461	21774
879.588	21884
879.715	21994
879.842	21937
879.97	21720
880.097	21561
880.224	21424
880.351	21599
880.478	21663
880.605	21561
880.732	21614
880.859	21736
880.986	21530
881.112	21526
881.239	21526
881.366	21313
881.493	21233
881.619	21131
881.746	21112
881.872	21066
881.999	21135
882.125	21066
882.252	21081
882.378	21173
882.505	21211
882.631	20952
882.757	20883
882.883	20891
883.01	20902
883.136	20819
883.262	20720
883.388	20743
883.514	20975
883.64	20883
883.766	20727
883.892	20663
884.018	20682
884.143	20689
884.269	20750
884.395	20450
884.52	20480
884.646	20488
884.772	20377
884.897	20438
885.023	20545
885.148	20564
885.274	20617
885.399	20511
885.524	20442
885.65	20473
885.775	20522
885.9	20518
886.025	20526
886.15	20503
886.275	20541
886.4	20286
886.525	20495
886.65	20320
886.775	20362
886.9	20663
887.025	20674
887.149	20393
887.274	20332
887.399	20191
887.523	20229
887.648	20233
887.773	20142
887.897	20419
888.021	20240
888.146	20172
888.27	20305
888.395	20473
888.519	20427
888.643	20210
888.767	20385
888.891	20138
889.015	20065
889.139	20081
889.263	19963
889.387	20187
889.511	20271
889.635	20275
889.759	20020
889.883	20050
890.006	20111
890.13	20088
890.254	20027
890.377	19967
890.501	19845
890.624	19772
890.748	19925
890.871	19696
890.995	19639
891.118	19613
891.241	19674
891.364	19670
891.488	19616
891.611	19693
891.734	19685
891.857	19700
891.98	19620
892.103	19693
892.226	19639
892.349	19613
892.471	19468
892.594	19609
892.717	19628
892.839	19670
892.962	19495
893.085	19506
893.207	19643
893.33	19521
893.452	19468
893.575	19628
893.697	19548
893.819	19696
893.941	19731
894.064	19799
894.186	19529
894.308	19521
894.43	19487
894.552	19750
894.674	19780
894.796	19362
894.918	19434
895.04	19441
895.161	19468
895.283	19601
895.405	19419
895.526	19563
895.648	19575
895.769	19540
895.891	19594
896.012	19556
896.134	19658
896.255	19597
896.376	19502
896.498	19540
896.619	19609
896.74	19480
896.861	19601
896.982	20020
897.103	19970
897.224	19761
897.345	19826
897.466	19731
897.587	19959
897.708	19856
897.828	19845
897.949	19772
898.07	19655
898.19	19734
898.311	19913
898.431	19727
898.552	19742
898.672	19803
898.792	19871
898.913	19849
899.033	19712
899.153	19677
899.273	19499
899.393	19499
899.513	19438
899.633	19628
899.753	19483
899.873	19506
899.993	19529
900.113	19445
900.232	19476
900.352	19411
900.472	19441
900.591	19278
900.711	19346
900.83	19213
900.95	19415
901.069	19381
901.189	19247
901.308	18985
901.427	18951
901.546	18814
901.665	18966
901.784	18928
901.904	18757
902.023	18700
902.141	18528
902.26	18471
902.379	18536
902.498	18517
902.617	18513
902.735	18532
902.854	18273
902.973	18376
903.091	18266
903.21	18083
903.328	18049
903.446	18125
903.565	17935
903.683	17954
903.801	17901
903.919	17965
904.038	17923
904.156	17745
904.274	17790
904.392	17687
904.51	17703
904.627	17611
904.745	17665
904.863	17691
904.981	17497
905.098	17376
905.216	17387
905.334	17364
905.451	17353
905.569	17402
905.686	17345
905.803	17391
905.921	17098
906.038	17220
906.155	17200
906.272	17132
906.389	17121
906.506	17029
906.623	16980
906.74	16953
906.857	16786
906.974	16850
907.091	17064
907.208	17102
907.324	16991
907.441	16877
907.557	16687
907.674	16679
907.79	16596
907.907	16660
908.023	16645
908.139	16596
908.256	16603
908.372	16717
908.488	16443
908.604	16519
908.72	16329
908.836	16337
908.952	16352
909.068	16329
909.184	16379
909.3	16375
909.415	16440
909.531	16265
909.647	16173
909.762	16074
909.878	16055
909.993	16135
910.108	16124
910.224	15991
910.339	15991
910.454	15857
910.57	15907
910.685	15854
910.8	16063
910.915	15953
911.03	15823
911.145	15747
911.259	15690
911.374	15671
911.489	15656
911.604	15530
911.718	15488
911.833	15367
911.947	15317
912.062	15226
912.176	15416
912.291	15473
912.405	15488
912.519	15576
912.633	15679
912.748	15424
912.862	15355
912.976	15207
913.09	15150
913.204	15150
913.318	15287
913.431	15329
913.545	15249
913.659	15363
913.772	15150
913.886	15055
914	15108
914.113	15169
914.226	15051
914.34	15146
914.453	14944
914.566	15093
914.68	15051
914.793	14830
914.906	14712
915.019	14724
915.132	14659
915.245	14594
915.358	14712
915.47	14655
915.583	14693
915.696	14762
915.809	14781
915.921	14876
916.034	14606
916.146	14484
916.259	14568
916.371	14705
916.483	14583
916.595	14629
916.708	14511
916.82	14632
916.932	14469
917.044	14469
917.156	14389
917.268	14290
917.38	14313
917.491	14336
917.603	14370
917.715	14358
917.826	14393
917.938	14286
918.049	14282
918.161	14263
918.272	14484
918.384	14415
918.495	14317
918.606	14153
918.717	14107
918.828	14176
918.939	14138
919.05	14020
919.161	14081
919.272	13879
919.383	14027
919.494	14111
919.604	14358
919.715	14077
919.826	13978
919.936	13993
920.047	14138
920.157	14035
920.267	14328
920.378	14126
920.488	14069
920.598	14332
920.708	14404
920.818	14180
920.928	14214
921.038	14400
921.148	14324
921.258	14001
921.368	13944
921.477	13841
921.587	13799
921.697	13753
921.806	13807
921.916	13731
922.025	13647
922.134	13514
922.244	13392
922.353	13514
922.462	13312
922.571	13358
922.68	13240
922.789	13141
922.898	13126
923.007	13179
923.116	13152
923.224	13099
923.333	13050
923.442	12951
923.55	13000
923.659	12966
923.767	13015
923.876	12909
923.984	12966
924.092	12871
924.201	12894
924.309	12867
924.417	12897
924.525	12821
924.633	12749
924.741	13776
924.849	12608
924.956	12825
925.064	12601
925.172	12528
925.279	12582
925.387	12635
925.494	12650
925.602	12772
925.709	12555
925.816	12483
925.924	12532
926.031	12597
926.138	12544
926.245	12528
926.352	12525
926.459	12509
926.566	12551
926.673	12437
926.779	12346
926.886	12311
926.993	12167
927.099	12243
927.206	12087
927.312	12060
927.419	12125
927.525	12167
927.631	12235
927.737	12022
927.843	12003
927.95	11859
928.056	11988
928.162	11999
928.267	12022
928.373	12585
928.479	12057
928.585	11748
928.69	11973
928.796	11923
928.901	11832
929.007	11668
929.112	11802
929.218	11760
929.323	11771
929.428	11767
929.533	11836
929.638	11672
929.743	11688
929.848	11722
929.953	11627
930.058	11490
930.163	11406
930.267	11406
930.372	11554
930.477	11383
930.581	11608
930.685	11501
930.79	11269
930.894	11284
930.998	11246
931.103	11414
931.207	11098
931.311	11010
931.415	10934
931.519	10687
931.623	10721
