Data from test_V78500241_1569.txt Node
Date: Fri Mar 25 15:20:46 CST 2022
User: usil
Spectrometer: V785-0024
Trigger mode: 0
Integration Time (sec): 4.000000E-1
Scans to average: 1
Nonlinearity correction enabled: false
Boxcar width: 0
Storing dark spectrum: false
XAxis mode: Wavelengths
Number of Pixels in Spectrum: 1024
>>>>>Begin Spectral Data<<<<<
801.071	28032
801.214	27880
801.356	27641
801.499	27690
801.641	27549
801.783	27507
801.926	27492
802.068	27515
802.211	27344
802.353	27443
802.496	27272
802.638	27100
802.78	27207
802.923	26990
803.065	26880
803.208	27081
803.35	27081
803.492	27199
803.635	27306
803.777	27256
803.919	27344
804.061	27701
804.204	27405
804.346	27207
804.488	27233
804.63	27336
804.773	27233
804.915	27291
805.057	27488
805.199	27344
805.341	27393
805.483	27500
805.626	27450
805.768	27359
805.91	27306
806.052	27420
806.194	27435
806.336	27595
806.478	27557
806.62	27492
806.762	27492
806.904	27606
807.046	27903
807.188	27914
807.33	27876
807.472	27979
807.614	27831
807.756	27876
807.898	27823
808.04	27812
808.182	27747
808.324	27918
808.465	27785
808.607	27953
808.749	28238
808.891	28249
809.033	28158
809.174	28120
809.316	27956
809.458	28131
809.6	28090
809.741	28101
809.883	28226
810.025	28557
810.166	28413
810.308	28405
810.45	28219
810.591	28337
810.733	28044
810.875	28059
811.016	27968
811.158	27937
811.299	28131
811.441	28261
811.582	28223
811.724	28230
811.865	28059
812.007	28059
812.148	27994
812.29	28044
812.431	28158
812.573	28440
812.714	28535
812.855	28618
812.997	28782
813.138	28885
813.279	28790
813.421	28637
813.562	28626
813.703	28561
813.845	28215
813.986	28002
814.127	27991
814.268	27850
814.41	27781
814.551	27751
814.692	27873
814.833	27618
814.974	27793
815.115	27793
815.256	27686
815.397	27690
815.539	27625
815.68	27648
815.821	27473
815.962	27682
816.103	27504
816.244	27443
816.385	27306
816.526	27355
816.666	27321
816.807	27154
816.948	27230
817.089	27230
817.23	27226
817.371	27020
817.512	27051
817.653	27039
817.793	26952
817.934	26998
818.075	27096
818.216	27173
818.356	27039
818.497	26918
818.638	26781
818.778	26902
818.919	26838
819.06	26883
819.2	26956
819.341	27081
819.481	27039
819.622	27279
819.762	27466
819.903	27283
820.043	27306
820.184	27348
820.324	27222
820.465	27252
820.605	27176
820.746	27108
820.886	27116
821.026	27272
821.167	27184
821.307	27279
821.447	27222
821.588	26971
821.728	26811
821.868	26708
822.008	26488
822.149	26590
822.289	26613
822.429	26244
822.569	26088
822.709	26275
822.849	26050
822.99	26062
823.13	26046
823.27	26005
823.41	25890
823.55	25700
823.69	25993
823.83	25830
823.97	25871
824.11	25563
824.25	25708
824.389	25712
824.529	25826
824.669	25734
824.809	25830
824.949	25856
825.089	25761
825.228	25719
825.368	25479
825.508	25567
825.648	25601
825.787	25635
825.927	25647
826.067	25521
826.206	25677
826.346	25643
826.485	25571
826.625	25479
826.765	25613
826.904	25597
827.044	25362
827.183	25400
827.323	25358
827.462	25464
827.601	25259
827.741	25221
827.88	25377
828.02	25099
828.159	25221
828.298	25308
828.437	25274
828.577	25069
828.716	25400
828.855	25050
828.994	24992
829.134	24992
829.273	25050
829.412	24916
829.551	24966
829.69	24947
829.829	24916
829.968	25107
830.107	25088
830.246	25031
830.385	25015
830.524	24939
830.663	24882
830.802	24730
830.941	24593
831.08	24616
831.219	24631
831.357	24741
831.496	24871
831.635	24627
831.774	24445
831.913	24540
832.051	24334
832.19	24384
832.329	24391
832.467	24232
832.606	24235
832.744	24285
832.883	24174
833.022	24140
833.16	24216
833.299	24258
833.437	24224
833.576	24247
833.714	24216
833.852	24388
833.991	24334
834.129	24467
834.267	24479
834.406	24380
834.544	24380
834.682	24285
834.821	24285
834.959	24399
835.097	24308
835.235	24171
835.373	24281
835.511	24270
835.65	24148
835.788	24178
835.926	24064
836.064	23965
836.202	24030
836.34	24057
836.478	24308
836.615	24155
836.753	24159
836.891	24140
837.029	24228
837.167	24034
837.305	24235
837.443	24030
837.58	23980
837.718	24106
837.856	24003
837.993	23756
838.131	23939
838.269	23790
838.406	23980
838.544	23874
838.681	23634
838.819	23596
838.956	23474
839.094	23505
839.231	23478
839.369	23531
839.506	23874
839.643	23729
839.781	23573
839.918	23277
840.055	23406
840.193	23345
840.33	23284
840.467	23284
840.604	23368
840.742	23558
840.879	23216
841.016	23189
841.153	23185
841.29	23497
841.427	23406
841.564	23315
841.701	23395
841.838	23520
841.975	23193
842.112	23307
842.249	23284
842.385	22946
842.522	23368
842.659	23136
842.796	23044
842.933	23117
843.069	23071
843.206	22957
843.343	23166
843.479	23075
843.616	23025
843.752	22831
843.889	22908
844.025	23151
844.162	22946
844.298	22961
844.435	22896
844.571	22889
844.708	23060
844.844	23128
844.98	22953
845.117	22904
845.253	22729
845.389	22691
845.525	22733
845.661	22622
845.798	22615
845.934	22702
846.07	22584
846.206	22759
846.342	22649
846.478	22538
846.614	22462
846.75	22329
846.886	22375
847.022	22409
847.158	22390
847.294	22318
847.429	22405
847.565	22204
847.701	22497
847.837	21968
847.972	22063
848.108	22150
848.244	22090
848.379	22036
848.515	21941
848.65	21895
848.786	21930
848.921	21930
849.057	22032
849.192	22032
849.328	22055
849.463	21880
849.598	21846
849.734	21884
849.869	21766
850.004	21663
850.14	21747
850.275	21766
850.41	21561
850.545	21606
850.68	21747
850.815	21789
850.95	21694
851.085	21739
851.22	21770
851.355	21713
851.49	21679
851.625	21633
851.76	21561
851.895	21526
852.03	21564
852.165	21770
852.299	21747
852.434	21743
852.569	21804
852.703	21705
852.838	21698
852.973	21797
853.107	21869
853.242	21614
853.376	21644
853.511	21408
853.645	21485
853.78	21637
853.914	21511
854.048	21500
854.183	21469
854.317	21705
854.451	21679
854.585	21496
854.72	21492
854.854	21690
854.988	21481
855.122	21526
855.256	21458
855.39	21519
855.524	21717
855.658	21622
855.792	21466
855.926	21545
856.06	21625
856.194	21717
856.327	21443
856.461	21439
856.595	21450
856.729	21336
856.862	21637
856.996	21572
857.13	21583
857.263	21587
857.397	21663
857.53	21485
857.664	21679
857.797	21686
857.931	21705
858.064	21507
858.197	21686
858.331	21564
858.464	21393
858.597	21294
858.731	21435
858.864	21431
858.997	21443
859.13	21603
859.263	21435
859.396	21618
859.529	21538
859.662	21355
859.795	21351
859.928	21545
860.061	21545
860.194	21660
860.327	21542
860.46	21568
860.592	21583
860.725	21728
860.858	21568
860.99	21511
861.123	21447
861.256	21374
861.388	21450
861.521	22109
861.653	21370
861.786	21374
861.918	21344
862.05	21393
862.183	21473
862.315	21450
862.447	21526
862.58	21405
862.712	21317
862.844	21169
862.976	21336
863.108	21336
863.24	21629
863.372	21230
863.504	21245
863.636	21226
863.768	21207
863.9	21317
864.032	21161
864.164	21051
864.296	21218
864.428	21367
864.559	21302
864.691	21214
864.823	21264
864.954	21146
865.086	21199
865.217	21203
865.349	21028
865.48	21039
865.612	21169
865.743	21275
865.875	21142
866.006	21077
866.137	21165
866.269	21096
866.4	20998
866.531	21066
866.662	21089
866.793	21043
866.924	21005
867.055	21233
867.186	21146
867.317	20937
867.448	21009
867.579	21020
867.71	20941
867.841	21017
867.972	21047
868.103	20929
868.233	21135
868.364	21093
868.495	21028
868.625	21382
868.756	21325
868.886	21138
869.017	21355
869.147	21321
869.278	21420
869.408	21363
869.539	21291
869.669	21370
869.799	21355
869.929	21450
870.06	21370
870.19	21572
870.32	21568
870.45	21656
870.58	21713
870.71	21899
870.84	21842
870.97	21709
871.1	21629
871.23	21793
871.36	21884
871.489	21732
871.619	21968
871.749	21911
871.879	21846
872.008	21915
872.138	21835
872.267	21846
872.397	21762
872.526	21690
872.656	21728
872.785	21831
872.915	21880
873.044	22029
873.173	21960
873.303	21972
873.432	22010
873.561	21968
873.69	21934
873.819	21968
873.948	21899
874.077	21949
874.206	21812
874.335	21956
874.464	22040
874.593	22044
874.722	22135
874.851	22135
874.979	22143
875.108	22128
875.237	22093
875.365	22013
875.494	22086
875.623	22249
875.751	22135
875.88	22124
876.008	22166
876.136	22352
876.265	22504
876.393	22516
876.521	22523
876.65	22603
876.778	22462
876.906	22470
877.034	22360
877.162	22455
877.29	22409
877.418	22390
877.546	22421
877.674	22421
877.802	22497
877.93	22516
878.058	22382
878.185	22363
878.313	22504
878.441	22402
878.568	22371
878.696	22363
878.824	22333
878.951	22599
879.079	22577
879.206	22698
879.333	22577
879.461	22516
879.588	22550
879.715	22675
879.842	22831
879.97	22561
880.097	22303
880.224	22200
880.351	22329
880.478	22204
880.605	22337
880.732	22249
880.859	22531
880.986	22215
881.112	22261
881.239	22124
881.366	22040
881.493	21937
881.619	21903
881.746	21960
881.872	21827
881.999	21865
882.125	21762
882.252	21827
882.378	21827
882.505	21949
882.631	21743
882.757	21644
882.883	21603
883.01	21591
883.136	21583
883.262	21534
883.388	21462
883.514	21557
883.64	21561
883.766	21595
883.892	21237
884.018	21355
884.143	21553
884.269	21511
884.395	21351
884.52	21207
884.646	21230
884.772	21096
884.897	21146
885.023	21233
885.148	21294
885.274	21260
885.399	21287
885.524	21222
885.65	21142
885.775	21165
885.9	21047
886.025	21245
886.15	21195
886.275	21283
886.4	21146
886.525	21203
886.65	21096
886.775	21108
886.9	21211
887.025	21359
887.149	21256
887.274	21036
887.399	21047
887.523	21017
887.648	21013
887.773	20952
887.897	21150
888.021	20982
888.146	20876
888.27	21039
888.395	21077
888.519	20963
888.643	21055
888.767	21138
888.891	20895
889.015	20746
889.139	20929
889.263	20777
889.387	20788
889.511	20887
889.635	20902
889.759	20640
889.883	20758
890.006	20823
890.13	20804
890.254	20640
890.377	20648
890.501	20522
890.624	20473
890.748	20507
890.871	20461
890.995	20351
891.118	20248
891.241	20351
891.364	20298
891.488	20442
891.611	20347
891.734	20343
891.857	20484
891.98	20305
892.103	20396
892.226	20347
892.349	20278
892.471	20092
892.594	20210
892.717	20415
892.839	20240
892.962	20229
893.085	20305
893.207	20145
893.33	20130
893.452	20225
893.575	20305
893.697	20111
893.819	20244
893.941	20465
894.064	20389
894.186	20134
894.308	20111
894.43	20358
894.552	20298
894.674	20339
894.796	20267
894.918	20202
895.04	20229
895.161	20240
895.283	20183
895.405	20149
895.526	20240
895.648	20195
895.769	20199
895.891	20096
896.012	20324
896.134	20263
896.255	20225
896.376	20183
896.498	20065
896.619	20206
896.74	20153
896.861	20267
896.982	20530
897.103	20606
897.224	20598
897.345	20366
897.466	20377
897.587	20415
897.708	20511
897.828	20374
897.949	20286
898.07	20259
898.19	20423
898.311	20484
898.431	20431
898.552	20381
898.672	20533
898.792	20526
898.913	20427
899.033	20324
899.153	20233
899.273	20172
899.393	20282
899.513	20138
899.633	20225
899.753	20183
899.873	20134
899.993	20244
900.113	20252
900.232	20103
900.352	20016
900.472	19917
900.591	19845
900.711	19997
900.83	19955
900.95	20149
901.069	20062
901.189	19986
901.308	19674
901.427	19590
901.546	19533
901.665	19590
901.784	19533
901.904	19400
902.023	19282
902.141	19194
902.26	19053
902.379	19126
902.498	18981
902.617	19012
902.735	19053
902.854	18993
902.973	18932
903.091	18764
903.21	18768
903.328	18753
903.446	18593
903.565	18445
903.683	18597
903.801	18391
903.919	18513
904.038	18551
904.156	18277
904.274	18346
904.392	18327
904.51	18277
904.627	18262
904.745	18391
904.863	18338
904.981	18144
905.098	17904
905.216	18015
905.334	17961
905.451	18034
905.569	17885
905.686	17870
905.803	17961
905.921	17824
906.038	17836
906.155	17707
906.272	17718
906.389	17604
906.506	17539
906.623	17520
906.74	17581
906.857	17364
906.974	17391
907.091	17467
907.208	17600
907.324	17524
907.441	17402
907.557	17368
907.674	17250
907.79	17079
907.907	17185
908.023	17254
908.139	17246
908.256	17162
908.372	17086
908.488	17136
908.604	16953
908.72	16866
908.836	16946
908.952	16736
909.068	16972
909.184	16987
909.3	17003
909.415	16942
909.531	16850
909.647	16565
909.762	16637
909.878	16588
909.993	16618
910.108	16577
910.224	16584
910.339	16588
910.454	16489
910.57	16455
910.685	16424
910.8	16721
910.915	16580
911.03	16390
911.145	16215
911.259	16299
911.374	16242
911.489	16181
911.604	16147
911.718	16002
911.833	16017
911.947	15892
912.062	15789
912.176	16040
912.291	16017
912.405	15918
912.519	16196
912.633	16200
912.748	16044
912.862	15861
912.976	15804
913.09	15629
913.204	15679
913.318	15701
913.431	15854
913.545	15827
913.659	15751
913.772	15717
913.886	15816
914	15564
914.113	15690
914.226	15660
914.34	15709
914.453	15477
914.566	15564
914.68	15538
914.793	15420
914.906	15161
915.019	15199
915.132	15169
915.245	15161
915.358	15119
915.47	15294
915.583	15192
915.696	15192
915.809	15336
915.921	15310
916.034	15100
916.146	15085
916.259	15039
916.371	15161
916.483	15097
916.595	15074
916.708	14990
916.82	14925
916.932	14990
917.044	15001
917.156	14864
917.268	14845
917.38	14758
917.491	14872
917.603	14891
917.715	14834
917.826	14914
917.938	14807
918.049	14659
918.161	14781
918.272	14899
918.384	14830
918.495	14815
918.606	14701
918.717	14663
918.828	14587
918.939	14571
919.05	14473
919.161	14473
919.272	14374
919.383	14568
919.494	14629
919.604	14781
919.715	14549
919.826	14579
919.936	14575
920.047	14670
920.157	14549
920.267	14785
920.378	14552
920.488	14537
920.598	14716
920.708	14720
920.818	14564
920.928	14727
921.038	14895
921.148	14830
921.258	14400
921.368	14438
921.477	14275
921.587	14267
921.697	14096
921.806	14339
921.916	14161
922.025	13913
922.134	13959
922.244	13841
922.353	13967
922.462	13795
922.571	13670
922.68	13605
922.789	13632
922.898	13567
923.007	13464
923.116	13601
923.224	13552
923.333	13594
923.442	13510
923.55	13422
923.659	13350
923.767	13415
923.876	13403
923.984	13415
924.092	13289
924.201	13362
924.309	13278
924.417	13293
924.525	13194
924.633	13289
924.741	13963
924.849	13031
924.956	13263
925.064	13076
925.172	12962
925.279	13126
925.387	12939
925.494	13004
925.602	13076
925.709	12970
925.816	12920
925.924	12947
926.031	13023
926.138	12871
926.245	13053
926.352	12871
926.459	12962
926.566	13019
926.673	12905
926.779	12810
926.886	12684
926.993	12620
927.099	12608
927.206	12521
927.312	12403
927.419	12574
927.525	12547
927.631	12620
927.737	12391
927.843	12437
927.95	12270
928.056	12319
928.162	12353
928.267	12498
928.373	13027
928.479	12456
928.585	12220
928.69	12391
928.796	12410
928.901	12186
929.007	12133
929.112	12254
929.218	12197
929.323	12159
929.428	12053
929.533	12243
929.638	12060
929.743	12041
929.848	12091
929.953	12068
930.058	11923
930.163	11771
930.267	11866
930.372	12041
930.477	11722
930.581	11958
930.685	11821
930.79	11707
930.894	11630
930.998	11611
931.103	11824
931.207	11414
931.311	11349
931.415	11311
931.519	10980
931.623	11033
