Data from test_V78500241_2409.txt Node
Date: Fri Mar 25 15:26:37 CST 2022
User: usil
Spectrometer: V785-0024
Trigger mode: 0
Integration Time (sec): 4.000000E-1
Scans to average: 1
Nonlinearity correction enabled: false
Boxcar width: 0
Storing dark spectrum: false
XAxis mode: Wavelengths
Number of Pixels in Spectrum: 1024
>>>>>Begin Spectral Data<<<<<
801.071	27184
801.214	27077
801.356	26971
801.499	26796
801.641	26716
801.783	26564
801.926	26743
802.068	26667
802.211	26514
802.353	26651
802.496	26366
802.638	26347
802.78	26332
802.923	26290
803.065	26377
803.208	26298
803.35	26389
803.492	26453
803.635	26488
803.777	26419
803.919	26408
804.061	26640
804.204	26537
804.346	26499
804.488	26351
804.63	26313
804.773	26351
804.915	26423
805.057	26583
805.199	26438
805.341	26629
805.483	26533
805.626	26530
805.768	26431
805.91	26651
806.052	26651
806.194	26461
806.336	26739
806.478	26613
806.62	26629
806.762	26560
806.904	26883
807.046	27055
807.188	26921
807.33	27043
807.472	27009
807.614	26864
807.756	26960
807.898	26830
808.04	26731
808.182	26739
808.324	26864
808.465	26842
808.607	27116
808.749	27283
808.891	27249
809.033	27370
809.174	27058
809.316	27138
809.458	27169
809.6	27093
809.741	27302
809.883	27416
810.025	27469
810.166	27542
810.308	27359
810.45	27294
810.591	27454
810.733	27077
810.875	27165
811.016	27032
811.158	27089
811.299	27154
811.441	27226
811.582	27367
811.724	27039
811.865	27089
812.007	27077
812.148	27176
812.29	27199
812.431	27359
812.573	27458
812.714	27561
812.855	27743
812.997	27717
813.138	27998
813.279	27880
813.421	27610
813.562	27534
813.703	27572
813.845	27351
813.986	27055
814.127	26956
814.268	26906
814.41	26819
814.551	26849
814.692	26861
814.833	26796
814.974	26804
815.115	27013
815.256	26788
815.397	26568
815.539	26819
815.68	26552
815.821	26609
815.962	26625
816.103	26488
816.244	26469
816.385	26389
816.526	26225
816.666	26142
816.807	26008
816.948	26305
817.089	26183
817.23	26111
817.371	26054
817.512	26054
817.653	26043
817.793	25902
817.934	26134
818.075	25997
818.216	26119
818.356	26012
818.497	25883
818.638	25864
818.778	25780
818.919	25784
819.06	25807
819.2	26016
819.341	26046
819.481	26058
819.622	26233
819.762	26423
819.903	26351
820.043	26252
820.184	26138
820.324	26229
820.465	26324
820.605	26191
820.746	26206
820.886	26020
821.026	26122
821.167	26183
821.307	26199
821.447	26103
821.588	25993
821.728	25864
821.868	25651
822.008	25601
822.149	25628
822.289	25594
822.429	25304
822.569	25202
822.709	25263
822.849	25129
822.99	25012
823.13	25046
823.27	25126
823.41	24779
823.55	24814
823.69	24928
823.83	24890
823.97	24757
824.11	24593
824.25	24612
824.389	24688
824.529	24833
824.669	24665
824.809	24768
824.949	24730
825.089	24684
825.228	24654
825.368	24597
825.508	24665
825.648	24467
825.787	24627
825.927	24707
826.067	24414
826.206	24578
826.346	24475
826.485	24585
826.625	24623
826.765	24593
826.904	24582
827.044	24350
827.183	24308
827.323	24346
827.462	24251
827.601	24148
827.741	24239
827.88	24167
828.02	24136
828.159	24251
828.298	24079
828.437	24239
828.577	24224
828.716	24369
828.855	24129
828.994	23927
829.134	23939
829.273	23863
829.412	23771
829.551	24026
829.69	23996
829.829	23969
829.968	24114
830.107	24041
830.246	23866
830.385	23927
830.524	23992
830.663	23653
830.802	23573
830.941	23467
831.08	23490
831.219	23551
831.357	23478
831.496	23824
831.635	23646
831.774	23372
831.913	23322
832.051	23288
832.19	23318
832.329	23391
832.467	23181
832.606	23147
832.744	23159
832.883	23197
833.022	23254
833.16	23261
833.299	23258
833.437	23159
833.576	23356
833.714	23334
833.852	23372
833.991	23387
834.129	23337
834.267	23269
834.406	23334
834.544	23326
834.682	23273
834.821	23216
834.959	23524
835.097	23269
835.235	23307
835.373	23299
835.511	23269
835.65	23102
835.788	23181
835.926	23117
836.064	22980
836.202	23056
836.34	23086
836.478	23246
836.615	23048
836.753	23109
836.891	23273
837.029	23140
837.167	23162
837.305	23155
837.443	22984
837.58	23006
837.718	23098
837.856	22961
837.993	22972
838.131	22885
838.269	22885
838.406	22858
838.544	22778
838.681	22694
838.819	22660
838.956	22542
839.094	22557
839.231	22577
839.369	22630
839.506	22896
839.643	22706
839.781	22424
839.918	22394
840.055	22493
840.193	22432
840.33	22409
840.467	22455
840.604	22432
840.742	22630
840.879	22272
841.016	22341
841.153	22413
841.29	22417
841.427	22341
841.564	22455
841.701	22390
841.838	22284
841.975	22314
842.112	22363
842.249	22238
842.385	22162
842.522	22318
842.659	22169
842.796	22032
842.933	22211
843.069	22101
843.206	22128
843.343	22082
843.479	22109
843.616	22078
843.752	21895
843.889	21983
844.025	22078
844.162	21831
844.298	22067
844.435	21960
844.571	21953
844.708	22048
844.844	22112
844.98	22158
845.117	22040
845.253	22006
845.389	21865
845.525	21903
845.661	21774
845.798	21724
845.934	21690
846.07	21751
846.206	21766
846.342	21884
846.478	21739
846.614	21583
846.75	21329
846.886	21348
847.022	21542
847.158	21351
847.294	21462
847.429	21564
847.565	21439
847.701	21660
847.837	21188
847.972	21127
848.108	21154
848.244	21150
848.379	21051
848.515	21009
848.65	21062
848.786	21005
848.921	21047
849.057	21039
849.192	21070
849.328	21001
849.463	21062
849.598	20918
849.734	20845
849.869	20838
850.004	20838
850.14	20769
850.275	20796
850.41	20708
850.545	20788
850.68	20720
850.815	20861
850.95	20868
851.085	20998
851.22	20910
851.355	20716
851.49	20804
851.625	20697
851.76	20792
851.895	20617
852.03	20632
852.165	20845
852.299	20830
852.434	20834
852.569	20758
852.703	20830
852.838	20754
852.973	20902
853.107	20849
853.242	20857
853.376	20621
853.511	20522
853.645	20594
853.78	20686
853.914	20632
854.048	20545
854.183	20609
854.317	20674
854.451	20788
854.585	20655
854.72	20530
854.854	20667
854.988	20708
855.122	20629
855.256	20415
855.39	20511
855.524	20625
855.658	20583
855.792	20648
855.926	20636
856.06	20629
856.194	20792
856.327	20617
856.461	20552
856.595	20560
856.729	20648
856.862	20667
856.996	20640
857.13	20712
857.263	20712
857.397	20537
857.53	20549
857.664	20609
857.797	20727
857.931	20663
858.064	20655
858.197	20670
858.331	20598
858.464	20522
858.597	20476
858.731	20514
858.864	20579
858.997	20621
859.13	20682
859.263	20575
859.396	20769
859.529	20545
859.662	20518
859.795	20632
859.928	20667
860.061	20697
860.194	20720
860.327	20682
860.46	20640
860.592	20731
860.725	20686
860.858	20769
860.99	20606
861.123	20438
861.256	20503
861.388	20514
861.521	21195
861.653	20522
861.786	20518
861.918	20454
862.05	20427
862.183	20556
862.315	20583
862.447	20606
862.58	20541
862.712	20351
862.844	20358
862.976	20374
863.108	20385
863.24	20769
863.372	20313
863.504	20351
863.636	20351
863.768	20278
863.9	20290
864.032	20214
864.164	20313
864.296	20286
864.428	20328
864.559	20450
864.691	20294
864.823	20343
864.954	20317
865.086	20298
865.217	20313
865.349	20168
865.48	20233
865.612	20229
865.743	20305
865.875	20237
866.006	20320
866.137	20221
866.269	20153
866.4	20237
866.531	20252
866.662	20046
866.793	20046
866.924	20172
867.055	20180
867.186	20214
867.317	20221
867.448	20134
867.579	20210
867.71	20035
867.841	20138
867.972	20142
868.103	20130
868.233	20256
868.364	20282
868.495	20225
868.625	20343
868.756	20545
868.886	20271
869.017	20423
869.147	20484
869.278	20564
869.408	20526
869.539	20358
869.669	20537
869.799	20526
869.929	20442
870.06	20465
870.19	20697
870.32	20746
870.45	20712
870.58	20918
870.71	20944
870.84	20960
870.97	20720
871.1	20785
871.23	20975
871.36	21070
871.489	20853
871.619	21009
871.749	20849
871.879	21074
872.008	21077
872.138	21074
872.267	21051
872.397	20800
872.526	20891
872.656	20861
872.785	20933
872.915	21009
873.044	21135
873.173	21085
873.303	21051
873.432	21047
873.561	21150
873.69	21066
873.819	21051
873.948	21150
874.077	21207
874.206	20986
874.335	21020
874.464	21096
874.593	21317
874.722	21165
874.851	21245
874.979	21302
875.108	21226
875.237	21165
875.365	21146
875.494	21108
875.623	21344
875.751	21230
875.88	21283
876.008	21443
876.136	21473
876.265	21622
876.393	21766
876.521	21838
876.65	21766
876.778	21671
876.906	21606
877.034	21530
877.162	21713
877.29	21644
877.418	21553
877.546	21648
877.674	21515
877.802	21812
877.93	21660
878.058	21549
878.185	21542
878.313	21614
878.441	21663
878.568	21412
878.696	21469
878.824	21637
878.951	21774
879.079	21880
879.206	21816
879.333	21743
879.461	21587
879.588	21751
879.715	21747
879.842	21915
879.97	21622
880.097	21519
880.224	21435
880.351	21428
880.478	21450
880.605	21351
880.732	21583
880.859	21671
880.986	21393
881.112	21473
881.239	21302
881.366	21230
881.493	21043
881.619	21074
881.746	21085
881.872	21127
881.999	20979
882.125	21017
882.252	21116
882.378	20952
882.505	21051
882.631	20834
882.757	20701
882.883	20880
883.01	20667
883.136	20727
883.262	20434
883.388	20651
883.514	20727
883.64	20804
883.766	20625
883.892	20484
884.018	20469
884.143	20724
884.269	20701
884.395	20461
884.52	20320
884.646	20347
884.772	20286
884.897	20271
885.023	20473
885.148	20499
885.274	20438
885.399	20522
885.524	20374
885.65	20465
885.775	20343
885.9	20328
886.025	20408
886.15	20480
886.275	20294
886.4	20313
886.525	20366
886.65	20320
886.775	20244
886.9	20412
887.025	20469
887.149	20423
887.274	20237
887.399	20221
887.523	20248
887.648	20122
887.773	19978
887.897	20286
888.021	20290
888.146	20100
888.27	20320
888.395	20286
888.519	20286
888.643	20145
888.767	20298
888.891	20008
889.015	19978
889.139	19944
889.263	19875
889.387	19970
889.511	20111
889.635	20027
889.759	19955
889.883	20115
890.006	20039
890.13	19974
890.254	19814
890.377	19879
890.501	19708
890.624	19594
890.748	19689
890.871	19689
890.995	19620
891.118	19533
891.241	19529
891.364	19453
891.488	19655
891.611	19609
891.734	19571
891.857	19658
891.98	19502
892.103	19647
892.226	19556
892.349	19464
892.471	19304
892.594	19445
892.717	19518
892.839	19571
892.962	19529
893.085	19392
893.207	19445
893.33	19422
893.452	19381
893.575	19510
893.697	19381
893.819	19556
893.941	19635
894.064	19597
894.186	19358
894.308	19384
894.43	19529
894.552	19552
894.674	19407
894.796	19407
894.918	19556
895.04	19335
895.161	19419
895.283	19533
895.405	19499
895.526	19575
895.648	19373
895.769	19430
895.891	19529
896.012	19632
896.134	19521
896.255	19491
896.376	19460
896.498	19491
896.619	19483
896.74	19575
896.861	19586
896.982	19982
897.103	20065
897.224	19856
897.345	19818
897.466	19696
897.587	19635
897.708	19868
897.828	19761
897.949	19670
898.07	19506
898.19	19651
898.311	19689
898.431	19662
898.552	19780
898.672	19791
898.792	19704
898.913	19772
899.033	19685
899.153	19563
899.273	19434
899.393	19438
899.513	19537
899.633	19559
899.753	19483
899.873	19381
899.993	19495
900.113	19392
900.232	19411
900.352	19346
900.472	19301
900.591	19202
900.711	19244
900.83	19225
900.95	19441
901.069	19430
901.189	19164
901.308	18894
901.427	18890
901.546	18817
901.665	18791
901.784	18890
901.904	18768
902.023	18669
902.141	18448
902.26	18376
902.379	18483
902.498	18350
902.617	18285
902.735	18384
902.854	18361
902.973	18372
903.091	18026
903.21	18053
903.328	18064
903.446	17954
903.565	17851
903.683	17958
903.801	17707
903.919	17824
904.038	17775
904.156	17691
904.274	17733
904.392	17646
904.51	17623
904.627	17543
904.745	17585
904.863	17627
904.981	17433
905.098	17345
905.216	17364
905.334	17410
905.451	17334
905.569	17254
905.686	17337
905.803	17440
905.921	17151
906.038	17258
906.155	17166
906.272	16984
906.389	17033
906.506	16930
906.623	16809
906.74	16767
906.857	16752
906.974	16630
907.091	16911
907.208	16904
907.324	16820
907.441	16744
907.557	16622
907.674	16611
907.79	16500
907.907	16603
908.023	16462
908.139	16592
908.256	16512
908.372	16394
908.488	16443
908.604	16379
908.72	16230
908.836	16204
908.952	16158
909.068	16371
909.184	16268
909.3	16272
909.415	16280
909.531	16234
909.647	16017
909.762	16090
909.878	15854
909.993	15808
910.108	15895
910.224	15892
910.339	15975
910.454	15800
910.57	15846
910.685	15789
910.8	16021
910.915	16006
911.03	15884
911.145	15690
911.259	15542
911.374	15580
911.489	15622
911.604	15447
911.718	15348
911.833	15412
911.947	15222
912.062	15245
912.176	15268
912.291	15329
912.405	15401
912.519	15466
912.633	15530
912.748	15359
912.862	15313
912.976	15241
913.09	15017
913.204	15131
913.318	15123
913.431	15363
913.545	15230
913.659	15218
913.772	15135
913.886	15047
914	14960
914.113	14986
914.226	15127
914.34	15085
914.453	14876
914.566	14941
914.68	14872
914.793	14800
914.906	14655
915.019	14625
915.132	14571
915.245	14556
915.358	14670
915.47	14693
915.583	14606
915.696	14571
915.809	14697
915.921	14796
916.034	14560
916.146	14632
916.259	14488
916.371	14621
916.483	14575
916.595	14450
916.708	14446
916.82	14446
916.932	14412
917.044	14499
917.156	14442
917.268	14320
917.38	14271
917.491	14240
917.603	14317
917.715	14400
917.826	14438
917.938	14278
918.049	14161
918.161	14180
918.272	14434
918.384	14389
918.495	14290
918.606	14145
918.717	14077
918.828	14176
918.939	14111
919.05	13932
919.161	14100
919.272	13799
919.383	13970
919.494	14039
919.604	14305
919.715	14050
919.826	13959
919.936	13947
920.047	14119
920.157	14043
920.267	14218
920.378	13997
920.488	14077
920.598	14172
920.708	14351
920.818	14138
920.928	14225
921.038	14332
921.148	14221
921.258	14046
921.368	13951
921.477	13784
921.587	13906
921.697	13708
921.806	13852
921.916	13636
922.025	13529
922.134	13464
922.244	13480
922.353	13533
922.462	13365
922.571	13240
922.68	13152
922.789	13164
922.898	13198
923.007	13103
923.116	13114
923.224	13050
923.333	13046
923.442	12977
923.55	12897
923.659	13046
923.767	12993
923.876	12871
923.984	12916
924.092	12833
924.201	12878
924.309	12928
924.417	12840
924.525	12738
924.633	12764
924.741	13742
924.849	12642
924.956	12715
925.064	12639
925.172	12616
925.279	12506
925.387	12574
925.494	12525
925.602	12665
925.709	12585
925.816	12456
925.924	12433
926.031	12540
926.138	12578
926.245	12528
926.352	12369
926.459	12528
926.566	12574
926.673	12456
926.779	12319
926.886	12376
926.993	12152
927.099	12155
927.206	12091
927.312	12144
927.419	12228
927.525	12140
927.631	12007
927.737	11999
927.843	11942
927.95	11889
928.056	11912
928.162	11969
928.267	12079
928.373	12585
928.479	12030
928.585	11817
928.69	11969
928.796	11954
928.901	11855
929.007	11642
929.112	11836
929.218	11767
929.323	11722
929.428	11699
929.533	11809
929.638	11566
929.743	11642
929.848	11726
929.953	11608
930.058	11600
930.163	11353
930.267	11406
930.372	11585
930.477	11341
930.581	11524
930.685	11440
930.79	11292
930.894	11311
930.998	11337
931.103	11417
931.207	11037
931.311	10930
931.415	10862
931.519	10744
931.623	10694
