Data from test_V78500241_602.txt Node
Date: Fri Mar 25 15:14:03 CST 2022
User: usil
Spectrometer: V785-0024
Trigger mode: 0
Integration Time (sec): 4.000000E-1
Scans to average: 1
Nonlinearity correction enabled: false
Boxcar width: 0
Storing dark spectrum: false
XAxis mode: Wavelengths
Number of Pixels in Spectrum: 1024
>>>>>Begin Spectral Data<<<<<
801.071	27427
801.214	27405
801.356	27108
801.499	27013
801.641	26918
801.783	27058
801.926	27017
802.068	26910
802.211	26906
802.353	26682
802.496	26636
802.638	26651
802.78	26617
802.923	26613
803.065	26541
803.208	26404
803.35	26640
803.492	26606
803.635	26716
803.777	26613
803.919	26743
804.061	27028
804.204	26857
804.346	26769
804.488	26644
804.63	26701
804.773	26659
804.915	26720
805.057	26872
805.199	26781
805.341	26815
805.483	26880
805.626	26872
805.768	26674
805.91	26883
806.052	26952
806.194	26887
806.336	27096
806.478	26906
806.62	26853
806.762	27005
806.904	27070
807.046	27469
807.188	27287
807.33	27313
807.472	27507
807.614	27279
807.756	27199
807.898	27077
808.04	27039
808.182	27127
808.324	27074
808.465	27127
808.607	27275
808.749	27454
808.891	27633
809.033	27622
809.174	27580
809.316	27458
809.458	27648
809.6	27488
809.741	27557
809.883	27724
810.025	27846
810.166	27823
810.308	27857
810.45	27747
810.591	27800
810.733	27530
810.875	27572
811.016	27397
811.158	27488
811.299	27603
811.441	27823
811.582	27603
811.724	27538
811.865	27435
812.007	27587
812.148	27367
812.29	27447
812.431	27675
812.573	27812
812.714	28048
812.855	28093
812.997	28036
813.138	28390
813.279	28291
813.421	28074
813.562	27975
813.703	27838
813.845	27800
813.986	27485
814.127	27469
814.268	27249
814.41	27161
814.551	27195
814.692	27146
814.833	27195
814.974	27203
815.115	27241
815.256	26918
815.397	27192
815.539	27085
815.68	26960
815.821	26834
815.962	27020
816.103	26906
816.244	26834
816.385	26716
816.526	26743
816.666	26708
816.807	26503
816.948	26682
817.089	26602
817.23	26625
817.371	26438
817.512	26446
817.653	26503
817.793	26526
817.934	26419
818.075	26476
818.216	26537
818.356	26431
818.497	26305
818.638	26157
818.778	26290
818.919	26130
819.06	26267
819.2	26332
819.341	26473
819.481	26488
819.622	26674
819.762	26712
819.903	26693
820.043	26689
820.184	26602
820.324	26648
820.465	26568
820.605	26636
820.746	26564
820.886	26507
821.026	26568
821.167	26507
821.307	26609
821.447	26484
821.588	26339
821.728	26145
821.868	26107
822.008	26081
822.149	25860
822.289	25997
822.429	25639
822.569	25700
822.709	25712
822.849	25487
822.99	25510
823.13	25453
823.27	25362
823.41	25358
823.55	25057
823.69	25285
823.83	25346
823.97	25198
824.11	24985
824.25	25023
824.389	25061
824.529	25145
824.669	25080
824.809	25202
824.949	25171
825.089	25179
825.228	25023
825.368	24939
825.508	24776
825.648	24909
825.787	25080
825.927	24924
826.067	24966
826.206	24962
826.346	24981
826.485	24977
826.625	24878
826.765	24935
826.904	24962
827.044	24700
827.183	24684
827.323	24688
827.462	24810
827.601	24711
827.741	24661
827.88	24658
828.02	24582
828.159	24722
828.298	24544
828.437	24642
828.577	24532
828.716	24753
828.855	24589
828.994	24365
829.134	24376
829.273	24502
829.412	24262
829.551	24338
829.69	24292
829.829	24395
829.968	24551
830.107	24528
830.246	24388
830.385	24296
830.524	24152
830.663	24197
830.802	24133
830.941	23889
831.08	23988
831.219	24072
831.357	24068
831.496	24163
831.635	23950
831.774	23882
831.913	23790
832.051	23771
832.19	23764
832.329	23908
832.467	23745
832.606	23638
832.744	23509
832.883	23638
833.022	23649
833.16	23687
833.299	23760
833.437	23756
833.576	23783
833.714	23775
833.852	23684
833.991	23703
834.129	23870
834.267	23836
834.406	23813
834.544	23752
834.682	23691
834.821	23691
834.959	23824
835.097	23649
835.235	23866
835.373	23619
835.511	23680
835.65	23634
835.788	23570
835.926	23414
836.064	23433
836.202	23448
836.34	23467
836.478	23608
836.615	23455
836.753	23589
836.891	23653
837.029	23562
837.167	23596
837.305	23455
837.443	23486
837.58	23231
837.718	23417
837.856	23433
837.993	23398
838.131	23417
838.269	23296
838.406	23292
838.544	23189
838.681	23147
838.819	23140
838.956	22790
839.094	22892
839.231	22923
839.369	23086
839.506	23322
839.643	23178
839.781	22942
839.918	22809
840.055	22908
840.193	22816
840.33	22763
840.467	22854
840.604	22782
840.742	23022
840.879	22691
841.016	22744
841.153	22729
841.29	22862
841.427	22877
841.564	22733
841.701	22869
841.838	22771
841.975	22584
842.112	22675
842.249	22687
842.385	22436
842.522	22675
842.659	22615
842.796	22500
842.933	22599
843.069	22584
843.206	22523
843.343	22668
843.479	22504
843.616	22615
843.752	22363
843.889	22455
844.025	22466
844.162	22253
844.298	22356
844.435	22352
844.571	22257
844.708	22428
844.844	22504
844.98	22474
845.117	22424
845.253	22280
845.389	22116
845.525	22356
845.661	22253
845.798	22131
845.934	22181
846.07	21956
846.206	22109
846.342	22177
846.478	22086
846.614	21838
846.75	21698
846.886	21713
847.022	21876
847.158	21873
847.294	21762
847.429	21819
847.565	21728
847.701	22135
847.837	21515
847.972	21526
848.108	21656
848.244	21667
848.379	21424
848.515	21359
848.65	21428
848.786	21397
848.921	21386
849.057	21519
849.192	21450
849.328	21393
849.463	21481
849.598	21389
849.734	21435
849.869	21291
850.004	21135
850.14	21157
850.275	21252
850.41	21093
850.545	21157
850.68	21123
850.815	21077
850.95	21169
851.085	21340
851.22	21348
851.355	21135
851.49	21245
851.625	21192
851.76	21203
851.895	21142
852.03	21081
852.165	21116
852.299	21233
852.434	21264
852.569	21230
852.703	21180
852.838	21226
852.973	21401
853.107	21176
853.242	21070
853.376	20994
853.511	20979
853.645	20937
853.78	21028
853.914	20971
854.048	20998
854.183	20899
854.317	20937
854.451	21199
854.585	20998
854.72	20990
854.854	21104
854.988	20986
855.122	21119
855.256	20941
855.39	21013
855.524	21051
855.658	21032
855.792	21081
855.926	21005
856.06	20937
856.194	21123
856.327	21005
856.461	20849
856.595	20918
856.729	21047
856.862	21093
856.996	21024
857.13	21062
857.263	21074
857.397	21165
857.53	21055
857.664	21093
857.797	21043
857.931	21119
858.064	21058
858.197	21150
858.331	21017
858.464	20975
858.597	20967
858.731	20990
858.864	21017
858.997	21100
859.13	20944
859.263	21085
859.396	20971
859.529	20944
859.662	20914
859.795	21001
859.928	20944
860.061	21119
860.194	21146
860.327	21074
860.46	20941
860.592	21096
860.725	21192
860.858	21127
860.99	21138
861.123	20910
861.256	20956
861.388	21077
861.521	21622
861.653	20944
861.786	20743
861.918	20887
862.05	20864
862.183	20887
862.315	20891
862.447	20902
862.58	20929
862.712	20811
862.844	20617
862.976	20765
863.108	20914
863.24	21112
863.372	20735
863.504	20815
863.636	20720
863.768	20773
863.9	20708
864.032	20754
864.164	20762
864.296	20800
864.428	20758
864.559	20918
864.691	20830
864.823	20670
864.954	20651
865.086	20560
865.217	20545
865.349	20381
865.48	20632
865.612	20613
865.743	20735
865.875	20575
866.006	20606
866.137	20522
866.269	20583
866.4	20507
866.531	20541
866.662	20488
866.793	20575
866.924	20545
867.055	20587
867.186	20617
867.317	20568
867.448	20457
867.579	20537
867.71	20450
867.841	20412
867.972	20697
868.103	20514
868.233	20560
868.364	20514
868.495	20655
868.625	20762
868.756	20872
868.886	20670
869.017	20883
869.147	20842
869.278	20967
869.408	20743
869.539	20785
869.669	20807
869.799	20864
869.929	20975
870.06	20921
870.19	21108
870.32	21085
870.45	21188
870.58	21070
870.71	21359
870.84	21256
870.97	21180
871.1	21173
871.23	21355
871.36	21431
871.489	21245
871.619	21351
871.749	21344
871.879	21469
872.008	21515
872.138	21367
872.267	21405
872.397	21252
872.526	21127
872.656	21252
872.785	21306
872.915	21329
873.044	21431
873.173	21370
873.303	21500
873.432	21462
873.561	21523
873.69	21332
873.819	21332
873.948	21473
874.077	21416
874.206	21431
874.335	21428
874.464	21496
874.593	21599
874.722	21606
874.851	21652
874.979	21641
875.108	21739
875.237	21538
875.365	21580
875.494	21720
875.623	21739
875.751	21595
875.88	21717
876.008	21793
876.136	21812
876.265	22070
876.393	22131
876.521	22116
876.65	22143
876.778	22036
876.906	21956
877.034	21983
877.162	22029
877.29	21953
877.418	21991
877.546	22139
877.674	21953
877.802	22036
877.93	21918
878.058	21968
878.185	21907
878.313	21808
878.441	21926
878.568	21930
878.696	21884
878.824	21975
878.951	22078
879.079	22116
879.206	22291
879.333	22013
879.461	22097
879.588	22150
879.715	22188
879.842	22379
879.97	22025
880.097	21854
880.224	21781
880.351	21842
880.478	21854
880.605	21739
880.732	21778
880.859	21918
880.986	21915
881.112	21789
881.239	21724
881.366	21610
881.493	21386
881.619	21496
881.746	21447
881.872	21294
881.999	21397
882.125	21306
882.252	21447
882.378	21431
882.505	21534
882.631	21165
882.757	21112
882.883	21154
883.01	21135
883.136	21043
883.262	21043
883.388	20971
883.514	21051
883.64	21131
883.766	21039
883.892	20842
884.018	20956
884.143	21135
884.269	21222
884.395	20811
884.52	20693
884.646	20746
884.772	20716
884.897	20644
885.023	20842
885.148	20788
885.274	20834
885.399	20857
885.524	20731
885.65	20705
885.775	20697
885.9	20701
886.025	20819
886.15	20765
886.275	20606
886.4	20663
886.525	20693
886.65	20651
886.775	20549
886.9	20914
887.025	20937
887.149	20731
887.274	20522
887.399	20499
887.523	20571
887.648	20404
887.773	20408
887.897	20522
888.021	20419
888.146	20469
888.27	20560
888.395	20602
888.519	20629
888.643	20541
888.767	20644
888.891	20438
889.015	20438
889.139	20442
889.263	20298
889.387	20343
889.511	20522
889.635	20454
889.759	20358
889.883	20320
890.006	20351
890.13	20377
890.254	20069
890.377	20221
890.501	20107
890.624	20024
890.748	20164
890.871	19947
890.995	19807
891.118	19841
891.241	19925
891.364	20005
891.488	20157
891.611	19898
891.734	19947
891.857	19894
891.98	19776
892.103	19928
892.226	19856
892.349	19837
892.471	19738
892.594	19845
892.717	19944
892.839	19753
892.962	19845
893.085	19890
893.207	19818
893.33	19677
893.452	19708
893.575	19795
893.697	19780
893.819	19807
893.941	20103
894.064	19986
894.186	19696
894.308	19708
894.43	19826
894.552	19830
894.674	19940
894.796	19731
894.918	19818
895.04	19852
895.161	19731
895.283	19841
895.405	19693
895.526	19712
895.648	19723
895.769	19814
895.891	19833
896.012	19894
896.134	19833
896.255	19837
896.376	19788
896.498	19894
896.619	19868
896.74	19769
896.861	19993
896.982	20126
897.103	20210
897.224	19989
897.345	20065
897.466	19818
897.587	19955
897.708	20107
897.828	20111
897.949	19974
898.07	19822
898.19	19928
898.311	20115
898.431	19898
898.552	20024
898.672	20065
898.792	20088
898.913	19944
899.033	19887
899.153	19879
899.273	19746
899.393	19841
899.513	19811
899.633	19803
899.753	19753
899.873	19753
899.993	19674
900.113	19715
900.232	19818
900.352	19609
900.472	19639
900.591	19616
900.711	19704
900.83	19438
900.95	19590
901.069	19799
901.189	19457
901.308	19255
901.427	19107
901.546	19168
901.665	19156
901.784	19183
901.904	19107
902.023	18871
902.141	18772
902.26	18749
902.379	18707
902.498	18620
902.617	18654
902.735	18722
902.854	18646
902.973	18563
903.091	18384
903.21	18304
903.328	18395
903.446	18251
903.565	18125
903.683	18053
903.801	18060
903.919	18083
904.038	18136
904.156	17836
904.274	18007
904.392	18011
904.51	17878
904.627	17866
904.745	17954
904.863	17893
904.981	17832
905.098	17577
905.216	17554
905.334	17592
905.451	17634
905.569	17668
905.686	17699
905.803	17532
905.921	17402
906.038	17532
906.155	17395
906.272	17254
906.389	17311
906.506	17056
906.623	17143
906.74	17113
906.857	17102
906.974	17075
907.091	17121
907.208	17258
907.324	17113
907.441	17014
907.557	16835
907.674	16889
907.79	16812
907.907	16748
908.023	16854
908.139	16847
908.256	16767
908.372	16752
908.488	16767
908.604	16573
908.72	16504
908.836	16561
908.952	16519
909.068	16538
909.184	16653
909.3	16588
909.415	16569
909.531	16637
909.647	16291
909.762	16291
909.878	16261
909.993	16268
910.108	16280
910.224	16287
910.339	16238
910.454	16177
910.57	16120
910.685	15968
910.8	16394
910.915	16207
911.03	16055
911.145	15953
911.259	15876
911.374	16006
911.489	15899
911.604	15770
911.718	15641
911.833	15709
911.947	15496
912.062	15405
912.176	15580
912.291	15530
912.405	15568
912.519	15781
912.633	15774
912.748	15701
912.862	15580
912.976	15416
913.09	15317
913.204	15310
913.318	15416
913.431	15538
913.545	15515
913.659	15568
913.772	15378
913.886	15359
914	15256
914.113	15348
914.226	15439
914.34	15218
914.453	15119
914.566	15287
914.68	15070
914.793	15108
914.906	14941
915.019	14883
915.132	14853
915.245	14826
915.358	14838
915.47	14868
915.583	14788
915.696	14872
915.809	14960
915.921	15058
916.034	14864
916.146	14796
916.259	14804
916.371	14887
916.483	14781
916.595	14651
916.708	14697
916.82	14651
916.932	14651
917.044	14659
917.156	14583
917.268	14526
917.38	14507
917.491	14465
917.603	14473
917.715	14564
917.826	14636
917.938	14396
918.049	14484
918.161	14469
918.272	14530
918.384	14552
918.495	14446
918.606	14377
918.717	14237
918.828	14206
918.939	14313
919.05	14161
919.161	14187
919.272	14062
919.383	14103
919.494	14278
919.604	14469
919.715	14252
919.826	14259
919.936	14229
920.047	14362
920.157	14229
920.267	14461
920.378	14305
920.488	14374
920.598	14408
920.708	14571
920.818	14370
920.928	14309
921.038	14488
921.148	14484
921.258	14256
921.368	14111
921.477	14024
921.587	13925
921.697	13830
921.806	13989
921.916	13864
922.025	13559
922.134	13715
922.244	13552
922.353	13609
922.462	13518
922.571	13407
922.68	13411
922.789	13304
922.898	13316
923.007	13213
923.116	13289
923.224	13316
923.333	13221
923.442	13145
923.55	13065
923.659	13080
923.767	13217
923.876	13057
923.984	13080
924.092	13019
924.201	13099
924.309	13008
924.417	13080
924.525	12958
924.633	13031
924.741	13685
924.849	12821
924.956	12905
925.064	12817
925.172	12654
925.279	12684
925.387	12749
925.494	12715
925.602	12856
925.709	12764
925.816	12662
925.924	12620
926.031	12715
926.138	12631
926.245	12688
926.352	12555
926.459	12711
926.566	12757
926.673	12700
926.779	12410
926.886	12517
926.993	12407
927.099	12369
927.206	12270
927.312	12163
927.419	12388
927.525	12300
927.631	12266
927.737	12232
927.843	12186
927.95	12064
928.056	12049
928.162	12087
928.267	12102
928.373	12760
928.479	12197
928.585	12030
928.69	12140
928.796	12079
928.901	11950
929.007	11916
929.112	11916
929.218	11889
929.323	11901
929.428	11874
929.533	11866
929.638	11885
929.743	11828
929.848	11851
929.953	11783
930.058	11657
930.163	11520
930.267	11501
930.372	11737
930.477	11444
930.581	11745
930.685	11665
930.79	11425
930.894	11421
930.998	11410
931.103	11547
931.207	11204
931.311	11102
931.415	11022
931.519	10862
931.623	10824
