Data from test_V78500241_2146.txt Node
Date: Fri Mar 25 15:24:48 CST 2022
User: usil
Spectrometer: V785-0024
Trigger mode: 0
Integration Time (sec): 4.000000E-1
Scans to average: 1
Nonlinearity correction enabled: false
Boxcar width: 0
Storing dark spectrum: false
XAxis mode: Wavelengths
Number of Pixels in Spectrum: 1024
>>>>>Begin Spectral Data<<<<<
801.071	27515
801.214	27351
801.356	27039
801.499	27020
801.641	26899
801.783	27055
801.926	27062
802.068	26918
802.211	26971
802.353	26739
802.496	26724
802.638	26606
802.78	26545
802.923	26575
803.065	26594
803.208	26583
803.35	26545
803.492	26564
803.635	26887
803.777	26644
803.919	26701
804.061	27192
804.204	26864
804.346	26758
804.488	26621
804.63	26845
804.773	26697
804.915	26807
805.057	26758
805.199	26762
805.341	26853
805.483	26937
805.626	26868
805.768	26876
805.91	26861
806.052	26861
806.194	26834
806.336	27005
806.478	26963
806.62	26910
806.762	27055
806.904	27195
807.046	27397
807.188	27340
807.33	27435
807.472	27211
807.614	27386
807.756	27340
807.898	27203
808.04	27150
808.182	27268
808.324	27199
808.465	27401
808.607	27427
808.749	27629
808.891	27629
809.033	27637
809.174	27576
809.316	27359
809.458	27439
809.6	27435
809.741	27614
809.883	27701
810.025	27835
810.166	27778
810.308	27831
810.45	27797
810.591	27713
810.733	27557
810.875	27587
811.016	27374
811.158	27329
811.299	27526
811.441	27816
811.582	27671
811.724	27660
811.865	27351
812.007	27595
812.148	27538
812.29	27629
812.431	27610
812.573	27762
812.714	28055
812.855	28029
812.997	28078
813.138	28314
813.279	28109
813.421	27918
813.562	28055
813.703	27987
813.845	27732
813.986	27420
814.127	27298
814.268	27329
814.41	27294
814.551	27184
814.692	27222
814.833	27104
814.974	27241
815.115	27302
815.256	27032
815.397	27062
815.539	27119
815.68	26990
815.821	26952
815.962	26933
816.103	27032
816.244	26785
816.385	26682
816.526	26940
816.666	26522
816.807	26438
816.948	26575
817.089	26579
817.23	26461
817.371	26400
817.512	26358
817.653	26393
817.793	26324
817.934	26351
818.075	26503
818.216	26488
818.356	26419
818.497	26263
818.638	26103
818.778	26172
818.919	26313
819.06	26172
819.2	26332
819.341	26476
819.481	26434
819.622	26609
819.762	26750
819.903	26667
820.043	26625
820.184	26556
820.324	26473
820.465	26629
820.605	26507
820.746	26503
820.886	26305
821.026	26457
821.167	26320
821.307	26674
821.447	26427
821.588	26309
821.728	26221
821.868	26126
822.008	25966
822.149	25970
822.289	25909
822.429	25689
822.569	25491
822.709	25693
822.849	25491
822.99	25346
823.13	25354
823.27	25274
823.41	25259
823.55	25152
823.69	25304
823.83	25373
823.97	25187
824.11	25008
824.25	24928
824.389	25095
824.529	25065
824.669	24939
824.809	25137
824.949	25156
825.089	25000
825.228	25008
825.368	24867
825.508	24848
825.648	24764
825.787	24856
825.927	25042
826.067	24768
826.206	24916
826.346	24916
826.485	25046
826.625	24817
826.765	25000
826.904	24825
827.044	24620
827.183	24623
827.323	24563
827.462	24681
827.601	24631
827.741	24658
827.88	24563
828.02	24490
828.159	24521
828.298	24677
828.437	24722
828.577	24639
828.716	24677
828.855	24490
828.994	24479
829.134	24213
829.273	24433
829.412	24346
829.551	24304
829.69	24228
829.829	24232
829.968	24232
830.107	24350
830.246	24353
830.385	24262
830.524	24281
830.663	24102
830.802	23942
830.941	23916
831.08	23939
831.219	23996
831.357	24007
831.496	24148
831.635	23950
831.774	23843
831.913	23805
832.051	23733
832.19	23710
832.329	23718
832.467	23653
832.606	23436
832.744	23531
832.883	23554
833.022	23429
833.16	23562
833.299	23623
833.437	23600
833.576	23634
833.714	23707
833.852	23627
833.991	23745
834.129	23676
834.267	23684
834.406	23509
834.544	23554
834.682	23596
834.821	23604
834.959	23798
835.097	23661
835.235	23691
835.373	23687
835.511	23615
835.65	23452
835.788	23486
835.926	23379
836.064	23235
836.202	23246
836.34	23566
836.478	23505
836.615	23360
836.753	23497
836.891	23376
837.029	23440
837.167	23516
837.305	23383
837.443	23395
837.58	23330
837.718	23467
837.856	23349
837.993	23296
838.131	23242
838.269	23105
838.406	23261
838.544	23113
838.681	23003
838.819	23006
838.956	22869
839.094	22847
839.231	22927
839.369	23006
839.506	23193
839.643	23098
839.781	22687
839.918	22698
840.055	22831
840.193	22573
840.33	22675
840.467	22656
840.604	22713
840.742	22866
840.879	22599
841.016	22759
841.153	22599
841.29	22843
841.427	22637
841.564	22778
841.701	22664
841.838	22622
841.975	22542
842.112	22538
842.249	22440
842.385	22417
842.522	22782
842.659	22504
842.796	22455
842.933	22455
843.069	22363
843.206	22394
843.343	22561
843.479	22413
843.616	22375
843.752	22394
843.889	22249
844.025	22284
844.162	22310
844.298	22348
844.435	22196
844.571	22128
844.708	22215
844.844	22409
844.98	22276
845.117	22162
845.253	22070
845.389	22051
845.525	22105
845.661	22105
845.798	21926
845.934	21972
846.07	22021
846.206	21915
846.342	22124
846.478	21987
846.614	21793
846.75	21595
846.886	21759
847.022	21785
847.158	21682
847.294	21690
847.429	21679
847.565	21690
847.701	21888
847.837	21488
847.972	21500
848.108	21534
848.244	21583
848.379	21374
848.515	21302
848.65	21340
848.786	21252
848.921	21291
849.057	21477
849.192	21348
849.328	21313
849.463	21355
849.598	21252
849.734	21195
849.869	21123
850.004	21104
850.14	21096
850.275	21024
850.41	21009
850.545	21001
850.68	20979
850.815	21051
850.95	21032
851.085	21245
851.22	21089
851.355	21074
851.49	21001
851.625	20998
851.76	21024
851.895	20956
852.03	21013
852.165	21131
852.299	21108
852.434	21127
852.569	21104
852.703	21077
852.838	21127
852.973	21192
853.107	21157
853.242	20918
853.376	20963
853.511	20754
853.645	20857
853.78	20918
853.914	20880
854.048	20739
854.183	20941
854.317	20868
854.451	21017
854.585	20830
854.72	20769
854.854	20777
854.988	20819
855.122	20982
855.256	20705
855.39	20883
855.524	20982
855.658	21009
855.792	20990
855.926	20876
856.06	20963
856.194	21013
856.327	20788
856.461	20792
856.595	20773
856.729	20834
856.862	20921
856.996	20895
857.13	20921
857.263	20994
857.397	20990
857.53	20845
857.664	20975
857.797	20994
857.931	20906
858.064	20994
858.197	20960
858.331	20735
858.464	20899
858.597	20686
858.731	20842
858.864	20880
858.997	20868
859.13	20868
859.263	20842
859.396	21013
859.529	20800
859.662	20902
859.795	20891
859.928	20956
860.061	21028
860.194	21039
860.327	20937
860.46	20982
860.592	20937
860.725	21096
860.858	20941
860.99	20842
861.123	20735
861.256	20804
861.388	20811
861.521	21587
861.653	20800
861.786	20575
861.918	20575
862.05	20667
862.183	20750
862.315	20883
862.447	20823
862.58	20636
862.712	20613
862.844	20476
862.976	20674
863.108	20617
863.24	20975
863.372	20450
863.504	20655
863.636	20457
863.768	20632
863.9	20575
864.032	20469
864.164	20556
864.296	20594
864.428	20758
864.559	20640
864.691	20773
864.823	20598
864.954	20465
865.086	20568
865.217	20461
865.349	20438
865.48	20450
865.612	20648
865.743	20644
865.875	20549
866.006	20412
866.137	20670
866.269	20469
866.4	20469
866.531	20351
866.662	20385
866.793	20298
866.924	20385
867.055	20488
867.186	20415
867.317	20404
867.448	20286
867.579	20408
867.71	20206
867.841	20256
867.972	20385
868.103	20374
868.233	20393
868.364	20476
868.495	20408
868.625	20655
868.756	20765
868.886	20575
869.017	20613
869.147	20754
869.278	20773
869.408	20701
869.539	20663
869.669	20727
869.799	20613
869.929	20788
870.06	20807
870.19	21062
870.32	20948
870.45	20979
870.58	21032
870.71	21222
870.84	21173
870.97	21066
871.1	21096
871.23	21279
871.36	21214
871.489	21093
871.619	21142
871.749	21173
871.879	21294
872.008	21298
872.138	21222
872.267	21203
872.397	21131
872.526	20975
872.656	21085
872.785	21154
872.915	21237
873.044	21393
873.173	21348
873.303	21386
873.432	21389
873.561	21348
873.69	21237
873.819	21367
873.948	21329
874.077	21367
874.206	21203
874.335	21287
874.464	21359
874.593	21564
874.722	21488
874.851	21504
874.979	21511
875.108	21435
875.237	21401
875.365	21462
875.494	21348
875.623	21637
875.751	21477
875.88	21667
876.008	21732
876.136	21652
876.265	21934
876.393	22040
876.521	21934
876.65	21953
876.778	21960
876.906	21934
877.034	21816
877.162	21846
877.29	21861
877.418	21915
877.546	21880
877.674	21842
877.802	21770
877.93	21838
878.058	21759
878.185	21652
878.313	21751
878.441	21812
878.568	21713
878.696	21884
878.824	21899
878.951	21846
879.079	22002
879.206	22105
879.333	22010
879.461	21876
879.588	21964
879.715	22029
879.842	22143
879.97	21930
880.097	21705
880.224	21698
880.351	21720
880.478	21743
880.605	21610
880.732	21682
880.859	21831
880.986	21675
881.112	21781
881.239	21564
881.366	21344
881.493	21252
881.619	21279
881.746	21428
881.872	21252
881.999	21249
882.125	21142
882.252	21389
882.378	21222
882.505	21348
882.631	21093
882.757	20952
882.883	21051
883.01	21039
883.136	21119
883.262	20872
883.388	20796
883.514	20975
883.64	21074
883.766	20902
883.892	20731
884.018	20777
884.143	20838
884.269	21005
884.395	20575
884.52	20541
884.646	20697
884.772	20541
884.897	20564
885.023	20651
885.148	20720
885.274	20708
885.399	20765
885.524	20674
885.65	20640
885.775	20522
885.9	20541
886.025	20762
886.15	20648
886.275	20625
886.4	20427
886.525	20514
886.65	20457
886.775	20476
886.9	20659
887.025	20849
887.149	20701
887.274	20423
887.399	20396
887.523	20438
887.648	20347
887.773	20259
887.897	20457
888.021	20415
888.146	20423
888.27	20408
888.395	20484
888.519	20400
888.643	20358
888.767	20434
888.891	20309
889.015	20157
889.139	20263
889.263	20126
889.387	20313
889.511	20294
889.635	20355
889.759	20172
889.883	20073
890.006	20210
890.13	20278
890.254	20191
890.377	20153
890.501	19989
890.624	19868
890.748	19928
890.871	19944
890.995	19803
891.118	19712
891.241	19723
891.364	19723
891.488	19875
891.611	19837
891.734	19681
891.857	19852
891.98	19616
892.103	19750
892.226	19753
892.349	19772
892.471	19457
892.594	19651
892.717	19677
892.839	19708
892.962	19788
893.085	19761
893.207	19670
893.33	19613
893.452	19658
893.575	19715
893.697	19518
893.819	19803
893.941	19864
894.064	19712
894.186	19639
894.308	19578
894.43	19860
894.552	19746
894.674	19681
894.796	19601
894.918	19704
895.04	19635
895.161	19719
895.283	19704
895.405	19556
895.526	19613
895.648	19719
895.769	19704
895.891	19719
896.012	19849
896.134	19807
896.255	19651
896.376	19586
896.498	19784
896.619	19761
896.74	19742
896.861	19674
896.982	20020
897.103	20130
897.224	19871
897.345	19955
897.466	19750
897.587	19746
897.708	19932
897.828	20020
897.949	19788
898.07	19757
898.19	19845
898.311	20046
898.431	19845
898.552	19845
898.672	19909
898.792	19940
898.913	19913
899.033	19799
899.153	19689
899.273	19655
899.393	19609
899.513	19693
899.633	19632
899.753	19651
899.873	19655
899.993	19632
900.113	19616
900.232	19521
900.352	19521
900.472	19457
900.591	19491
900.711	19495
900.83	19438
900.95	19533
901.069	19430
901.189	19339
901.308	19145
901.427	19053
901.546	18951
901.665	19000
901.784	19152
901.904	18951
902.023	18783
902.141	18692
902.26	18509
902.379	18616
902.498	18570
902.617	18467
902.735	18608
902.854	18486
902.973	18494
903.091	18220
903.21	18224
903.328	18251
903.446	18190
903.565	18110
903.683	17969
903.801	17912
903.919	18015
904.038	18114
904.156	17870
904.274	17980
904.392	17828
904.51	17733
904.627	17722
904.745	17870
904.863	17855
904.981	17661
905.098	17570
905.216	17486
905.334	17501
905.451	17376
905.569	17532
905.686	17383
905.803	17402
905.921	17288
906.038	17448
906.155	17231
906.272	17239
906.389	17128
906.506	17071
906.623	17018
906.74	17045
906.857	16938
906.974	16927
907.091	17132
907.208	17216
907.324	17094
907.441	16991
907.557	16809
907.674	16771
907.79	16622
907.907	16759
908.023	16698
908.139	16717
908.256	16805
908.372	16615
908.488	16634
908.604	16470
908.72	16432
908.836	16455
908.952	16402
909.068	16493
909.184	16546
909.3	16409
909.415	16470
909.531	16417
909.647	16162
909.762	16249
909.878	16071
909.993	16249
910.108	16150
910.224	16181
910.339	16166
910.454	15983
910.57	15934
910.685	16025
910.8	16150
910.915	16166
911.03	15949
911.145	15785
911.259	15720
911.374	15789
911.489	15717
911.604	15698
911.718	15561
911.833	15591
911.947	15439
912.062	15283
912.176	15473
912.291	15530
912.405	15595
912.519	15762
912.633	15709
912.748	15519
912.862	15538
912.976	15310
913.09	15169
913.204	15287
913.318	15351
913.431	15462
913.545	15526
913.659	15481
913.772	15348
913.886	15104
914	15066
914.113	15161
914.226	15306
914.34	15142
914.453	14982
914.566	15195
914.68	14956
914.793	15005
914.906	14842
915.019	14769
915.132	14739
915.245	14739
915.358	14655
915.47	14739
915.583	14686
915.696	14739
915.809	14857
915.921	14902
916.034	14739
916.146	14716
916.259	14621
916.371	14697
916.483	14727
916.595	14663
916.708	14651
916.82	14655
916.932	14530
917.044	14560
917.156	14564
917.268	14404
917.38	14541
917.491	14419
917.603	14431
917.715	14511
917.826	14457
917.938	14419
918.049	14358
918.161	14347
918.272	14526
918.384	14507
918.495	14351
918.606	14199
918.717	14134
918.828	14233
918.939	14233
919.05	14100
919.161	14168
919.272	13982
919.383	13986
919.494	14237
919.604	14400
919.715	14149
919.826	14123
919.936	14149
920.047	14221
920.157	14206
920.267	14366
920.378	14195
920.488	14157
920.598	14286
920.708	14484
920.818	14313
920.928	14225
921.038	14427
921.148	14389
921.258	14084
921.368	14054
921.477	13925
921.587	13833
921.697	13746
921.806	13940
921.916	13746
922.025	13582
922.134	13601
922.244	13533
922.353	13689
922.462	13453
922.571	13445
922.68	13274
922.789	13194
922.898	13228
923.007	13160
923.116	13206
923.224	13160
923.333	13232
923.442	13057
923.55	13034
923.659	13084
923.767	13122
923.876	12993
923.984	13133
924.092	12901
924.201	12996
924.309	12939
924.417	12928
924.525	12833
924.633	12924
924.741	13708
924.849	12654
924.956	12848
925.064	12772
925.172	12502
925.279	12582
925.387	12688
925.494	12673
925.602	12757
925.709	12627
925.816	12566
925.924	12711
926.031	12658
926.138	12483
926.245	12635
926.352	12490
926.459	12608
926.566	12665
926.673	12559
926.779	12479
926.886	12369
926.993	12262
927.099	12289
927.206	12254
927.312	12121
927.419	12251
927.525	12182
927.631	12220
927.737	12175
927.843	12095
927.95	12011
928.056	12220
928.162	12106
928.267	12053
928.373	12616
928.479	12087
928.585	11885
928.69	12034
928.796	12007
928.901	11901
929.007	11809
929.112	11859
929.218	11889
929.323	11847
929.428	11775
929.533	12015
929.638	11688
929.743	11684
929.848	11824
929.953	11733
930.058	11676
930.163	11406
930.267	11532
930.372	11585
930.477	11433
930.581	11577
930.685	11524
930.79	11356
930.894	11318
930.998	11337
931.103	11516
931.207	11090
931.311	11071
931.415	11022
931.519	10790
931.623	10744
