Data from test_V78500241_3318.txt Node
Date: Fri Mar 25 15:32:57 CST 2022
User: usil
Spectrometer: V785-0024
Trigger mode: 0
Integration Time (sec): 4.000000E-1
Scans to average: 1
Nonlinearity correction enabled: false
Boxcar width: 0
Storing dark spectrum: false
XAxis mode: Wavelengths
Number of Pixels in Spectrum: 1024
>>>>>Begin Spectral Data<<<<<
801.071	27367
801.214	27256
801.356	27039
801.499	27131
801.641	26872
801.783	26762
801.926	27009
802.068	26868
802.211	26819
802.353	26754
802.496	26655
802.638	26556
802.78	26514
802.923	26583
803.065	26415
803.208	26518
803.35	26461
803.492	26598
803.635	26678
803.777	26609
803.919	26655
804.061	27009
804.204	26636
804.346	26682
804.488	26518
804.63	26556
804.773	26552
804.915	26861
805.057	26807
805.199	26758
805.341	26773
805.483	26750
805.626	26648
805.768	26678
805.91	26807
806.052	26849
806.194	26697
806.336	26887
806.478	26804
806.62	26785
806.762	26940
806.904	27001
807.046	27214
807.188	27252
807.33	27176
807.472	27176
807.614	27116
807.756	27005
807.898	27222
808.04	26963
808.182	26990
808.324	27100
808.465	27154
808.607	27401
808.749	27481
808.891	27405
809.033	27507
809.174	27435
809.316	27427
809.458	27435
809.6	27367
809.741	27466
809.883	27530
810.025	27705
810.166	27549
810.308	27739
810.45	27644
810.591	27618
810.733	27435
810.875	27378
811.016	27275
811.158	27325
811.299	27583
811.441	27496
811.582	27553
811.724	27496
811.865	27466
812.007	27393
812.148	27249
812.29	27431
812.431	27481
812.573	27724
812.714	27720
812.855	27717
812.997	27960
813.138	28010
813.279	28010
813.421	27975
813.562	27739
813.703	27523
813.845	27466
813.986	27416
814.127	27249
814.268	27180
814.41	27001
814.551	26990
814.692	27093
814.833	27081
814.974	26963
815.115	27066
815.256	26849
815.397	26979
815.539	26921
815.68	26781
815.821	26773
815.962	26743
816.103	26788
816.244	26667
816.385	26602
816.526	26678
816.666	26415
816.807	26347
816.948	26370
817.089	26442
817.23	26396
817.371	26252
817.512	26419
817.653	26351
817.793	26259
817.934	26309
818.075	26404
818.216	26324
818.356	26244
818.497	26103
818.638	26134
818.778	26027
818.919	26031
819.06	26126
819.2	26164
819.341	26294
819.481	26210
819.622	26385
819.762	26640
819.903	26522
820.043	26453
820.184	26408
820.324	26552
820.465	26298
820.605	26526
820.746	26362
820.886	26313
821.026	26339
821.167	26324
821.307	26347
821.447	26294
821.588	26164
821.728	26149
821.868	25947
822.008	25811
822.149	25833
822.289	25757
822.429	25476
822.569	25457
822.709	25407
822.849	25304
822.99	25331
823.13	25324
823.27	25247
823.41	25012
823.55	24996
823.69	25065
823.83	25053
823.97	24954
824.11	24848
824.25	24878
824.389	24909
824.529	24878
824.669	24943
824.809	24985
824.949	24989
825.089	24966
825.228	24875
825.368	24642
825.508	24700
825.648	24719
825.787	24776
825.927	24852
826.067	24677
826.206	24787
826.346	24757
826.485	24802
826.625	24897
826.765	24817
826.904	24795
827.044	24544
827.183	24437
827.323	24422
827.462	24574
827.601	24517
827.741	24361
827.88	24639
828.02	24448
828.159	24429
828.298	24418
828.437	24525
828.577	24308
828.716	24563
828.855	24471
828.994	24152
829.134	24289
829.273	24136
829.412	24129
829.551	24201
829.69	24076
829.829	24232
829.968	24300
830.107	24304
830.246	24205
830.385	24155
830.524	24140
830.663	24030
830.802	23942
830.941	23843
831.08	23798
831.219	23805
831.357	23836
831.496	24034
831.635	23878
831.774	23672
831.913	23642
832.051	23623
832.19	23551
832.329	23570
832.467	23467
832.606	23410
832.744	23547
832.883	23410
833.022	23452
833.16	23512
833.299	23497
833.437	23543
833.576	23604
833.714	23551
833.852	23592
833.991	23573
834.129	23714
834.267	23680
834.406	23630
834.544	23703
834.682	23570
834.821	23653
834.959	23718
835.097	23596
835.235	23722
835.373	23703
835.511	23551
835.65	23459
835.788	23509
835.926	23280
836.064	23174
836.202	23212
836.34	23395
836.478	23501
836.615	23459
836.753	23463
836.891	23589
837.029	23490
837.167	23436
837.305	23292
837.443	23220
837.58	23151
837.718	23364
837.856	23364
837.993	23239
838.131	23307
838.269	23193
838.406	23216
838.544	23022
838.681	22999
838.819	22957
838.956	22869
839.094	22748
839.231	22748
839.369	22911
839.506	23105
839.643	22987
839.781	22793
839.918	22630
840.055	22793
840.193	22694
840.33	22839
840.467	22752
840.604	22744
840.742	22885
840.879	22504
841.016	22565
841.153	22649
841.29	22759
841.427	22660
841.564	22656
841.701	22618
841.838	22561
841.975	22683
842.112	22691
842.249	22573
842.385	22542
842.522	22698
842.659	22436
842.796	22413
842.933	22466
843.069	22333
843.206	22550
843.343	22504
843.479	22413
843.616	22470
843.752	22272
843.889	22265
844.025	22303
844.162	22173
844.298	22344
844.435	22219
844.571	22226
844.708	22120
844.844	22272
844.98	22303
845.117	22398
845.253	22044
845.389	22082
845.525	22246
845.661	21949
845.798	21903
845.934	22029
846.07	22017
846.206	21953
846.342	22025
846.478	21987
846.614	21800
846.75	21625
846.886	21557
847.022	21724
847.158	21739
847.294	21587
847.429	21648
847.565	21682
847.701	21850
847.837	21447
847.972	21329
848.108	21530
848.244	21549
848.379	21348
848.515	21256
848.65	21169
848.786	21294
848.921	21336
849.057	21397
849.192	21431
849.328	21222
849.463	21351
849.598	21268
849.734	21211
849.869	21104
850.004	21077
850.14	20925
850.275	20925
850.41	21017
850.545	20975
850.68	20937
850.815	21070
850.95	21066
851.085	21150
851.22	21161
851.355	21009
851.49	20944
851.625	21062
851.76	21142
851.895	21020
852.03	20994
852.165	20975
852.299	21081
852.434	21096
852.569	21077
852.703	20971
852.838	21074
852.973	21161
853.107	21245
853.242	20990
853.376	20883
853.511	20876
853.645	20849
853.78	21013
853.914	20819
854.048	20876
854.183	20868
854.317	20895
854.451	20929
854.585	20941
854.72	20880
854.854	20994
854.988	20804
855.122	20815
855.256	20807
855.39	20815
855.524	21005
855.658	20918
855.792	20944
855.926	20830
856.06	20838
856.194	20967
856.327	20910
856.461	20804
856.595	20796
856.729	20712
856.862	21009
856.996	20921
857.13	20929
857.263	20921
857.397	20948
857.53	20826
857.664	20887
857.797	20921
857.931	20975
858.064	20872
858.197	21047
858.331	20857
858.464	20792
858.597	20819
858.731	20811
858.864	20819
858.997	20819
859.13	20925
859.263	20921
859.396	20979
859.529	20838
859.662	20826
859.795	20826
859.928	20902
860.061	20967
860.194	21013
860.327	20895
860.46	20758
860.592	20963
860.725	21009
860.858	21013
860.99	20975
861.123	20769
861.256	20823
861.388	20838
861.521	21576
861.653	20750
861.786	20678
861.918	20689
862.05	20739
862.183	20617
862.315	20914
862.447	20864
862.58	20708
862.712	20499
862.844	20625
862.976	20636
863.108	20667
863.24	21051
863.372	20442
863.504	20522
863.636	20609
863.768	20602
863.9	20670
864.032	20587
864.164	20693
864.296	20609
864.428	20571
864.559	20746
864.691	20636
864.823	20594
864.954	20648
865.086	20404
865.217	20499
865.349	20328
865.48	20389
865.612	20358
865.743	20701
865.875	20575
866.006	20476
866.137	20518
866.269	20381
866.4	20579
866.531	20400
866.662	20404
866.793	20465
866.924	20488
867.055	20461
867.186	20408
867.317	20400
867.448	20351
867.579	20301
867.71	20347
867.841	20343
867.972	20434
868.103	20362
868.233	20389
868.364	20518
868.495	20454
868.625	20655
868.756	20667
868.886	20686
869.017	20701
869.147	20724
869.278	20781
869.408	20712
869.539	20670
869.669	20731
869.799	20705
869.929	20868
870.06	20777
870.19	20998
870.32	20811
870.45	20982
870.58	21039
870.71	21146
870.84	21237
870.97	21093
871.1	21116
871.23	21264
871.36	21241
871.489	21184
871.619	21249
871.749	21192
871.879	21245
872.008	21355
872.138	21237
872.267	21237
872.397	21218
872.526	21100
872.656	21214
872.785	21135
872.915	21192
873.044	21329
873.173	21298
873.303	21336
873.432	21302
873.561	21428
873.69	21329
873.819	21306
873.948	21477
874.077	21359
874.206	21291
874.335	21245
874.464	21355
874.593	21416
874.722	21576
874.851	21561
874.979	21561
875.108	21534
875.237	21458
875.365	21462
875.494	21492
875.623	21549
875.751	21526
875.88	21564
876.008	21656
876.136	21633
876.265	21865
876.393	22147
876.521	21869
876.65	22032
876.778	21884
876.906	21899
877.034	21956
877.162	21937
877.29	21937
877.418	21987
877.546	21865
877.674	21937
877.802	21823
877.93	21892
878.058	21880
878.185	21797
878.313	21766
878.441	21876
878.568	21785
878.696	21918
878.824	21816
878.951	21934
879.079	22032
879.206	22086
879.333	22105
879.461	21720
879.588	22021
879.715	21994
879.842	22162
879.97	21960
880.097	21770
880.224	21736
880.351	21819
880.478	21694
880.605	21587
880.732	21762
880.859	22097
880.986	21747
881.112	21580
881.239	21500
881.366	21393
881.493	21264
881.619	21393
881.746	21313
881.872	21351
881.999	21272
882.125	21222
882.252	21264
882.378	21298
882.505	21340
882.631	21074
882.757	20990
882.883	21154
883.01	21096
883.136	21001
883.262	20861
883.388	20769
883.514	20941
883.64	21013
883.766	20986
883.892	20823
884.018	20716
884.143	20902
884.269	21051
884.395	20648
884.52	20560
884.646	20720
884.772	20598
884.897	20511
885.023	20629
885.148	20724
885.274	20682
885.399	20716
885.524	20545
885.65	20689
885.775	20640
885.9	20651
886.025	20720
886.15	20739
886.275	20545
886.4	20541
886.525	20602
886.65	20617
886.775	20488
886.9	20697
887.025	20762
887.149	20621
887.274	20495
887.399	20294
887.523	20389
887.648	20408
887.773	20343
887.897	20465
888.021	20465
888.146	20374
888.27	20423
888.395	20568
888.519	20495
888.643	20351
888.767	20511
888.891	20385
889.015	20237
889.139	20362
889.263	20298
889.387	20408
889.511	20438
889.635	20336
889.759	20016
889.883	20221
890.006	20218
890.13	20259
890.254	20130
890.377	20062
890.501	20001
890.624	19955
890.748	20054
890.871	19875
890.995	19761
891.118	19715
891.241	19791
891.364	19780
891.488	19845
891.611	19913
891.734	19742
891.857	20050
891.98	19868
892.103	19852
892.226	19776
892.349	19700
892.471	19529
892.594	19689
892.717	19727
892.839	19670
892.962	19681
893.085	19731
893.207	19685
893.33	19727
893.452	19563
893.575	19772
893.697	19696
893.819	19849
893.941	19864
894.064	19731
894.186	19613
894.308	19677
894.43	19799
894.552	19875
894.674	19826
894.796	19693
894.918	19624
895.04	19704
895.161	19727
895.283	19814
895.405	19662
895.526	19742
895.648	19651
895.769	19734
895.891	19788
896.012	19811
896.134	19704
896.255	19795
896.376	19670
896.498	19712
896.619	19830
896.74	19757
896.861	19833
896.982	19993
897.103	20183
897.224	20046
897.345	19936
897.466	19871
897.587	20035
897.708	20054
897.828	20016
897.949	19902
898.07	19700
898.19	19963
898.311	19967
898.431	19894
898.552	19898
898.672	19967
898.792	20054
898.913	19917
899.033	19913
899.153	19788
899.273	19791
899.393	19643
899.513	19784
899.633	19578
899.753	19791
899.873	19609
899.993	19689
900.113	19620
900.232	19632
900.352	19704
900.472	19521
900.591	19312
900.711	19453
900.83	19346
900.95	19521
901.069	19586
901.189	19362
901.308	19171
901.427	18985
901.546	19122
901.665	19076
901.784	19110
901.904	18909
902.023	18814
902.141	18650
902.26	18578
902.379	18661
902.498	18559
902.617	18525
902.735	18703
902.854	18574
902.973	18521
903.091	18190
903.21	18148
903.328	18247
903.446	18106
903.565	18003
903.683	18163
903.801	17950
903.919	18034
904.038	17946
904.156	17828
904.274	17912
904.392	17798
904.51	17847
904.627	17798
904.745	17828
904.863	17786
904.981	17649
905.098	17421
905.216	17478
905.334	17448
905.451	17482
905.569	17417
905.686	17524
905.803	17387
905.921	17299
906.038	17383
906.155	17387
906.272	17265
906.389	17159
906.506	16999
906.623	17022
906.74	17018
906.857	16911
906.974	16908
907.091	17128
907.208	17250
907.324	17098
907.441	16995
907.557	16748
907.674	16831
907.79	16748
907.907	16672
908.023	16710
908.139	16755
908.256	16649
908.372	16664
908.488	16691
908.604	16546
908.72	16481
908.836	16558
908.952	16432
909.068	16535
909.184	16523
909.3	16459
909.415	16447
909.531	16466
909.647	16230
909.762	16287
909.878	16272
909.993	16131
910.108	16177
910.224	16192
910.339	16204
910.454	15987
910.57	16063
910.685	15983
910.8	16226
910.915	16086
911.03	16044
911.145	15899
911.259	15827
911.374	15770
911.489	15698
911.604	15671
911.718	15526
911.833	15580
911.947	15447
912.062	15473
912.176	15435
912.291	15576
912.405	15481
912.519	15705
912.633	15686
912.748	15610
912.862	15568
912.976	15462
913.09	15310
913.204	15378
913.318	15313
913.431	15466
913.545	15443
913.659	15568
913.772	15306
913.886	15252
914	15211
914.113	15279
914.226	15226
914.34	15264
914.453	15104
914.566	15321
914.68	15043
914.793	15055
914.906	14838
915.019	14758
915.132	14708
915.245	14727
915.358	14758
915.47	14796
915.583	14804
915.696	14765
915.809	14952
915.921	14906
916.034	14750
916.146	14754
916.259	14678
916.371	14811
916.483	14739
916.595	14640
916.708	14598
916.82	14663
916.932	14518
917.044	14541
917.156	14579
917.268	14465
917.38	14396
917.491	14393
917.603	14457
917.715	14533
917.826	14541
917.938	14454
918.049	14298
918.161	14305
918.272	14556
918.384	14503
918.495	14347
918.606	14240
918.717	14176
918.828	14252
918.939	14252
919.05	14176
919.161	14248
919.272	13963
919.383	14077
919.494	14237
919.604	14431
919.715	14240
919.826	14103
919.936	14214
920.047	14233
920.157	14119
920.267	14381
920.378	14161
920.488	14187
920.598	14305
920.708	14480
920.818	14252
920.928	14305
921.038	14530
921.148	14396
921.258	14123
921.368	14126
921.477	13868
921.587	14012
921.697	13780
921.806	13986
921.916	13765
922.025	13677
922.134	13601
922.244	13544
922.353	13563
922.462	13445
922.571	13403
922.68	13278
922.789	13202
922.898	13297
923.007	13137
923.116	13255
923.224	13240
923.333	13266
923.442	13137
923.55	13084
923.659	13057
923.767	13137
923.876	12966
923.984	13122
924.092	13004
924.201	13072
924.309	13008
924.417	12962
924.525	12905
924.633	12821
924.741	13913
924.849	12726
924.956	12776
925.064	12650
925.172	12635
925.279	12692
925.387	12703
925.494	12707
925.602	12825
925.709	12662
925.816	12570
925.924	12719
926.031	12798
926.138	12601
926.245	12608
926.352	12570
926.459	12597
926.566	12688
926.673	12547
926.779	12506
926.886	12391
926.993	12304
927.099	12277
927.206	12235
927.312	12175
927.419	12175
927.525	12258
927.631	12251
927.737	12182
927.843	12015
927.95	11939
928.056	12038
928.162	12091
928.267	12182
928.373	12574
928.479	12148
928.585	11908
928.69	12038
928.796	12030
928.901	11927
929.007	11847
929.112	11965
929.218	11942
929.323	11893
929.428	11779
929.533	11927
929.638	11764
929.743	11798
929.848	11813
929.953	11752
930.058	11653
930.163	11539
930.267	11516
930.372	11615
930.477	11486
930.581	11726
930.685	11501
930.79	11429
930.894	11398
930.998	11395
931.103	11520
931.207	11094
931.311	11079
931.415	10938
931.519	10778
931.623	10801
