Data from test_V78500241_3202.txt Node
Date: Fri Mar 25 15:32:09 CST 2022
User: usil
Spectrometer: V785-0024
Trigger mode: 0
Integration Time (sec): 4.000000E-1
Scans to average: 1
Nonlinearity correction enabled: false
Boxcar width: 0
Storing dark spectrum: false
XAxis mode: Wavelengths
Number of Pixels in Spectrum: 1024
>>>>>Begin Spectral Data<<<<<
801.071	27047
801.214	26986
801.356	26773
801.499	26651
801.641	26625
801.783	26549
801.926	26530
802.068	26533
802.211	26617
802.353	26526
802.496	26286
802.638	26324
802.78	26301
802.923	26100
803.065	26183
803.208	26092
803.35	26271
803.492	26332
803.635	26419
803.777	26252
803.919	26259
804.061	26663
804.204	26366
804.346	26290
804.488	26187
804.63	26419
804.773	26218
804.915	26301
805.057	26419
805.199	26317
805.341	26370
805.483	26473
805.626	26457
805.768	26385
805.91	26579
806.052	26408
806.194	26355
806.336	26545
806.478	26545
806.62	26473
806.762	26396
806.904	26689
807.046	26940
807.188	27009
807.33	26857
807.472	26937
807.614	26807
807.756	26826
807.898	26724
808.04	26530
808.182	26712
808.324	26754
808.465	26678
808.607	26948
808.749	26975
808.891	27070
809.033	27108
809.174	27036
809.316	27028
809.458	27032
809.6	27036
809.741	27127
809.883	27116
810.025	27237
810.166	27538
810.308	27279
810.45	27256
810.591	27062
810.733	27043
810.875	26986
811.016	27032
811.158	26990
811.299	27089
811.441	27226
811.582	27241
811.724	27074
811.865	27013
812.007	27077
812.148	26929
812.29	27032
812.431	27230
812.573	27348
812.714	27405
812.855	27538
812.997	27652
813.138	27739
813.279	27694
813.421	27625
813.562	27412
813.703	27355
813.845	27161
813.986	27131
814.127	26739
814.268	26682
814.41	26686
814.551	26533
814.692	26746
814.833	26560
814.974	26648
815.115	26617
815.256	26511
815.397	26560
815.539	26590
815.68	26564
815.821	26484
815.962	26606
816.103	26339
816.244	26332
816.385	26221
816.526	26320
816.666	26077
816.807	25875
816.948	26077
817.089	26081
817.23	26084
817.371	25986
817.512	26027
817.653	25959
817.793	26005
817.934	25913
818.075	26050
818.216	26073
818.356	25970
818.497	25883
818.638	25753
818.778	25715
818.919	25689
819.06	25742
819.2	25776
819.341	25997
819.481	25944
819.622	26005
819.762	26252
819.903	26237
820.043	26081
820.184	25997
820.324	26084
820.465	26039
820.605	26172
820.746	26008
820.886	25966
821.026	25883
821.167	25811
821.307	26024
821.447	25963
821.588	25822
821.728	25632
821.868	25533
822.008	25483
822.149	25438
822.289	25472
822.429	25110
822.569	25187
822.709	25076
822.849	24989
822.99	24989
823.13	24840
823.27	24810
823.41	24700
823.55	24589
823.69	24719
823.83	24795
823.97	24783
824.11	24559
824.25	24532
824.389	24517
824.529	24635
824.669	24604
824.809	24688
824.949	24601
825.089	24559
825.228	24601
825.368	24532
825.508	24528
825.648	24505
825.787	24452
825.927	24456
826.067	24300
826.206	24433
826.346	24467
826.485	24563
826.625	24410
826.765	24369
826.904	24521
827.044	24232
827.183	24106
827.323	24174
827.462	24201
827.601	24258
827.741	24182
827.88	24281
828.02	23885
828.159	24129
828.298	23935
828.437	24201
828.577	23942
828.716	24239
828.855	23950
828.994	23821
829.134	23764
829.273	23851
829.412	23885
829.551	23813
829.69	23847
829.829	23733
829.968	23832
830.107	23931
830.246	23836
830.385	23828
830.524	23767
830.663	23752
830.802	23520
830.941	23436
831.08	23417
831.219	23467
831.357	23520
831.496	23794
831.635	23417
831.774	23235
831.913	23356
832.051	23208
832.19	23269
832.329	23292
832.467	23326
832.606	23064
832.744	23136
832.883	23060
833.022	23151
833.16	23159
833.299	23220
833.437	23083
833.576	23204
833.714	23124
833.852	23166
833.991	23307
834.129	23376
834.267	23220
834.406	23334
834.544	23193
834.682	23124
834.821	23204
834.959	23337
835.097	23143
835.235	23345
835.373	23292
835.511	23136
835.65	23124
835.788	23060
835.926	22866
836.064	22850
836.202	22820
836.34	23056
836.478	23223
836.615	23037
836.753	23102
836.891	23071
837.029	23242
837.167	22930
837.305	22942
837.443	22854
837.58	22763
837.718	23010
837.856	22771
837.993	22759
838.131	22942
838.269	22740
838.406	22801
838.544	22786
838.681	22573
838.819	22508
838.956	22428
839.094	22398
839.231	22542
839.369	22573
839.506	22790
839.643	22675
839.781	22512
839.918	22325
840.055	22390
840.193	22276
840.33	22253
840.467	22344
840.604	22432
840.742	22584
840.879	22284
841.016	22284
841.153	22249
841.29	22443
841.427	22306
841.564	22234
841.701	22246
841.838	22344
841.975	22200
842.112	22112
842.249	22299
842.385	22196
842.522	22329
842.659	22116
842.796	22082
842.933	22036
843.069	22067
843.206	22025
843.343	22181
843.479	22013
843.616	22105
843.752	21869
843.889	21842
844.025	22036
844.162	21835
844.298	21934
844.435	21869
844.571	21789
844.708	21888
844.844	21922
844.98	21895
845.117	21941
845.253	21797
845.389	21637
845.525	21770
845.661	21682
845.798	21656
845.934	21682
846.07	21534
846.206	21652
846.342	21667
846.478	21557
846.614	21340
846.75	21226
846.886	21355
847.022	21340
847.158	21317
847.294	21306
847.429	21416
847.565	21363
847.701	21618
847.837	20971
847.972	21089
848.108	21058
848.244	21192
848.379	20956
848.515	20887
848.65	20853
848.786	21055
848.921	20918
849.057	20990
849.192	20975
849.328	21013
849.463	20834
849.598	20819
849.734	20804
849.869	20743
850.004	20712
850.14	20686
850.275	20731
850.41	20667
850.545	20758
850.68	20651
850.815	20758
850.95	20705
851.085	20819
851.22	20754
851.355	20754
851.49	20689
851.625	20659
851.76	20644
851.895	20480
852.03	20590
852.165	20735
852.299	20670
852.434	20655
852.569	20674
852.703	20682
852.838	20804
852.973	20921
853.107	20876
853.242	20629
853.376	20431
853.511	20431
853.645	20461
853.78	20507
853.914	20499
854.048	20469
854.183	20454
854.317	20594
854.451	20682
854.585	20446
854.72	20484
854.854	20575
854.988	20518
855.122	20465
855.256	20377
855.39	20571
855.524	20518
855.658	20530
855.792	20511
855.926	20495
856.06	20571
856.194	20689
856.327	20617
856.461	20507
856.595	20537
856.729	20609
856.862	20629
856.996	20511
857.13	20617
857.263	20663
857.397	20579
857.53	20473
857.664	20522
857.797	20621
857.931	20488
858.064	20511
858.197	20648
858.331	20454
858.464	20476
858.597	20465
858.731	20514
858.864	20579
858.997	20415
859.13	20522
859.263	20575
859.396	20602
859.529	20492
859.662	20446
859.795	20362
859.928	20461
860.061	20636
860.194	20651
860.327	20564
860.46	20518
860.592	20552
860.725	20663
860.858	20750
860.99	20533
861.123	20492
861.256	20450
861.388	20636
861.521	21024
861.653	20412
861.786	20336
861.918	20324
862.05	20377
862.183	20415
862.315	20465
862.447	20556
862.58	20412
862.712	20195
862.844	20195
862.976	20415
863.108	20252
863.24	20602
863.372	20267
863.504	20263
863.636	20362
863.768	20210
863.9	20107
864.032	20168
864.164	20176
864.296	20237
864.428	20347
864.559	20256
864.691	20400
864.823	20263
864.954	20233
865.086	20142
865.217	20187
865.349	20043
865.48	20107
865.612	20111
865.743	20244
865.875	20168
866.006	20263
866.137	20084
866.269	20218
866.4	20103
866.531	20027
866.662	20031
866.793	20218
866.924	19997
867.055	20031
867.186	20088
867.317	20088
867.448	20001
867.579	20008
867.71	20088
867.841	19974
867.972	20183
868.103	20103
868.233	20157
868.364	20134
868.495	20195
868.625	20267
868.756	20526
868.886	20225
869.017	20503
869.147	20454
869.278	20446
869.408	20332
869.539	20313
869.669	20469
869.799	20286
869.929	20434
870.06	20412
870.19	20701
870.32	20655
870.45	20598
870.58	20708
870.71	20800
870.84	20807
870.97	20727
871.1	20712
871.23	20842
871.36	20914
871.489	20899
871.619	20956
871.749	20834
871.879	20975
872.008	21150
872.138	21039
872.267	21039
872.397	20804
872.526	20743
872.656	20849
872.785	20800
872.915	21119
873.044	21017
873.173	21108
873.303	21005
873.432	21028
873.561	21104
873.69	20895
873.819	20902
873.948	21135
874.077	21043
874.206	20960
874.335	21009
874.464	20990
874.593	21249
874.722	21256
874.851	21142
874.979	21252
875.108	21298
875.237	21283
875.365	21188
875.494	21237
875.623	21256
875.751	21180
875.88	21279
876.008	21351
876.136	21462
876.265	21583
876.393	21774
876.521	21671
876.65	21743
876.778	21751
876.906	21561
877.034	21538
877.162	21526
877.29	21545
877.418	21724
877.546	21587
877.674	21591
877.802	21466
877.93	21576
878.058	21572
878.185	21386
878.313	21526
878.441	21530
878.568	21405
878.696	21397
878.824	21652
878.951	21694
879.079	21625
879.206	21800
879.333	21816
879.461	21583
879.588	21686
879.715	21762
879.842	21789
879.97	21572
880.097	21382
880.224	21477
880.351	21492
880.478	21306
880.605	21363
880.732	21500
880.859	21641
880.986	21428
881.112	21382
881.239	21214
881.366	21161
881.493	21256
881.619	21077
881.746	21032
881.872	20902
881.999	20929
882.125	20910
882.252	21032
882.378	20975
882.505	21127
882.631	20853
882.757	20701
882.883	20861
883.01	20720
883.136	20663
883.262	20602
883.388	20590
883.514	20727
883.64	20724
883.766	20583
883.892	20503
884.018	20533
884.143	20659
884.269	20705
884.395	20488
884.52	20355
884.646	20522
884.772	20278
884.897	20336
885.023	20434
885.148	20495
885.274	20473
885.399	20377
885.524	20431
885.65	20495
885.775	20355
885.9	20347
886.025	20377
886.15	20427
886.275	20351
886.4	20229
886.525	20347
886.65	20320
886.775	20256
886.9	20396
887.025	20438
887.149	20248
887.274	20145
887.399	20142
887.523	20081
887.648	20046
887.773	20077
887.897	20282
888.021	20164
888.146	20065
888.27	20244
888.395	20157
888.519	20161
888.643	20214
888.767	20275
888.891	20020
889.015	19932
889.139	19917
889.263	19856
889.387	20031
889.511	20024
889.635	20092
889.759	19944
889.883	19909
890.006	19947
890.13	19978
890.254	19864
890.377	19799
890.501	19750
890.624	19658
890.748	19719
890.871	19655
890.995	19544
891.118	19320
891.241	19548
891.364	19464
891.488	19514
891.611	19457
891.734	19537
891.857	19548
891.98	19578
892.103	19563
892.226	19601
892.349	19491
892.471	19365
892.594	19426
892.717	19502
892.839	19411
892.962	19472
893.085	19472
893.207	19407
893.33	19354
893.452	19388
893.575	19430
893.697	19445
893.819	19582
893.941	19734
894.064	19537
894.186	19422
894.308	19445
894.43	19635
894.552	19655
894.674	19533
894.796	19403
894.918	19358
895.04	19335
895.161	19548
895.283	19396
895.405	19365
895.526	19396
895.648	19460
895.769	19495
895.891	19468
896.012	19514
896.134	19518
896.255	19495
896.376	19403
896.498	19419
896.619	19510
896.74	19483
896.861	19575
896.982	19719
897.103	19849
897.224	19700
897.345	19708
897.466	19715
897.587	19780
897.708	19830
897.828	19651
897.949	19578
898.07	19609
898.19	19616
898.311	19696
898.431	19578
898.552	19723
898.672	19734
898.792	19757
898.913	19681
899.033	19544
899.153	19540
899.273	19324
899.393	19434
899.513	19449
899.633	19350
899.753	19464
899.873	19373
899.993	19457
900.113	19365
900.232	19480
900.352	19369
900.472	19263
900.591	19270
900.711	19213
900.83	19114
900.95	19339
901.069	19270
901.189	18947
901.308	18924
901.427	18882
901.546	18871
901.665	18833
901.784	18859
901.904	18810
902.023	18627
902.141	18437
902.26	18441
902.379	18372
902.498	18308
902.617	18277
902.735	18448
902.854	18361
902.973	18270
903.091	17912
903.21	17889
903.328	18049
903.446	17901
903.565	17847
903.683	17832
903.801	17642
903.919	17802
904.038	17809
904.156	17581
904.274	17611
904.392	17627
904.51	17490
904.627	17592
904.745	17630
904.863	17642
904.981	17364
905.098	17273
905.216	17387
905.334	17197
905.451	17200
905.569	17098
905.686	17284
905.803	17318
905.921	17029
906.038	17212
906.155	17189
906.272	16927
906.389	16965
906.506	16850
906.623	16740
906.74	16812
906.857	16668
906.974	16702
907.091	16892
907.208	16980
907.324	16919
907.441	16748
907.557	16596
907.674	16527
907.79	16455
907.907	16413
908.023	16481
908.139	16535
908.256	16531
908.372	16329
908.488	16417
908.604	16325
908.72	16287
908.836	16246
908.952	16226
909.068	16314
909.184	16356
909.3	16306
909.415	16268
909.531	16230
909.647	15922
909.762	15994
909.878	16021
909.993	15994
910.108	15953
910.224	15949
910.339	15945
910.454	15823
910.57	15812
910.685	15762
910.8	15975
910.915	15892
911.03	15793
911.145	15595
911.259	15561
911.374	15523
911.489	15530
911.604	15492
911.718	15264
911.833	15294
911.947	15233
912.062	15131
912.176	15302
912.291	15458
912.405	15340
912.519	15473
912.633	15572
912.748	15420
912.862	15412
912.976	15199
913.09	15024
913.204	15184
913.318	15207
913.431	15230
913.545	15264
913.659	15279
913.772	15032
913.886	15085
914	15005
914.113	14925
914.226	15051
914.34	15039
914.453	14861
914.566	15036
914.68	14823
914.793	14826
914.906	14575
915.019	14571
915.132	14560
915.245	14530
915.358	14602
915.47	14590
915.583	14648
915.696	14621
915.809	14617
915.921	14602
916.034	14495
916.146	14522
916.259	14476
916.371	14507
916.483	14522
916.595	14412
916.708	14408
916.82	14446
916.932	14324
917.044	14317
917.156	14328
917.268	14263
917.38	14339
917.491	14278
917.603	14339
917.715	14324
917.826	14355
917.938	14195
918.049	14123
918.161	14244
918.272	14271
918.384	14324
918.495	14244
918.606	14100
918.717	13959
918.828	14039
918.939	14084
919.05	13921
919.161	13955
919.272	13856
919.383	13849
919.494	14081
919.604	14176
919.715	14058
919.826	13868
919.936	13925
920.047	13993
920.157	13940
920.267	14187
920.378	14054
920.488	13902
920.598	14176
920.708	14240
920.818	14039
920.928	14077
921.038	14214
921.148	14240
921.258	13928
921.368	13875
921.477	13674
921.587	13693
921.697	13628
921.806	13750
921.916	13537
922.025	13434
922.134	13415
922.244	13304
922.353	13453
922.462	13259
922.571	13217
922.68	13023
922.789	12962
922.898	13019
923.007	12909
923.116	13065
923.224	12943
923.333	13084
923.442	12852
923.55	12829
923.659	12882
923.767	12993
923.876	12760
923.984	12947
924.092	12711
924.201	12745
924.309	12833
924.417	12894
924.525	12753
924.633	12776
924.741	13647
924.849	12578
924.956	12658
925.064	12517
925.172	12483
925.279	12509
925.387	12551
925.494	12551
925.602	12616
925.709	12601
925.816	12448
925.924	12456
926.031	12574
926.138	12323
926.245	12353
926.352	12410
926.459	12456
926.566	12536
926.673	12334
926.779	12285
926.886	12262
926.993	12155
927.099	12053
927.206	11977
927.312	12053
927.419	12133
927.525	12110
927.631	12114
927.737	12007
927.843	11942
927.95	11855
928.056	11855
928.162	11878
928.267	11958
928.373	12506
928.479	11927
928.585	11767
928.69	11882
928.796	11855
928.901	11878
929.007	11604
929.112	11764
929.218	11718
929.323	11657
929.428	11680
929.533	11676
929.638	11577
929.743	11535
929.848	11676
929.953	11573
930.058	11440
930.163	11265
930.267	11307
930.372	11398
930.477	11322
930.581	11444
930.685	11349
930.79	11162
930.894	11189
930.998	11231
931.103	11421
931.207	10961
931.311	10927
931.415	10843
931.519	10641
931.623	10558
