Data from test_V78500241_3170.txt Node
Date: Fri Mar 25 15:31:56 CST 2022
User: usil
Spectrometer: V785-0024
Trigger mode: 0
Integration Time (sec): 4.000000E-1
Scans to average: 1
Nonlinearity correction enabled: false
Boxcar width: 0
Storing dark spectrum: false
XAxis mode: Wavelengths
Number of Pixels in Spectrum: 1024
>>>>>Begin Spectral Data<<<<<
801.071	27096
801.214	27032
801.356	26826
801.499	26663
801.641	26629
801.783	26708
801.926	26636
802.068	26663
802.211	26507
802.353	26434
802.496	26286
802.638	26374
802.78	26317
802.923	26142
803.065	26054
803.208	26176
803.35	26267
803.492	26427
803.635	26423
803.777	26320
803.919	26358
804.061	26602
804.204	26324
804.346	26317
804.488	26233
804.63	26389
804.773	26358
804.915	26259
805.057	26450
805.199	26324
805.341	26442
805.483	26594
805.626	26564
805.768	26317
805.91	26492
806.052	26480
806.194	26461
806.336	26727
806.478	26484
806.62	26324
806.762	26617
806.904	26819
807.046	27039
807.188	26933
807.33	26868
807.472	27096
807.614	26895
807.756	26948
807.898	26667
808.04	26640
808.182	26758
808.324	26678
808.465	26800
808.607	26982
808.749	27195
808.891	27184
809.033	27214
809.174	27100
809.316	27005
809.458	26963
809.6	27039
809.741	27203
809.883	27192
810.025	27359
810.166	27466
810.308	27363
810.45	27351
810.591	27329
810.733	27150
810.875	27195
811.016	27005
811.158	26925
811.299	27161
811.441	27294
811.582	27279
811.724	27123
811.865	26971
812.007	27104
812.148	27066
812.29	27062
812.431	27287
812.573	27230
812.714	27340
812.855	27583
812.997	27625
813.138	27778
813.279	27736
813.421	27728
813.562	27500
813.703	27214
813.845	27218
813.986	26861
814.127	26788
814.268	26811
814.41	26708
814.551	26724
814.692	26754
814.833	26735
814.974	26838
815.115	26743
815.256	26640
815.397	26571
815.539	26537
815.68	26579
815.821	26370
815.962	26583
816.103	26469
816.244	26461
816.385	26157
816.526	26187
816.666	26039
816.807	25978
816.948	26073
817.089	26115
817.23	26008
817.371	25928
817.512	25887
817.653	25955
817.793	26058
817.934	25913
818.075	25963
818.216	25936
818.356	25890
818.497	25791
818.638	25879
818.778	25693
818.919	25826
819.06	25689
819.2	25913
819.341	25921
819.481	25951
819.622	26077
819.762	26366
819.903	26164
820.043	26164
820.184	26024
820.324	26119
820.465	26180
820.605	26103
820.746	25974
820.886	26020
821.026	25966
821.167	26008
821.307	26100
821.447	25959
821.588	25845
821.728	25742
821.868	25559
822.008	25460
822.149	25552
822.289	25434
822.429	25255
822.569	25118
822.709	25076
822.849	25015
822.99	24977
823.13	24920
823.27	24897
823.41	24757
823.55	24738
823.69	24719
823.83	24814
823.97	24741
824.11	24528
824.25	24525
824.389	24661
824.529	24700
824.669	24479
824.809	24673
824.949	24665
825.089	24623
825.228	24700
825.368	24509
825.508	24452
825.648	24399
825.787	24452
825.927	24521
826.067	24399
826.206	24517
826.346	24464
826.485	24544
826.625	24513
826.765	24505
826.904	24521
827.044	24254
827.183	24388
827.323	24011
827.462	24285
827.601	24125
827.741	24026
827.88	24057
828.02	24121
828.159	24110
828.298	24133
828.437	24121
828.577	24098
828.716	24239
828.855	23977
828.994	23855
829.134	23809
829.273	23832
829.412	23912
829.551	23714
829.69	23889
829.829	23840
829.968	23958
830.107	23824
830.246	23980
830.385	23752
830.524	23729
830.663	23707
830.802	23600
830.941	23467
831.08	23372
831.219	23486
831.357	23562
831.496	23665
831.635	23493
831.774	23395
831.913	23277
832.051	23288
832.19	23239
832.329	23189
832.467	23269
832.606	23128
832.744	23094
832.883	23204
833.022	23086
833.16	23105
833.299	23318
833.437	23242
833.576	23208
833.714	23105
833.852	23292
833.991	23204
834.129	23231
834.267	23265
834.406	23220
834.544	23254
834.682	23193
834.821	23193
834.959	23395
835.097	23181
835.235	23284
835.373	23185
835.511	23265
835.65	23140
835.788	23014
835.926	23022
836.064	22953
836.202	22911
836.34	23003
836.478	23121
836.615	23075
836.753	23018
836.891	23220
837.029	23037
837.167	22991
837.305	22927
837.443	22995
837.58	22885
837.718	23033
837.856	22953
837.993	22801
838.131	22961
838.269	22729
838.406	22877
838.544	22713
838.681	22679
838.819	22519
838.956	22470
839.094	22375
839.231	22390
839.369	22618
839.506	22892
839.643	22550
839.781	22367
839.918	22413
840.055	22329
840.193	22493
840.33	22280
840.467	22413
840.604	22314
840.742	22649
840.879	22223
841.016	22261
841.153	22272
841.29	22489
841.427	22367
841.564	22375
841.701	22299
841.838	22192
841.975	22192
842.112	22253
842.249	22143
842.385	22169
842.522	22466
842.659	22242
842.796	22169
842.933	22086
843.069	22059
843.206	22090
843.343	22192
843.479	22116
843.616	21991
843.752	21964
843.889	21739
844.025	21964
844.162	21907
844.298	21895
844.435	21937
844.571	21713
844.708	21907
844.844	21998
844.98	21968
845.117	22032
845.253	21892
845.389	21736
845.525	21698
845.661	21720
845.798	21648
845.934	21583
846.07	21507
846.206	21610
846.342	21755
846.478	21477
846.614	21443
846.75	21241
846.886	21412
847.022	21405
847.158	21450
847.294	21351
847.429	21405
847.565	21348
847.701	21553
847.837	21036
847.972	20982
848.108	21165
848.244	21180
848.379	20963
848.515	20826
848.65	20963
848.786	20944
848.921	20918
849.057	20918
849.192	20971
849.328	20918
849.463	20952
849.598	20857
849.734	20807
849.869	20804
850.004	20674
850.14	20762
850.275	20754
850.41	20602
850.545	20617
850.68	20686
850.815	20606
850.95	20670
851.085	20849
851.22	20743
851.355	20678
851.49	20773
851.625	20651
851.76	20735
851.895	20625
852.03	20686
852.165	20731
852.299	20682
852.434	20750
852.569	20762
852.703	20621
852.838	20705
852.973	20868
853.107	20830
853.242	20705
853.376	20556
853.511	20530
853.645	20560
853.78	20560
853.914	20522
854.048	20469
854.183	20522
854.317	20564
854.451	20651
854.585	20579
854.72	20499
854.854	20594
854.988	20511
855.122	20549
855.256	20473
855.39	20530
855.524	20579
855.658	20507
855.792	20514
855.926	20514
856.06	20526
856.194	20613
856.327	20450
856.461	20480
856.595	20438
856.729	20518
856.862	20659
856.996	20575
857.13	20697
857.263	20705
857.397	20530
857.53	20526
857.664	20590
857.797	20609
857.931	20724
858.064	20530
858.197	20708
858.331	20564
858.464	20473
858.597	20377
858.731	20511
858.864	20568
858.997	20499
859.13	20495
859.263	20419
859.396	20590
859.529	20560
859.662	20473
859.795	20613
859.928	20598
860.061	20659
860.194	20750
860.327	20644
860.46	20526
860.592	20659
860.725	20705
860.858	20674
860.99	20552
861.123	20434
861.256	20514
861.388	20617
861.521	21043
861.653	20362
861.786	20199
861.918	20389
862.05	20434
862.183	20385
862.315	20469
862.447	20568
862.58	20465
862.712	20278
862.844	20199
862.976	20339
863.108	20286
863.24	20735
863.372	20191
863.504	20157
863.636	20210
863.768	20278
863.9	20240
864.032	20187
864.164	20115
864.296	20298
864.428	20358
864.559	20465
864.691	20286
864.823	20195
864.954	20214
865.086	20218
865.217	20180
865.349	20058
865.48	20168
865.612	20138
865.743	20259
865.875	20096
866.006	20107
866.137	20130
866.269	20001
866.4	20229
866.531	20069
866.662	20092
866.793	20065
866.924	20149
867.055	20122
867.186	20206
867.317	20092
867.448	20008
867.579	20058
867.71	19997
867.841	20008
867.972	20031
868.103	20126
868.233	20122
868.364	20084
868.495	20187
868.625	20267
868.756	20419
868.886	20229
869.017	20336
869.147	20461
869.278	20488
869.408	20362
869.539	20267
869.669	20488
869.799	20218
869.929	20480
870.06	20488
870.19	20678
870.32	20651
870.45	20659
870.58	20678
870.71	20845
870.84	20750
870.97	20640
871.1	20689
871.23	20853
871.36	21058
871.489	20796
871.619	20956
871.749	20933
871.879	21028
872.008	21005
872.138	20956
872.267	20952
872.397	20883
872.526	20857
872.656	20769
872.785	20781
872.915	20937
873.044	21062
873.173	20906
873.303	21074
873.432	21066
873.561	21062
873.69	20876
873.819	20906
873.948	20994
874.077	20941
874.206	21017
874.335	20967
874.464	21100
874.593	21291
874.722	21230
874.851	21195
874.979	21226
875.108	21169
875.237	21199
875.365	21123
875.494	21188
875.623	21378
875.751	21241
875.88	21298
876.008	21374
876.136	21485
876.265	21561
876.393	21705
876.521	21572
876.65	21603
876.778	21629
876.906	21542
877.034	21587
877.162	21542
877.29	21450
877.418	21599
877.546	21526
877.674	21591
877.802	21641
877.93	21564
878.058	21393
878.185	21401
878.313	21504
878.441	21496
878.568	21370
878.696	21519
878.824	21595
878.951	21542
879.079	21648
879.206	21907
879.333	21713
879.461	21660
879.588	21663
879.715	21679
879.842	21751
879.97	21580
880.097	21317
880.224	21355
880.351	21397
880.478	21507
880.605	21332
880.732	21450
880.859	21603
880.986	21382
881.112	21374
881.239	21317
881.366	21146
881.493	20994
881.619	21036
881.746	21005
881.872	20857
881.999	20963
882.125	20777
882.252	21070
882.378	20910
882.505	21062
882.631	20754
882.757	20811
882.883	20781
883.01	20735
883.136	20667
883.262	20514
883.388	20541
883.514	20625
883.64	20590
883.766	20609
883.892	20457
884.018	20613
884.143	20613
884.269	20686
884.395	20362
884.52	20339
884.646	20347
884.772	20298
884.897	20138
885.023	20347
885.148	20511
885.274	20454
885.399	20480
885.524	20343
885.65	20324
885.775	20313
885.9	20267
886.025	20412
886.15	20343
886.275	20389
886.4	20168
886.525	20240
886.65	20298
886.775	20191
886.9	20541
887.025	20533
887.149	20187
887.274	20240
887.399	20100
887.523	20005
887.648	20035
887.773	20065
887.897	20202
888.021	20050
888.146	19951
888.27	20301
888.395	20191
888.519	20119
888.643	20103
888.767	20081
888.891	19951
889.015	19871
889.139	19932
889.263	19883
889.387	20012
889.511	20161
889.635	20031
889.759	19913
889.883	19909
890.006	20001
890.13	20020
890.254	19788
890.377	19959
890.501	19662
890.624	19635
890.748	19753
890.871	19525
890.995	19373
891.118	19460
891.241	19411
891.364	19476
891.488	19586
891.611	19521
891.734	19392
891.857	19639
891.98	19434
892.103	19533
892.226	19540
892.349	19460
892.471	19266
892.594	19358
892.717	19487
892.839	19514
892.962	19400
893.085	19628
893.207	19453
893.33	19266
893.452	19426
893.575	19422
893.697	19403
893.819	19548
893.941	19594
894.064	19430
894.186	19472
894.308	19358
894.43	19624
894.552	19605
894.674	19540
894.796	19384
894.918	19518
895.04	19335
895.161	19556
895.283	19460
895.405	19339
895.526	19559
895.648	19411
895.769	19548
895.891	19441
896.012	19647
896.134	19472
896.255	19426
896.376	19400
896.498	19480
896.619	19400
896.74	19521
896.861	19563
896.982	19875
897.103	19951
897.224	19655
897.345	19811
897.466	19597
897.587	19681
897.708	19776
897.828	19696
897.949	19628
898.07	19559
898.19	19643
898.311	19826
898.431	19674
898.552	19544
898.672	19693
898.792	19841
898.913	19830
899.033	19632
899.153	19639
899.273	19373
899.393	19529
899.513	19487
899.633	19586
899.753	19396
899.873	19362
899.993	19449
900.113	19480
900.232	19430
900.352	19392
900.472	19354
900.591	19217
900.711	19324
900.83	19183
900.95	19331
901.069	19316
901.189	19038
901.308	18909
901.427	18825
901.546	18875
901.665	18802
901.784	18787
901.904	18787
902.023	18547
902.141	18475
902.26	18365
902.379	18369
902.498	18410
902.617	18220
902.735	18372
902.854	18273
902.973	18273
903.091	18136
903.21	17992
903.328	18030
903.446	17996
903.565	17927
903.683	17809
903.801	17745
903.919	17790
904.038	17775
904.156	17657
904.274	17699
904.392	17608
904.51	17638
904.627	17573
904.745	17634
904.863	17680
904.981	17417
905.098	17345
905.216	17307
905.334	17307
905.451	17330
905.569	17231
905.686	17356
905.803	17322
905.921	17083
906.038	17216
906.155	17075
906.272	16968
906.389	16976
906.506	16854
906.623	16831
906.74	16759
906.857	16630
906.974	16717
907.091	16850
907.208	16987
907.324	16934
907.441	16748
907.557	16645
907.674	16516
907.79	16478
907.907	16421
908.023	16599
908.139	16497
908.256	16478
908.372	16390
908.488	16443
908.604	16284
908.72	16257
908.836	16314
908.952	16204
909.068	16295
909.184	16325
909.3	16249
909.415	16325
909.531	16295
909.647	16150
909.762	16063
909.878	16013
909.993	15975
910.108	15918
910.224	15987
910.339	15884
910.454	15865
910.57	15937
910.685	15663
910.8	15972
910.915	16010
911.03	15823
911.145	15614
911.259	15572
911.374	15614
911.489	15466
911.604	15469
911.718	15329
911.833	15454
911.947	15230
912.062	15195
912.176	15447
912.291	15393
912.405	15382
912.519	15625
912.633	15443
912.748	15416
912.862	15329
912.976	15249
913.09	15058
913.204	15043
913.318	15199
913.431	15317
913.545	15245
913.659	15245
913.772	15077
913.886	14929
914	14990
914.113	14963
914.226	15017
914.34	14944
914.453	14868
914.566	15005
914.68	14800
914.793	14804
914.906	14533
915.019	14541
915.132	14560
915.245	14541
915.358	14613
915.47	14575
915.583	14625
915.696	14659
915.809	14659
915.921	14716
916.034	14495
916.146	14526
916.259	14511
916.371	14556
916.483	14533
916.595	14507
916.708	14347
916.82	14518
916.932	14358
917.044	14431
917.156	14381
917.268	14351
917.38	14210
917.491	14278
917.603	14172
917.715	14389
917.826	14370
917.938	14271
918.049	14096
918.161	14271
918.272	14305
918.384	14339
918.495	14248
918.606	14164
918.717	14069
918.828	14062
918.939	14077
919.05	13887
919.161	14046
919.272	13909
919.383	13955
919.494	14073
919.604	14214
919.715	14058
919.826	13894
919.936	13993
920.047	14081
920.157	13917
920.267	14176
920.378	14008
920.488	13902
920.598	14142
920.708	14362
920.818	14115
920.928	14123
921.038	14343
921.148	14237
921.258	13963
921.368	13898
921.477	13784
921.587	13807
921.697	13670
921.806	13738
921.916	13655
922.025	13483
922.134	13419
922.244	13411
922.353	13411
922.462	13266
922.571	13259
922.68	13137
922.789	13080
922.898	13023
923.007	13023
923.116	13110
923.224	12985
923.333	12977
923.442	12894
923.55	12833
923.659	12939
923.767	12951
923.876	12783
923.984	12981
924.092	12848
924.201	12806
924.309	12840
924.417	12875
924.525	12612
924.633	12715
924.741	13666
924.849	12566
924.956	12722
925.064	12521
925.172	12395
925.279	12532
925.387	12528
925.494	12536
925.602	12707
925.709	12597
925.816	12361
925.924	12452
926.031	12475
926.138	12426
926.245	12589
926.352	12357
926.459	12445
926.566	12566
926.673	12346
926.779	12353
926.886	12273
926.993	12102
927.099	12129
927.206	12136
927.312	12072
927.419	12091
927.525	12079
927.631	12117
927.737	12060
927.843	11923
927.95	11863
928.056	11954
928.162	11923
928.267	11950
928.373	12608
928.479	12083
928.585	11790
928.69	11870
928.796	12007
928.901	11786
929.007	11619
929.112	11786
929.218	11767
929.323	11619
929.428	11630
929.533	11733
929.638	11562
929.743	11535
929.848	11703
929.953	11562
930.058	11562
930.163	11296
930.267	11341
930.372	11436
930.477	11372
930.581	11573
930.685	11436
930.79	11174
930.894	11216
930.998	11258
931.103	11273
931.207	11079
931.311	10908
931.415	10889
931.519	10691
931.623	10634
