Data from test_V78500241_3228.txt Node
Date: Fri Mar 25 15:32:20 CST 2022
User: usil
Spectrometer: V785-0024
Trigger mode: 0
Integration Time (sec): 4.000000E-1
Scans to average: 1
Nonlinearity correction enabled: false
Boxcar width: 0
Storing dark spectrum: false
XAxis mode: Wavelengths
Number of Pixels in Spectrum: 1024
>>>>>Begin Spectral Data<<<<<
801.071	27176
801.214	27252
801.356	26933
801.499	26925
801.641	26746
801.783	26845
801.926	26777
802.068	26796
802.211	26716
802.353	26731
802.496	26434
802.638	26370
802.78	26484
802.923	26237
803.065	26309
803.208	26218
803.35	26427
803.492	26484
803.635	26556
803.777	26412
803.919	26442
804.061	26823
804.204	26621
804.346	26590
804.488	26473
804.63	26522
804.773	26408
804.915	26556
805.057	26518
805.199	26473
805.341	26522
805.483	26606
805.626	26708
805.768	26644
805.91	26682
806.052	26621
806.194	26560
806.336	26811
806.478	26541
806.62	26621
806.762	26788
806.904	26857
807.046	27226
807.188	27062
807.33	27039
807.472	27096
807.614	26963
807.756	27112
807.898	26845
808.04	26746
808.182	26861
808.324	26960
808.465	27089
808.607	27131
808.749	27275
808.891	27397
809.033	27382
809.174	27146
809.316	27119
809.458	27188
809.6	27169
809.741	27313
809.883	27291
810.025	27606
810.166	27652
810.308	27405
810.45	27412
810.591	27572
810.733	27211
810.875	27241
811.016	27195
811.158	27154
811.299	27321
811.441	27393
811.582	27378
811.724	27275
811.865	27249
812.007	27237
812.148	27081
812.29	27351
812.431	27485
812.573	27564
812.714	27648
812.855	27671
812.997	27743
813.138	27785
813.279	27785
813.421	27785
813.562	27724
813.703	27534
813.845	27473
813.986	27066
814.127	27020
814.268	26960
814.41	26960
814.551	26883
814.692	26940
814.833	26735
814.974	26842
815.115	26933
815.256	26743
815.397	26697
815.539	26826
815.68	26594
815.821	26701
815.962	26640
816.103	26682
816.244	26587
816.385	26453
816.526	26324
816.666	26347
816.807	26088
816.948	26332
817.089	26320
817.23	26187
817.371	26054
817.512	26149
817.653	26046
817.793	25993
817.934	26062
818.075	26161
818.216	26142
818.356	26176
818.497	25986
818.638	25898
818.778	25890
818.919	25799
819.06	25966
819.2	25993
819.341	26199
819.481	26069
819.622	26290
819.762	26556
819.903	26381
820.043	26263
820.184	26149
820.324	26214
820.465	26286
820.605	26199
820.746	26221
820.886	26058
821.026	26176
821.167	26092
821.307	26320
821.447	26172
821.588	26050
821.728	25917
821.868	25784
822.008	25772
822.149	25693
822.289	25635
822.429	25407
822.569	25388
822.709	25289
822.849	25095
822.99	25107
823.13	25084
823.27	25099
823.41	24935
823.55	24852
823.69	24954
823.83	24939
823.97	24856
824.11	24726
824.25	24673
824.389	24642
824.529	24833
824.669	24658
824.809	24829
824.949	24764
825.089	24787
825.228	24833
825.368	24711
825.508	24715
825.648	24677
825.787	24726
825.927	24745
826.067	24483
826.206	24525
826.346	24749
826.485	24700
826.625	24559
826.765	24681
826.904	24658
827.044	24361
827.183	24418
827.323	24300
827.462	24350
827.601	24315
827.741	24315
827.88	24289
828.02	24270
828.159	24300
828.298	24254
828.437	24418
828.577	24338
828.716	24426
828.855	24300
828.994	23923
829.134	24003
829.273	24106
829.412	23999
829.551	23988
829.69	24018
829.829	24015
829.968	24114
830.107	24152
830.246	24155
830.385	23984
830.524	23920
830.663	23870
830.802	23828
830.941	23657
831.08	23596
831.219	23798
831.357	23661
831.496	23889
831.635	23726
831.774	23608
831.913	23573
832.051	23345
832.19	23356
832.329	23604
832.467	23433
832.606	23223
832.744	23334
832.883	23250
833.022	23288
833.16	23349
833.299	23440
833.437	23296
833.576	23395
833.714	23395
833.852	23497
833.991	23516
834.129	23478
834.267	23372
834.406	23474
834.544	23509
834.682	23417
834.821	23349
834.959	23482
835.097	23303
835.235	23490
835.373	23467
835.511	23448
835.65	23273
835.788	23299
835.926	23216
836.064	23052
836.202	23170
836.34	23311
836.478	23292
836.615	23208
836.753	23364
836.891	23379
837.029	23113
837.167	23204
837.305	23265
837.443	23246
837.58	23132
837.718	23284
837.856	23151
837.993	23060
838.131	23174
838.269	22949
838.406	22961
838.544	22938
838.681	22889
838.819	22858
838.956	22618
839.094	22615
839.231	22698
839.369	22778
839.506	22919
839.643	22942
839.781	22516
839.918	22478
840.055	22542
840.193	22561
840.33	22531
840.467	22466
840.604	22603
840.742	22740
840.879	22481
841.016	22489
841.153	22474
841.29	22603
841.427	22554
841.564	22569
841.701	22459
841.838	22577
841.975	22493
842.112	22508
842.249	22390
842.385	22329
842.522	22569
842.659	22333
842.796	22322
842.933	22306
843.069	22242
843.206	22249
843.343	22371
843.479	22284
843.616	22409
843.752	22112
843.889	22074
844.025	22207
844.162	21972
844.298	22067
844.435	22055
844.571	22150
844.708	22162
844.844	22211
844.98	22226
845.117	22010
845.253	22021
845.389	21953
845.525	21934
845.661	21892
845.798	21819
845.934	21937
846.07	21823
846.206	21857
846.342	21953
846.478	21743
846.614	21610
846.75	21542
846.886	21488
847.022	21633
847.158	21530
847.294	21511
847.429	21618
847.565	21492
847.701	21800
847.837	21329
847.972	21291
848.108	21382
848.244	21420
848.379	21127
848.515	21226
848.65	21108
848.786	21089
848.921	21074
849.057	21268
849.192	21245
849.328	21272
849.463	21176
849.598	21051
849.734	20952
849.869	20963
850.004	20883
850.14	20937
850.275	21013
850.41	20811
850.545	20872
850.68	20845
850.815	20944
850.95	20979
851.085	21089
851.22	21104
851.355	20815
851.49	20933
851.625	20944
851.76	20914
851.895	20826
852.03	20883
852.165	20880
852.299	20941
852.434	20952
852.569	20880
852.703	20963
852.838	20929
852.973	21096
853.107	20948
853.242	20902
853.376	20693
853.511	20727
853.645	20670
853.78	20826
853.914	20689
854.048	20511
854.183	20701
854.317	20773
854.451	20857
854.585	20667
854.72	20693
854.854	20861
854.988	20670
855.122	20762
855.256	20613
855.39	20727
855.524	20815
855.658	20826
855.792	20727
855.926	20762
856.06	20754
856.194	20769
856.327	20629
856.461	20712
856.595	20644
856.729	20804
856.862	20739
856.996	20758
857.13	20754
857.263	20765
857.397	20762
857.53	20636
857.664	20743
857.797	20792
857.931	20902
858.064	20762
858.197	20807
858.331	20617
858.464	20686
858.597	20632
858.731	20750
858.864	20712
858.997	20857
859.13	20758
859.263	20746
859.396	20701
859.529	20667
859.662	20609
859.795	20788
859.928	20716
860.061	20887
860.194	20963
860.327	20731
860.46	20632
860.592	20895
860.725	20918
860.858	20861
860.99	20830
861.123	20609
861.256	20667
861.388	20644
861.521	21169
861.653	20678
861.786	20488
861.918	20556
862.05	20648
862.183	20648
862.315	20750
862.447	20781
862.58	20644
862.712	20480
862.844	20381
862.976	20492
863.108	20560
863.24	20868
863.372	20305
863.504	20427
863.636	20473
863.768	20492
863.9	20469
864.032	20408
864.164	20339
864.296	20400
864.428	20518
864.559	20431
864.691	20655
864.823	20454
864.954	20415
865.086	20393
865.217	20301
865.349	20313
865.48	20366
865.612	20267
865.743	20507
865.875	20347
866.006	20343
866.137	20457
866.269	20400
866.4	20271
866.531	20252
866.662	20218
866.793	20298
866.924	20278
867.055	20336
867.186	20313
867.317	20225
867.448	20164
867.579	20278
867.71	20237
867.841	20214
867.972	20275
868.103	20305
868.233	20259
868.364	20294
868.495	20503
868.625	20541
868.756	20659
868.886	20503
869.017	20583
869.147	20590
869.278	20670
869.408	20575
869.539	20530
869.669	20636
869.799	20507
869.929	20632
870.06	20754
870.19	20804
870.32	20758
870.45	20891
870.58	20967
870.71	21112
870.84	21165
870.97	20910
871.1	20914
871.23	21116
871.36	21237
871.489	21123
871.619	21085
871.749	21138
871.879	21226
872.008	21321
872.138	21051
872.267	21207
872.397	21047
872.526	20979
872.656	20891
872.785	20948
872.915	21230
873.044	21275
873.173	21184
873.303	21135
873.432	21154
873.561	21226
873.69	21150
873.819	21279
873.948	21264
874.077	21146
874.206	21233
874.335	21108
874.464	21279
874.593	21359
874.722	21321
874.851	21450
874.979	21405
875.108	21397
875.237	21454
875.365	21241
875.494	21340
875.623	21405
875.751	21252
875.88	21439
876.008	21622
876.136	21610
876.265	21857
876.393	22036
876.521	21907
876.65	21884
876.778	21888
876.906	21774
877.034	21743
877.162	21789
877.29	21682
877.418	21724
877.546	21701
877.674	21709
877.802	21675
877.93	21808
878.058	21709
878.185	21644
878.313	21732
878.441	21812
878.568	21561
878.696	21690
878.824	21876
878.951	21755
879.079	21903
879.206	22021
879.333	21766
879.461	21705
879.588	21865
879.715	21865
879.842	22040
879.97	21728
880.097	21564
880.224	21534
880.351	21530
880.478	21507
880.605	21496
880.732	21641
880.859	21770
880.986	21519
881.112	21603
881.239	21420
881.366	21412
881.493	21256
881.619	21207
881.746	21112
881.872	21150
881.999	21123
882.125	21146
882.252	21245
882.378	21108
882.505	21310
882.631	21047
882.757	20872
882.883	20967
883.01	20868
883.136	20845
883.262	20739
883.388	20674
883.514	20872
883.64	20918
883.766	20792
883.892	20651
884.018	20724
884.143	20819
884.269	20937
884.395	20609
884.52	20564
884.646	20533
884.772	20514
884.897	20427
885.023	20533
885.148	20560
885.274	20594
885.399	20606
885.524	20613
885.65	20503
885.775	20526
885.9	20530
886.025	20735
886.15	20545
886.275	20473
886.4	20415
886.525	20503
886.65	20393
886.775	20419
886.9	20674
887.025	20754
887.149	20598
887.274	20290
887.399	20275
887.523	20313
887.648	20362
887.773	20225
887.897	20427
888.021	20328
888.146	20240
888.27	20324
888.395	20305
888.519	20229
888.643	20256
888.767	20423
888.891	20191
889.015	20161
889.139	20149
889.263	20088
889.387	20191
889.511	20377
889.635	20111
889.759	19982
889.883	20195
890.006	20092
890.13	20206
890.254	20130
890.377	19955
890.501	19944
890.624	19879
890.748	20043
890.871	19765
890.995	19769
891.118	19620
891.241	19655
891.364	19700
891.488	19738
891.611	19719
891.734	19693
891.857	19868
891.98	19738
892.103	19674
892.226	19674
892.349	19643
892.471	19411
892.594	19632
892.717	19681
892.839	19662
892.962	19655
893.085	19616
893.207	19529
893.33	19597
893.452	19518
893.575	19624
893.697	19624
893.819	19871
893.941	19811
894.064	19719
894.186	19480
894.308	19537
894.43	19677
894.552	19818
894.674	19719
894.796	19487
894.918	19567
895.04	19480
895.161	19597
895.283	19582
895.405	19529
895.526	19575
895.648	19613
895.769	19613
895.891	19491
896.012	19696
896.134	19601
896.255	19605
896.376	19540
896.498	19624
896.619	19685
896.74	19586
896.861	19719
896.982	19959
897.103	20065
897.224	19826
897.345	19826
897.466	19662
897.587	19700
897.708	19917
897.828	19830
897.949	19757
898.07	19738
898.19	19849
898.311	19852
898.431	19765
898.552	19868
898.672	19837
898.792	20005
898.913	19791
899.033	19696
899.153	19616
899.273	19426
899.393	19586
899.513	19495
899.633	19544
899.753	19613
899.873	19392
899.993	19727
900.113	19438
900.232	19601
900.352	19430
900.472	19400
900.591	19339
900.711	19472
900.83	19476
900.95	19407
901.069	19381
901.189	19365
901.308	18989
901.427	18973
901.546	18905
901.665	18966
901.784	19023
901.904	18928
902.023	18772
902.141	18642
902.26	18578
902.379	18536
902.498	18426
902.617	18452
902.735	18509
902.854	18418
902.973	18433
903.091	18125
903.21	18053
903.328	18155
903.446	18049
903.565	18007
903.683	17893
903.801	17866
903.919	17870
904.038	17908
904.156	17817
904.274	17798
904.392	17707
904.51	17703
904.627	17813
904.745	17843
904.863	17764
904.981	17547
905.098	17425
905.216	17444
905.334	17311
905.451	17417
905.569	17326
905.686	17425
905.803	17410
905.921	17227
906.038	17307
906.155	17223
906.272	17132
906.389	17136
906.506	17014
906.623	16923
906.74	16949
906.857	16767
906.974	16831
907.091	17033
907.208	17060
907.324	16968
907.441	16866
907.557	16828
907.674	16618
907.79	16535
907.907	16649
908.023	16577
908.139	16710
908.256	16611
908.372	16428
908.488	16519
908.604	16436
908.72	16333
908.836	16344
908.952	16371
909.068	16390
909.184	16417
909.3	16386
909.415	16493
909.531	16379
909.647	16074
909.762	16124
909.878	16185
909.993	16109
910.108	16147
910.224	16002
910.339	15975
910.454	15937
910.57	15983
910.685	15808
910.8	16177
910.915	15949
911.03	15903
911.145	15819
911.259	15656
911.374	15686
911.489	15614
911.604	15561
911.718	15496
911.833	15443
911.947	15325
912.062	15355
912.176	15500
912.291	15412
912.405	15466
912.519	15633
912.633	15679
912.748	15477
912.862	15367
912.976	15306
913.09	15119
913.204	15249
913.318	15317
913.431	15374
913.545	15310
913.659	15310
913.772	15138
913.886	15150
914	15066
914.113	15077
914.226	15131
914.34	15188
914.453	14952
914.566	15127
914.68	15024
914.793	14861
914.906	14788
915.019	14705
915.132	14560
915.245	14788
915.358	14716
915.47	14796
915.583	14686
915.696	14758
915.809	14876
915.921	14773
916.034	14575
916.146	14537
916.259	14606
916.371	14712
916.483	14659
916.595	14621
916.708	14511
916.82	14484
916.932	14537
917.044	14442
917.156	14442
917.268	14347
917.38	14442
917.491	14317
917.603	14374
917.715	14412
917.826	14564
917.938	14305
918.049	14199
918.161	14313
918.272	14423
918.384	14412
918.495	14370
918.606	14149
918.717	14054
918.828	14183
918.939	14233
919.05	14100
919.161	14123
919.272	13970
919.383	14008
919.494	14229
919.604	14385
919.715	14084
919.826	14062
919.936	14130
920.047	14180
920.157	14119
920.267	14282
920.378	14168
920.488	14027
920.598	14286
920.708	14404
920.818	14183
920.928	14210
921.038	14434
921.148	14328
921.258	13993
921.368	14031
921.477	13974
921.587	13830
921.697	13849
921.806	13864
921.916	13689
922.025	13613
922.134	13559
922.244	13540
922.353	13605
922.462	13415
922.571	13381
922.68	13190
922.789	13324
922.898	13160
923.007	13141
923.116	13206
923.224	13190
923.333	13122
923.442	13027
923.55	13015
923.659	13023
923.767	13080
923.876	12932
923.984	12996
924.092	12951
924.201	12935
924.309	12970
924.417	12951
924.525	12871
924.633	12856
924.741	13883
924.849	12677
924.956	12814
925.064	12612
925.172	12608
925.279	12570
925.387	12578
925.494	12536
925.602	12722
925.709	12673
925.816	12426
925.924	12585
926.031	12612
926.138	12544
926.245	12639
926.352	12551
926.459	12658
926.566	12601
926.673	12456
926.779	12372
926.886	12414
926.993	12152
927.099	12205
927.206	12201
927.312	12205
927.419	12266
927.525	12239
927.631	12201
927.737	12053
927.843	12091
927.95	12011
928.056	12034
928.162	11999
928.267	12125
928.373	12779
928.479	12144
928.585	11863
928.69	12079
928.796	12026
928.901	11999
929.007	11824
929.112	11927
929.218	11840
929.323	11847
929.428	11779
929.533	11916
929.638	11707
929.743	11707
929.848	11809
929.953	11684
930.058	11592
930.163	11417
930.267	11448
930.372	11646
930.477	11379
930.581	11684
930.685	11474
930.79	11349
930.894	11315
930.998	11360
931.103	11501
931.207	11185
931.311	10984
931.415	10942
931.519	10797
931.623	10831
