Data from test_V78500241_557.txt Node
Date: Fri Mar 25 15:13:44 CST 2022
User: usil
Spectrometer: V785-0024
Trigger mode: 0
Integration Time (sec): 4.000000E-1
Scans to average: 1
Nonlinearity correction enabled: false
Boxcar width: 0
Storing dark spectrum: false
XAxis mode: Wavelengths
Number of Pixels in Spectrum: 1024
>>>>>Begin Spectral Data<<<<<
801.071	27135
801.214	26918
801.356	26739
801.499	26686
801.641	26526
801.783	26587
801.926	26701
802.068	26537
802.211	26396
802.353	26381
802.496	26275
802.638	26229
802.78	26126
802.923	26142
803.065	26111
803.208	26202
803.35	26191
803.492	26290
803.635	26328
803.777	26122
803.919	26362
804.061	26522
804.204	26347
804.346	26142
804.488	26187
804.63	26358
804.773	26164
804.915	26252
805.057	26476
805.199	26415
805.341	26328
805.483	26556
805.626	26374
805.768	26347
805.91	26446
806.052	26370
806.194	26415
806.336	26503
806.478	26560
806.62	26370
806.762	26560
806.904	26686
807.046	26925
807.188	26823
807.33	26921
807.472	26762
807.614	26754
807.756	26823
807.898	26682
808.04	26629
808.182	26701
808.324	26651
808.465	26644
808.607	26861
808.749	26910
808.891	27009
809.033	27184
809.174	27093
809.316	27089
809.458	27135
809.6	27081
809.741	27024
809.883	27127
810.025	27283
810.166	27370
810.308	27291
810.45	27298
810.591	27287
810.733	27135
810.875	27062
811.016	26876
811.158	27085
811.299	27020
811.441	27272
811.582	27112
811.724	27036
811.865	26986
812.007	26918
812.148	26876
812.29	26990
812.431	27188
812.573	27348
812.714	27443
812.855	27595
812.997	27507
813.138	27869
813.279	27755
813.421	27557
813.562	27477
813.703	27488
813.845	27165
813.986	27039
814.127	26788
814.268	26750
814.41	26697
814.551	26705
814.692	26758
814.833	26564
814.974	26629
815.115	26682
815.256	26541
815.397	26697
815.539	26583
815.68	26461
815.821	26355
815.962	26674
816.103	26461
816.244	26393
816.385	26248
816.526	26252
816.666	26069
816.807	25978
816.948	25982
817.089	26092
817.23	25997
817.371	26043
817.512	26084
817.653	25966
817.793	25868
817.934	25940
818.075	25989
818.216	26027
818.356	25868
818.497	25769
818.638	25727
818.778	25681
818.919	25727
819.06	25727
819.2	25925
819.341	25925
819.481	25909
819.622	26031
819.762	26298
819.903	26115
820.043	26176
820.184	26054
820.324	26145
820.465	26103
820.605	26012
820.746	25944
820.886	25894
821.026	26130
821.167	25951
821.307	26111
821.447	25909
821.588	25928
821.728	25811
821.868	25518
822.008	25495
822.149	25358
822.289	25487
822.429	25080
822.569	25065
822.709	25034
822.849	24951
822.99	24985
823.13	24840
823.27	24840
823.41	24768
823.55	24631
823.69	24700
823.83	24745
823.97	24669
824.11	24498
824.25	24521
824.389	24585
824.529	24570
824.669	24536
824.809	24696
824.949	24665
825.089	24540
825.228	24593
825.368	24448
825.508	24273
825.648	24437
825.787	24304
825.927	24433
826.067	24304
826.206	24357
826.346	24403
826.485	24433
826.625	24441
826.765	24502
826.904	24563
827.044	24117
827.183	24186
827.323	24098
827.462	24304
827.601	24091
827.741	24049
827.88	24273
828.02	24083
828.159	24011
828.298	24072
828.437	24330
828.577	24057
828.716	24300
828.855	24072
828.994	23912
829.134	23916
829.273	24011
829.412	23878
829.551	23764
829.69	23965
829.829	23866
829.968	23866
830.107	23824
830.246	23828
830.385	23733
830.524	23798
830.663	23695
830.802	23486
830.941	23493
831.08	23478
831.219	23490
831.357	23505
831.496	23707
831.635	23543
831.774	23322
831.913	23303
832.051	23265
832.19	23189
832.329	23364
832.467	23185
832.606	23208
832.744	23159
832.883	23098
833.022	23193
833.16	23064
833.299	23254
833.437	23216
833.576	23280
833.714	23189
833.852	23239
833.991	23155
834.129	23303
834.267	23448
834.406	23185
834.544	23337
834.682	23265
834.821	23159
834.959	23246
835.097	23174
835.235	23311
835.373	23280
835.511	23254
835.65	22972
835.788	23006
835.926	22984
836.064	22923
836.202	22854
836.34	22965
836.478	23075
836.615	22949
836.753	23155
836.891	23227
837.029	23060
837.167	22911
837.305	23083
837.443	22965
837.58	22831
837.718	23033
837.856	22778
837.993	22869
838.131	22866
838.269	22793
838.406	22797
838.544	22725
838.681	22675
838.819	22565
838.956	22443
839.094	22413
839.231	22363
839.369	22516
839.506	22767
839.643	22721
839.781	22352
839.918	22348
840.055	22398
840.193	22280
840.33	22386
840.467	22261
840.604	22421
840.742	22500
840.879	22093
841.016	22280
841.153	22253
841.29	22337
841.427	22329
841.564	22432
841.701	22272
841.838	22371
841.975	22303
842.112	22382
842.249	22147
842.385	21979
842.522	22280
842.659	22143
842.796	22090
842.933	22074
843.069	22059
843.206	22078
843.343	22116
843.479	22215
843.616	21968
843.752	21884
843.889	21895
844.025	21983
844.162	21812
844.298	21987
844.435	21873
844.571	21739
844.708	21770
844.844	22036
844.98	21987
845.117	21934
845.253	21762
845.389	21736
845.525	21797
845.661	21751
845.798	21515
845.934	21545
846.07	21496
846.206	21644
846.342	21717
846.478	21629
846.614	21515
846.75	21321
846.886	21294
847.022	21363
847.158	21469
847.294	21184
847.429	21412
847.565	21332
847.701	21698
847.837	21165
847.972	21058
848.108	21252
848.244	21233
848.379	20883
848.515	20883
848.65	20823
848.786	20933
848.921	20883
849.057	21039
849.192	21013
849.328	20998
849.463	20902
849.598	20845
849.734	20800
849.869	20720
850.004	20796
850.14	20621
850.275	20716
850.41	20663
850.545	20705
850.68	20731
850.815	20705
850.95	20587
851.085	20788
851.22	20861
851.355	20716
851.49	20731
851.625	20720
851.76	20579
851.895	20621
852.03	20575
852.165	20705
852.299	20746
852.434	20777
852.569	20739
852.703	20743
852.838	20765
852.973	20872
853.107	20716
853.242	20682
853.376	20545
853.511	20507
853.645	20511
853.78	20617
853.914	20507
854.048	20503
854.183	20526
854.317	20629
854.451	20693
854.585	20564
854.72	20396
854.854	20640
854.988	20454
855.122	20560
855.256	20457
855.39	20590
855.524	20636
855.658	20454
855.792	20530
855.926	20560
856.06	20648
856.194	20678
856.327	20427
856.461	20461
856.595	20473
856.729	20648
856.862	20594
856.996	20560
857.13	20594
857.263	20651
857.397	20644
857.53	20598
857.664	20587
857.797	20644
857.931	20750
858.064	20648
858.197	20560
858.331	20560
858.464	20415
858.597	20446
858.731	20545
858.864	20408
858.997	20533
859.13	20507
859.263	20564
859.396	20571
859.529	20488
859.662	20583
859.795	20492
859.928	20484
860.061	20701
860.194	20743
860.327	20511
860.46	20522
860.592	20511
860.725	20674
860.858	20621
860.99	20575
861.123	20533
861.256	20488
861.388	20560
861.521	21313
861.653	20495
861.786	20355
861.918	20438
862.05	20549
862.183	20446
862.315	20457
862.447	20571
862.58	20404
862.712	20202
862.844	20183
862.976	20278
863.108	20134
863.24	20781
863.372	20210
863.504	20286
863.636	20282
863.768	20267
863.9	20317
864.032	20267
864.164	20149
864.296	20240
864.428	20347
864.559	20309
864.691	20358
864.823	20240
864.954	20263
865.086	20161
865.217	20221
865.349	20084
865.48	20168
865.612	20282
865.743	20271
865.875	20199
866.006	20054
866.137	20122
866.269	20221
866.4	20119
866.531	20081
866.662	20115
866.793	20062
866.924	19963
867.055	20206
867.186	20092
867.317	20103
867.448	19944
867.579	20103
867.71	20012
867.841	19951
867.972	20103
868.103	20035
868.233	20054
868.364	20046
868.495	20130
868.625	20252
868.756	20317
868.886	20309
869.017	20332
869.147	20362
869.278	20465
869.408	20343
869.539	20286
869.669	20374
869.799	20374
869.929	20366
870.06	20438
870.19	20739
870.32	20640
870.45	20568
870.58	20629
870.71	20792
870.84	20746
870.97	20727
871.1	20796
871.23	20963
871.36	21020
871.489	20800
871.619	20838
871.749	20971
871.879	20929
872.008	21001
872.138	20925
872.267	20971
872.397	20815
872.526	20781
872.656	20724
872.785	20750
872.915	20902
873.044	21024
873.173	20952
873.303	20956
873.432	21036
873.561	21039
873.69	20937
873.819	20918
873.948	20921
874.077	21017
874.206	20998
874.335	20994
874.464	21051
874.593	21176
874.722	21104
874.851	21199
874.979	21275
875.108	21192
875.237	21154
875.365	21093
875.494	21104
875.623	21138
875.751	21085
875.88	21245
876.008	21397
876.136	21317
876.265	21625
876.393	21538
876.521	21641
876.65	21641
876.778	21557
876.906	21538
877.034	21431
877.162	21549
877.29	21466
877.418	21705
877.546	21557
877.674	21443
877.802	21443
877.93	21603
878.058	21542
878.185	21408
878.313	21473
878.441	21424
878.568	21302
878.696	21561
878.824	21458
878.951	21679
879.079	21690
879.206	21903
879.333	21629
879.461	21648
879.588	21641
879.715	21679
879.842	21873
879.97	21732
880.097	21249
880.224	21359
880.351	21344
880.478	21351
880.605	21351
880.732	21310
880.859	21595
880.986	21321
881.112	21424
881.239	21214
881.366	21043
881.493	21077
881.619	20895
881.746	21005
881.872	20914
881.999	20857
882.125	20845
882.252	21024
882.378	20914
882.505	21017
882.631	20933
882.757	20720
882.883	20750
883.01	20720
883.136	20659
883.262	20408
883.388	20469
883.514	20659
883.64	20674
883.766	20609
883.892	20412
884.018	20374
884.143	20655
884.269	20522
884.395	20385
884.52	20309
884.646	20161
884.772	20221
884.897	20313
885.023	20271
885.148	20336
885.274	20404
885.399	20404
885.524	20233
885.65	20275
885.775	20301
885.9	20347
886.025	20332
886.15	20492
886.275	20225
886.4	20126
886.525	20278
886.65	20149
886.775	20343
886.9	20400
887.025	20590
887.149	20225
887.274	20027
887.399	19986
887.523	20024
887.648	20081
887.773	19993
887.897	20134
888.021	20199
888.146	19947
888.27	20107
888.395	20229
888.519	20012
888.643	20054
888.767	20088
888.891	20024
889.015	19860
889.139	19921
889.263	19772
889.387	20012
889.511	20005
889.635	19928
889.759	19826
889.883	19830
890.006	19925
890.13	19940
890.254	19795
890.377	19746
890.501	19727
890.624	19658
890.748	19814
890.871	19594
890.995	19430
891.118	19346
891.241	19552
891.364	19449
891.488	19639
891.611	19449
891.734	19468
891.857	19559
891.98	19525
892.103	19476
892.226	19491
892.349	19400
892.471	19308
892.594	19419
892.717	19449
892.839	19331
892.962	19297
893.085	19396
893.207	19419
893.33	19255
893.452	19331
893.575	19411
893.697	19346
893.819	19510
893.941	19594
894.064	19457
894.186	19400
894.308	19426
894.43	19362
894.552	19616
894.674	19502
894.796	19377
894.918	19411
895.04	19445
895.161	19396
895.283	19449
895.405	19422
895.526	19346
895.648	19255
895.769	19407
895.891	19362
896.012	19411
896.134	19518
896.255	19362
896.376	19270
896.498	19384
896.619	19354
896.74	19377
896.861	19403
896.982	19727
897.103	19951
897.224	19689
897.345	19571
897.466	19635
897.587	19605
897.708	19727
897.828	19632
897.949	19559
898.07	19438
898.19	19540
898.311	19712
898.431	19616
898.552	19559
898.672	19655
898.792	19651
898.913	19609
899.033	19518
899.153	19495
899.273	19419
899.393	19373
899.513	19384
899.633	19358
899.753	19331
899.873	19285
899.993	19464
900.113	19324
900.232	19373
900.352	19236
900.472	19148
900.591	19187
900.711	19194
900.83	19099
900.95	19187
901.069	19213
901.189	19012
901.308	18840
901.427	18798
901.546	18764
901.665	18791
901.784	18779
901.904	18570
902.023	18506
902.141	18334
902.26	18384
902.379	18372
902.498	18323
902.617	18323
902.735	18395
902.854	18258
902.973	18148
903.091	18041
903.21	17923
903.328	17980
903.446	17908
903.565	17687
903.683	17851
903.801	17718
903.919	17710
904.038	17710
904.156	17505
904.274	17577
904.392	17505
904.51	17452
904.627	17543
904.745	17562
904.863	17551
904.981	17345
905.098	17212
905.216	17277
905.334	17296
905.451	17250
905.569	17140
905.686	17318
905.803	17231
905.921	16984
906.038	17265
906.155	17033
906.272	16946
906.389	16995
906.506	16801
906.623	16744
906.74	16710
906.857	16771
906.974	16706
907.091	16786
907.208	16923
907.324	16736
907.441	16782
907.557	16516
907.674	16470
907.79	16436
907.907	16413
908.023	16504
908.139	16424
908.256	16249
908.372	16344
908.488	16367
908.604	16276
908.72	16185
908.836	16185
908.952	16158
909.068	16284
909.184	16287
909.3	16272
909.415	16287
909.531	16185
909.647	15994
909.762	15907
909.878	15930
909.993	15949
910.108	15953
910.224	15895
910.339	15854
910.454	15701
910.57	15732
910.685	15660
910.8	16013
910.915	15937
911.03	15682
911.145	15576
911.259	15538
911.374	15591
911.489	15450
911.604	15298
911.718	15351
911.833	15317
911.947	15180
912.062	15089
912.176	15252
912.291	15222
912.405	15188
912.519	15435
912.633	15504
912.748	15291
912.862	15195
912.976	15089
913.09	14967
913.204	14944
913.318	15043
913.431	15169
913.545	15146
913.659	15214
913.772	15112
913.886	14925
914	14944
914.113	14986
914.226	15093
914.34	15017
914.453	14861
914.566	14952
914.68	14902
914.793	14788
914.906	14621
915.019	14492
915.132	14480
915.245	14408
915.358	14556
915.47	14526
915.583	14560
915.696	14590
915.809	14674
915.921	14655
916.034	14549
916.146	14465
916.259	14507
916.371	14480
916.483	14431
916.595	14404
916.708	14423
916.82	14381
916.932	14374
917.044	14263
917.156	14320
917.268	14256
917.38	14286
917.491	14282
917.603	14191
917.715	14309
917.826	14252
917.938	14096
918.049	14077
918.161	14164
918.272	14305
918.384	14355
918.495	14195
918.606	13986
918.717	13906
918.828	14065
918.939	14084
919.05	13944
919.161	13917
919.272	13811
919.383	13864
919.494	14115
919.604	14077
919.715	13940
919.826	13936
919.936	13989
920.047	13989
920.157	13890
920.267	14073
920.378	14005
920.488	13936
920.598	14107
920.708	14237
920.818	14081
920.928	14039
921.038	14263
921.148	14199
921.258	13909
921.368	13845
921.477	13734
921.587	13738
921.697	13620
921.806	13753
921.916	13597
922.025	13457
922.134	13365
922.244	13312
922.353	13403
922.462	13278
922.571	13095
922.68	13072
922.789	13038
922.898	13084
923.007	12947
923.116	12996
923.224	13069
923.333	13023
923.442	12924
923.55	12734
923.659	12894
923.767	12871
923.876	12783
923.984	12947
924.092	12734
924.201	12776
924.309	12772
924.417	12730
924.525	12726
924.633	12768
924.741	13407
924.849	12540
924.956	12612
925.064	12517
925.172	12452
925.279	12380
925.387	12433
925.494	12452
925.602	12639
925.709	12506
925.816	12300
925.924	12334
926.031	12536
926.138	12327
926.245	12494
926.352	12361
926.459	12395
926.566	12460
926.673	12414
926.779	12243
926.886	12209
926.993	12041
927.099	12060
927.206	12007
927.312	11958
927.419	12079
927.525	12098
927.631	12144
927.737	11969
927.843	11954
927.95	11786
928.056	11836
928.162	11920
928.267	11927
928.373	12509
928.479	11992
928.585	11646
928.69	11665
928.796	11847
928.901	11832
929.007	11566
929.112	11737
929.218	11745
929.323	11684
929.428	11619
929.533	11786
929.638	11471
929.743	11535
929.848	11535
929.953	11547
930.058	11532
930.163	11391
930.267	11334
930.372	11436
930.477	11239
930.581	11535
930.685	11311
930.79	11201
930.894	11216
930.998	11189
931.103	11356
931.207	11010
931.311	10885
931.415	10778
931.519	10664
931.623	10565
