Data from test_V78500241_349.txt Node
Date: Fri Mar 25 15:12:17 CST 2022
User: usil
Spectrometer: V785-0024
Trigger mode: 0
Integration Time (sec): 4.000000E-1
Scans to average: 1
Nonlinearity correction enabled: false
Boxcar width: 0
Storing dark spectrum: false
XAxis mode: Wavelengths
Number of Pixels in Spectrum: 1024
>>>>>Begin Spectral Data<<<<<
801.071	27062
801.214	26906
801.356	26693
801.499	26686
801.641	26678
801.783	26682
801.926	26796
802.068	26686
802.211	26655
802.353	26423
802.496	26514
802.638	26187
802.78	26278
802.923	26263
803.065	26157
803.208	26149
803.35	26332
803.492	26461
803.635	26450
803.777	26396
803.919	26423
804.061	26838
804.204	26438
804.346	26347
804.488	26404
804.63	26400
804.773	26191
804.915	26355
805.057	26511
805.199	26294
805.341	26412
805.483	26636
805.626	26541
805.768	26446
805.91	26579
806.052	26461
806.194	26366
806.336	26765
806.478	26518
806.62	26568
806.762	26609
806.904	26655
807.046	27074
807.188	26921
807.33	26887
807.472	27032
807.614	26857
807.756	26937
807.898	26804
808.04	26762
808.182	26796
808.324	26689
808.465	26746
808.607	26933
808.749	27123
808.891	27142
809.033	27408
809.174	27226
809.316	27169
809.458	27176
809.6	27116
809.741	27180
809.883	27237
810.025	27203
810.166	27389
810.308	27412
810.45	27294
810.591	27351
810.733	27268
810.875	27013
811.016	26925
811.158	26990
811.299	27104
811.441	27184
811.582	27184
811.724	27051
811.865	26986
812.007	27051
812.148	27077
812.29	27028
812.431	27287
812.573	27336
812.714	27542
812.855	27610
812.997	27675
813.138	27797
813.279	27774
813.421	27701
813.562	27542
813.703	27386
813.845	27374
813.986	27085
814.127	26857
814.268	26876
814.41	26750
814.551	26716
814.692	26769
814.833	26689
814.974	26804
815.115	26583
815.256	26632
815.397	26686
815.539	26651
815.68	26560
815.821	26423
815.962	26461
816.103	26434
816.244	26492
816.385	26332
816.526	26244
816.666	26122
816.807	25944
816.948	26149
817.089	26084
817.23	26073
817.371	26107
817.512	26142
817.653	26035
817.793	26122
817.934	26046
818.075	26145
818.216	26005
818.356	25966
818.497	25925
818.638	25685
818.778	25856
818.919	25887
819.06	25978
819.2	25883
819.341	25974
819.481	25989
819.622	26206
819.762	26336
819.903	26206
820.043	26122
820.184	26168
820.324	26035
820.465	26164
820.605	26115
820.746	26050
820.886	26142
821.026	26103
821.167	26046
821.307	26058
821.447	26100
821.588	25894
821.728	25837
821.868	25632
822.008	25544
822.149	25381
822.289	25502
822.429	25202
822.569	25251
822.709	25213
822.849	25012
822.99	25137
823.13	24852
823.27	24913
823.41	24840
823.55	24673
823.69	24715
823.83	24844
823.97	24684
824.11	24631
824.25	24688
824.389	24654
824.529	24757
824.669	24703
824.809	24810
824.949	24661
825.089	24669
825.228	24654
825.368	24513
825.508	24502
825.648	24505
825.787	24403
825.927	24547
826.067	24433
826.206	24445
826.346	24460
826.485	24464
826.625	24414
826.765	24658
826.904	24467
827.044	24300
827.183	24243
827.323	24194
827.462	24403
827.601	24292
827.741	24285
827.88	24110
828.02	24049
828.159	24190
828.298	24186
828.437	24247
828.577	24133
828.716	24296
828.855	24220
828.994	23946
829.134	23927
829.273	24026
829.412	23866
829.551	23847
829.69	23874
829.829	23847
829.968	23927
830.107	23859
830.246	23980
830.385	23813
830.524	23866
830.663	23703
830.802	23699
830.941	23558
831.08	23444
831.219	23589
831.357	23672
831.496	23638
831.635	23558
831.774	23459
831.913	23516
832.051	23410
832.19	23417
832.329	23406
832.467	23261
832.606	23204
832.744	23143
832.883	23242
833.022	23155
833.16	23132
833.299	23261
833.437	23372
833.576	23258
833.714	23166
833.852	23372
833.991	23258
834.129	23383
834.267	23383
834.406	23231
834.544	23261
834.682	23261
834.821	23303
834.959	23436
835.097	23155
835.235	23356
835.373	23273
835.511	23242
835.65	23162
835.788	23010
835.926	22881
836.064	23056
836.202	22987
836.34	23220
836.478	23299
836.615	23181
836.753	23064
836.891	23200
837.029	23315
837.167	22976
837.305	23140
837.443	22991
837.58	22881
837.718	23060
837.856	23090
837.993	22911
838.131	22892
838.269	22915
838.406	22961
838.544	22896
838.681	22713
838.819	22561
838.956	22367
839.094	22497
839.231	22504
839.369	22634
839.506	22831
839.643	22759
839.781	22554
839.918	22344
840.055	22451
840.193	22394
840.33	22344
840.467	22451
840.604	22360
840.742	22687
840.879	22196
841.016	22246
841.153	22215
841.29	22611
841.427	22451
841.564	22348
841.701	22386
841.838	22386
841.975	22432
842.112	22382
842.249	22226
842.385	22192
842.522	22284
842.659	22219
842.796	22082
842.933	22158
843.069	22177
843.206	22139
843.343	22215
843.479	22192
843.616	22173
843.752	21964
843.889	22040
844.025	22105
844.162	21964
844.298	21983
844.435	21949
844.571	21903
844.708	22036
844.844	22006
844.98	22025
845.117	21968
845.253	21884
845.389	21888
845.525	21831
845.661	21762
845.798	21603
845.934	21812
846.07	21576
846.206	21648
846.342	21713
846.478	21713
846.614	21477
846.75	21279
846.886	21389
847.022	21606
847.158	21416
847.294	21439
847.429	21488
847.565	21367
847.701	21622
847.837	21100
847.972	21081
848.108	21214
848.244	21230
848.379	21093
848.515	20990
848.65	21020
848.786	20975
848.921	20975
849.057	21062
849.192	21081
849.328	21104
849.463	21020
849.598	20914
849.734	20868
849.869	20823
850.004	20804
850.14	20868
850.275	20876
850.41	20807
850.545	20731
850.68	20701
850.815	20887
850.95	20819
851.085	20845
851.22	20819
851.355	20724
851.49	20754
851.625	20754
851.76	20743
851.895	20735
852.03	20689
852.165	20686
852.299	20994
852.434	20750
852.569	20689
852.703	20781
852.838	20727
852.973	20880
853.107	20902
853.242	20777
853.376	20609
853.511	20518
853.645	20564
853.78	20735
853.914	20526
854.048	20606
854.183	20522
854.317	20644
854.451	20640
854.585	20556
854.72	20663
854.854	20606
854.988	20541
855.122	20590
855.256	20393
855.39	20587
855.524	20640
855.658	20663
855.792	20613
855.926	20594
856.06	20640
856.194	20792
856.327	20590
856.461	20617
856.595	20488
856.729	20556
856.862	20777
856.996	20617
857.13	20712
857.263	20678
857.397	20708
857.53	20560
857.664	20571
857.797	20655
857.931	20670
858.064	20697
858.197	20693
858.331	20499
858.464	20480
858.597	20457
858.731	20609
858.864	20549
858.997	20598
859.13	20575
859.263	20636
859.396	20648
859.529	20530
859.662	20552
859.795	20549
859.928	20575
860.061	20800
860.194	20686
860.327	20686
860.46	20636
860.592	20636
860.725	20625
860.858	20686
860.99	20644
861.123	20511
861.256	20473
861.388	20651
861.521	21184
861.653	20473
861.786	20351
861.918	20454
862.05	20594
862.183	20530
862.315	20602
862.447	20686
862.58	20427
862.712	20278
862.844	20248
862.976	20362
863.108	20404
863.24	20777
863.372	20324
863.504	20282
863.636	20290
863.768	20385
863.9	20309
864.032	20229
864.164	20225
864.296	20374
864.428	20237
864.559	20324
864.691	20393
864.823	20309
864.954	20336
865.086	20161
865.217	20122
865.349	20012
865.48	20225
865.612	20301
865.743	20492
865.875	20275
866.006	20240
866.137	20183
866.269	20237
866.4	20282
866.531	20142
866.662	20100
866.793	20081
866.924	20221
867.055	20195
867.186	20244
867.317	20027
867.448	20092
867.579	20172
867.71	20126
867.841	19951
867.972	20092
868.103	20065
868.233	20164
868.364	20130
868.495	20157
868.625	20385
868.756	20488
868.886	20301
869.017	20351
869.147	20461
869.278	20488
869.408	20358
869.539	20450
869.669	20518
869.799	20393
869.929	20511
870.06	20396
870.19	20727
870.32	20697
870.45	20769
870.58	20777
870.71	20986
870.84	21013
870.97	20765
871.1	20960
871.23	20986
871.36	21070
871.489	20872
871.619	20948
871.749	20933
871.879	21066
872.008	21150
872.138	21005
872.267	21013
872.397	20975
872.526	20785
872.656	20845
872.785	20845
872.915	21009
873.044	21062
873.173	21131
873.303	21154
873.432	21123
873.561	21142
873.69	20986
873.819	20952
873.948	21119
874.077	21138
874.206	20948
874.335	21081
874.464	21165
874.593	21237
874.722	21146
874.851	21218
874.979	21317
875.108	21351
875.237	21112
875.365	21093
875.494	21180
875.623	21386
875.751	21298
875.88	21313
876.008	21332
876.136	21348
876.265	21580
876.393	21797
876.521	21675
876.65	21724
876.778	21732
876.906	21504
877.034	21663
877.162	21629
877.29	21545
877.418	21599
877.546	21671
877.674	21663
877.802	21705
877.93	21694
878.058	21530
878.185	21473
878.313	21564
878.441	21568
878.568	21332
878.696	21519
878.824	21675
878.951	21629
879.079	21766
879.206	21937
879.333	21774
879.461	21633
879.588	21690
879.715	21857
879.842	21926
879.97	21694
880.097	21393
880.224	21466
880.351	21462
880.478	21397
880.605	21363
880.732	21386
880.859	21720
880.986	21450
881.112	21481
881.239	21321
881.366	21169
881.493	21146
881.619	20853
881.746	21028
881.872	21036
881.999	20986
882.125	20944
882.252	21074
882.378	21047
882.505	21131
882.631	20845
882.757	20754
882.883	20807
883.01	20758
883.136	20731
883.262	20617
883.388	20659
883.514	20796
883.64	20804
883.766	20750
883.892	20541
884.018	20446
884.143	20743
884.269	20826
884.395	20465
884.52	20469
884.646	20393
884.772	20301
884.897	20343
885.023	20385
885.148	20518
885.274	20549
885.399	20518
885.524	20423
885.65	20442
885.775	20317
885.9	20275
886.025	20522
886.15	20339
886.275	20377
886.4	20389
886.525	20454
886.65	20393
886.775	20431
886.9	20412
887.025	20518
887.149	20320
887.274	20172
887.399	20069
887.523	20172
887.648	20073
887.773	20001
887.897	20187
888.021	20221
888.146	20096
888.27	20153
888.395	20324
888.519	20202
888.643	20244
888.767	20157
888.891	20081
889.015	19944
889.139	20012
889.263	19944
889.387	20062
889.511	20168
889.635	19970
889.759	19928
889.883	19959
890.006	20016
890.13	19921
890.254	19799
890.377	19997
890.501	19655
890.624	19613
890.748	19635
890.871	19662
890.995	19521
891.118	19468
891.241	19567
891.364	19533
891.488	19597
891.611	19521
891.734	19586
891.857	19696
891.98	19571
892.103	19529
892.226	19571
892.349	19441
892.471	19350
892.594	19483
892.717	19499
892.839	19354
892.962	19434
893.085	19552
893.207	19514
893.33	19411
893.452	19422
893.575	19529
893.697	19464
893.819	19632
893.941	19590
894.064	19632
894.186	19373
894.308	19419
894.43	19601
894.552	19582
894.674	19460
894.796	19441
894.918	19495
895.04	19358
895.161	19476
895.283	19506
895.405	19266
895.526	19434
895.648	19400
895.769	19464
895.891	19480
896.012	19514
896.134	19495
896.255	19476
896.376	19480
896.498	19400
896.619	19567
896.74	19449
896.861	19594
896.982	19780
897.103	19940
897.224	19704
897.345	19685
897.466	19597
897.587	19670
897.708	19769
897.828	19658
897.949	19700
898.07	19483
898.19	19571
898.311	19860
898.431	19533
898.552	19586
898.672	19704
898.792	19712
898.913	19727
899.033	19666
899.153	19556
899.273	19510
899.393	19377
899.513	19502
899.633	19434
899.753	19388
899.873	19358
899.993	19335
900.113	19384
900.232	19434
900.352	19335
900.472	19324
900.591	19198
900.711	19392
900.83	19187
900.95	19400
901.069	19282
901.189	19118
901.308	18798
901.427	18776
901.546	18760
901.665	18810
901.784	18776
901.904	18642
902.023	18555
902.141	18445
902.26	18361
902.379	18475
902.498	18342
902.617	18292
902.735	18437
902.854	18300
902.973	18201
903.091	18053
903.21	17942
903.328	18057
903.446	18026
903.565	17832
903.683	17882
903.801	17771
903.919	17802
904.038	17745
904.156	17512
904.274	17459
904.392	17532
904.51	17672
904.627	17604
904.745	17623
904.863	17672
904.981	17391
905.098	17216
905.216	17311
905.334	17269
905.451	17311
905.569	17277
905.686	17239
905.803	17383
905.921	17060
906.038	17223
906.155	17143
906.272	17090
906.389	17067
906.506	16778
906.623	16755
906.74	16729
906.857	16793
906.974	16782
907.091	16881
907.208	16911
907.324	16904
907.441	16801
907.557	16698
907.674	16588
907.79	16466
907.907	16565
908.023	16546
908.139	16634
908.256	16451
908.372	16394
908.488	16474
908.604	16306
908.72	16177
908.836	16223
908.952	16284
909.068	16299
909.184	16363
909.3	16242
909.415	16295
909.531	16276
909.647	16048
909.762	16025
909.878	15998
909.993	15983
910.108	15911
910.224	16032
910.339	15987
910.454	15850
910.57	15759
910.685	15682
910.8	15994
910.915	15937
911.03	15743
911.145	15568
911.259	15591
911.374	15618
911.489	15564
911.604	15397
911.718	15370
911.833	15424
911.947	15268
912.062	15062
912.176	15340
912.291	15340
912.405	15351
912.519	15576
912.633	15545
912.748	15389
912.862	15192
912.976	15127
913.09	15005
913.204	15070
913.318	15150
913.431	15260
913.545	15150
913.659	15173
913.772	15070
913.886	15036
914	14960
914.113	15024
914.226	15077
914.34	14971
914.453	14853
914.566	15005
914.68	14777
914.793	14815
914.906	14750
915.019	14537
915.132	14518
915.245	14606
915.358	14667
915.47	14587
915.583	14533
915.696	14613
915.809	14746
915.921	14716
916.034	14488
916.146	14518
916.259	14431
916.371	14488
916.483	14511
916.595	14465
916.708	14377
916.82	14431
916.932	14370
917.044	14339
917.156	14400
917.268	14225
917.38	14305
917.491	14290
917.603	14248
917.715	14362
917.826	14339
917.938	14149
918.049	14103
918.161	14271
918.272	14415
918.384	14385
918.495	14225
918.606	14065
918.717	13913
918.828	14123
918.939	14027
919.05	13947
919.161	14008
919.272	13837
919.383	13898
919.494	14050
919.604	14168
919.715	13947
919.826	13883
919.936	13986
920.047	14027
920.157	13970
920.267	14221
920.378	13955
920.488	14012
920.598	14157
920.708	14278
920.818	14206
920.928	14267
921.038	14298
921.148	14225
921.258	13993
921.368	13894
921.477	13780
921.587	13742
921.697	13628
921.806	13776
921.916	13655
922.025	13430
922.134	13430
922.244	13388
922.353	13483
922.462	13316
922.571	13213
922.68	13091
922.789	12981
922.898	12989
923.007	13000
923.116	13015
923.224	13103
923.333	13076
923.442	12897
923.55	12894
923.659	12871
923.767	13012
923.876	12825
923.984	12962
924.092	12867
924.201	12825
924.309	12783
924.417	12806
924.525	12760
924.633	12768
924.741	13460
924.849	12601
924.956	12711
925.064	12582
925.172	12445
925.279	12399
925.387	12582
925.494	12506
925.602	12635
925.709	12578
925.816	12414
925.924	12532
926.031	12494
926.138	12429
926.245	12517
926.352	12460
926.459	12445
926.566	12521
926.673	12422
926.779	12235
926.886	12209
926.993	12167
927.099	12068
927.206	12171
927.312	11984
927.419	12178
927.525	12057
927.631	12022
927.737	11988
927.843	11984
927.95	11802
928.056	11950
928.162	11950
928.267	11996
928.373	12604
928.479	11927
928.585	11824
928.69	11828
928.796	11885
928.901	11665
929.007	11665
929.112	11672
929.218	11710
929.323	11710
929.428	11608
929.533	11794
929.638	11585
929.743	11573
929.848	11623
929.953	11638
930.058	11570
930.163	11322
930.267	11368
930.372	11493
930.477	11239
930.581	11589
930.685	11353
930.79	11265
930.894	11277
930.998	11292
931.103	11322
931.207	10995
931.311	10953
931.415	10831
931.519	10584
931.623	10660
