Data from test_V78500241_3600.txt Node
Date: Fri Mar 25 15:34:55 CST 2022
User: usil
Spectrometer: V785-0024
Trigger mode: 0
Integration Time (sec): 4.000000E-1
Scans to average: 1
Nonlinearity correction enabled: false
Boxcar width: 0
Storing dark spectrum: false
XAxis mode: Wavelengths
Number of Pixels in Spectrum: 1024
>>>>>Begin Spectral Data<<<<<
801.071	27249
801.214	27340
801.356	27085
801.499	26994
801.641	26887
801.783	26842
801.926	26762
802.068	26960
802.211	26708
802.353	26701
802.496	26492
802.638	26533
802.78	26469
802.923	26419
803.065	26381
803.208	26393
803.35	26484
803.492	26636
803.635	26495
803.777	26568
803.919	26613
804.061	27005
804.204	26750
804.346	26598
804.488	26602
804.63	26507
804.773	26495
804.915	26533
805.057	26788
805.199	26533
805.341	26781
805.483	26781
805.626	26743
805.768	26587
805.91	26682
806.052	26750
806.194	26651
806.336	26960
806.478	26689
806.62	26785
806.762	26880
806.904	27020
807.046	27203
807.188	27096
807.33	27116
807.472	27237
807.614	27096
807.756	27165
807.898	27020
808.04	26887
808.182	26948
808.324	26933
808.465	27039
808.607	27199
808.749	27355
808.891	27405
809.033	27458
809.174	27477
809.316	27264
809.458	27157
809.6	27313
809.741	27515
809.883	27408
810.025	27637
810.166	27538
810.308	27610
810.45	27538
810.591	27454
810.733	27466
810.875	27329
811.016	27310
811.158	27203
811.299	27507
811.441	27561
811.582	27519
811.724	27302
811.865	27351
812.007	27230
812.148	27192
812.29	27363
812.431	27469
812.573	27785
812.714	27717
812.855	27804
812.997	27743
813.138	28200
813.279	27876
813.421	27831
813.562	27667
813.703	27595
813.845	27496
813.986	27211
814.127	27165
814.268	27032
814.41	27020
814.551	26933
814.692	27013
814.833	26895
814.974	26842
815.115	26906
815.256	26807
815.397	26830
815.539	26914
815.68	26792
815.821	26697
815.962	26743
816.103	26708
816.244	26632
816.385	26606
816.526	26427
816.666	26301
816.807	26305
816.948	26351
817.089	26381
817.23	26263
817.371	26088
817.512	26214
817.653	26271
817.793	26237
817.934	26233
818.075	26317
818.216	26332
818.356	26252
818.497	26210
818.638	25982
818.778	25989
818.919	26046
819.06	26100
819.2	26126
819.341	26195
819.481	26161
819.622	26355
819.762	26655
819.903	26453
820.043	26568
820.184	26332
820.324	26278
820.465	26381
820.605	26358
820.746	26294
820.886	26107
821.026	26301
821.167	26267
821.307	26412
821.447	26313
821.588	26088
821.728	25982
821.868	25925
822.008	25696
822.149	25769
822.289	25700
822.429	25460
822.569	25396
822.709	25491
822.849	25293
822.99	25327
823.13	25122
823.27	25259
823.41	25084
823.55	24977
823.69	25171
823.83	25034
823.97	24989
824.11	24924
824.25	24840
824.389	24856
824.529	24882
824.669	24875
824.809	24962
824.949	24837
825.089	25034
825.228	24920
825.368	24677
825.508	24814
825.648	24669
825.787	24642
825.927	24901
826.067	24688
826.206	24715
826.346	24715
826.485	24871
826.625	24658
826.765	24882
826.904	24734
827.044	24521
827.183	24513
827.323	24559
827.462	24502
827.601	24509
827.741	24517
827.88	24547
828.02	24403
828.159	24395
828.298	24422
828.437	24547
828.577	24471
828.716	24642
828.855	24361
828.994	24224
829.134	24228
829.273	24296
829.412	24174
829.551	24155
829.69	24178
829.829	24102
829.968	24114
830.107	24346
830.246	24190
830.385	24201
830.524	24049
830.663	24057
830.802	23817
830.941	23893
831.08	23627
831.219	23836
831.357	23912
831.496	24076
831.635	23665
831.774	23589
831.913	23729
832.051	23562
832.19	23589
832.329	23642
832.467	23501
832.606	23391
832.744	23497
832.883	23551
833.022	23429
833.16	23414
833.299	23509
833.437	23528
833.576	23535
833.714	23581
833.852	23653
833.991	23649
834.129	23551
834.267	23623
834.406	23573
834.544	23581
834.682	23474
834.821	23516
834.959	23661
835.097	23448
835.235	23783
835.373	23608
835.511	23528
835.65	23448
835.788	23455
835.926	23356
836.064	23315
836.202	23239
836.34	23421
836.478	23520
836.615	23315
836.753	23372
836.891	23387
837.029	23436
837.167	23379
837.305	23223
837.443	23296
837.58	23242
837.718	23318
837.856	23200
837.993	23136
838.131	23212
838.269	23102
838.406	23136
838.544	23018
838.681	22919
838.819	22866
838.956	22664
839.094	22752
839.231	22786
839.369	22938
839.506	23185
839.643	22934
839.781	22729
839.918	22713
840.055	22664
840.193	22706
840.33	22679
840.467	22626
840.604	22717
840.742	22896
840.879	22565
841.016	22493
841.153	22516
841.29	22812
841.427	22607
841.564	22740
841.701	22713
841.838	22443
841.975	22390
842.112	22569
842.249	22580
842.385	22504
842.522	22675
842.659	22485
842.796	22398
842.933	22474
843.069	22382
843.206	22413
843.343	22447
843.479	22459
843.616	22424
843.752	22147
843.889	22200
844.025	22386
844.162	21979
844.298	22284
844.435	22295
844.571	22196
844.708	22223
844.844	22337
844.98	22344
845.117	22352
845.253	22059
845.389	22097
845.525	22128
845.661	22017
845.798	21880
845.934	21979
846.07	21797
846.206	21983
846.342	22070
846.478	21827
846.614	21778
846.75	21572
846.886	21701
847.022	21827
847.158	21705
847.294	21698
847.429	21743
847.565	21736
847.701	21930
847.837	21462
847.972	21405
848.108	21458
848.244	21393
848.379	21275
848.515	21298
848.65	21218
848.786	21237
848.921	21298
849.057	21332
849.192	21454
849.328	21367
849.463	21180
849.598	21116
849.734	21028
849.869	21081
850.004	21058
850.14	21028
850.275	21043
850.41	21070
850.545	20830
850.68	21104
850.815	21005
850.95	21066
851.085	21298
851.22	21089
851.355	21138
851.49	20933
851.625	21112
851.76	21005
851.895	20944
852.03	20963
852.165	20956
852.299	21047
852.434	21089
852.569	21093
852.703	21135
852.838	21032
852.973	21230
853.107	21127
853.242	20982
853.376	20838
853.511	20804
853.645	20819
853.78	21032
853.914	20842
854.048	20739
854.183	20899
854.317	20902
854.451	21089
854.585	20910
854.72	20899
854.854	20811
854.988	20777
855.122	20823
855.256	20743
855.39	20842
855.524	20948
855.658	20902
855.792	20819
855.926	20842
856.06	20899
856.194	20743
856.327	20792
856.461	20785
856.595	20880
856.729	20777
856.862	20891
856.996	20887
857.13	20990
857.263	20967
857.397	20971
857.53	20849
857.664	20902
857.797	20990
857.931	20952
858.064	20785
858.197	20982
858.331	20853
858.464	20769
858.597	20735
858.731	20682
858.864	20758
858.997	20918
859.13	20754
859.263	20948
859.396	20910
859.529	20785
859.662	20781
859.795	20754
859.928	20872
860.061	21020
860.194	21058
860.327	20826
860.46	20861
860.592	20845
860.725	20986
860.858	20891
860.99	20762
861.123	20804
861.256	20921
861.388	20864
861.521	21603
861.653	20648
861.786	20727
861.918	20667
862.05	20743
862.183	20781
862.315	20883
862.447	20765
862.58	20781
862.712	20545
862.844	20530
862.976	20621
863.108	20663
863.24	20796
863.372	20556
863.504	20526
863.636	20621
863.768	20651
863.9	20571
864.032	20511
864.164	20457
864.296	20545
864.428	20663
864.559	20594
864.691	20621
864.823	20526
864.954	20533
865.086	20533
865.217	20522
865.349	20366
865.48	20461
865.612	20450
865.743	20632
865.875	20438
866.006	20396
866.137	20385
866.269	20324
866.4	20389
866.531	20317
866.662	20476
866.793	20488
866.924	20446
867.055	20473
867.186	20427
867.317	20400
867.448	20305
867.579	20434
867.71	20267
867.841	20286
867.972	20461
868.103	20457
868.233	20317
868.364	20499
868.495	20412
868.625	20537
868.756	20777
868.886	20522
869.017	20640
869.147	20826
869.278	20712
869.408	20670
869.539	20606
869.669	20731
869.799	20667
869.929	20670
870.06	20769
870.19	20918
870.32	20944
870.45	21058
870.58	21085
870.71	21112
870.84	21272
870.97	21089
871.1	21013
871.23	21138
871.36	21123
871.489	21214
871.619	21180
871.749	21252
871.879	21332
872.008	21363
872.138	21283
872.267	21226
872.397	21233
872.526	21112
872.656	21127
872.785	21055
872.915	21435
873.044	21351
873.173	21302
873.303	21397
873.432	21382
873.561	21302
873.69	21344
873.819	21363
873.948	21294
874.077	21344
874.206	21378
874.335	21279
874.464	21370
874.593	21679
874.722	21435
874.851	21496
874.979	21599
875.108	21561
875.237	21618
875.365	21481
875.494	21542
875.623	21606
875.751	21542
875.88	21660
876.008	21751
876.136	21705
876.265	21964
876.393	22093
876.521	21934
876.65	22025
876.778	21926
876.906	21949
877.034	21823
877.162	21873
877.29	21876
877.418	21926
877.546	22029
877.674	21994
877.802	21884
877.93	21774
878.058	21838
878.185	21884
878.313	21816
878.441	21937
878.568	21705
878.696	21892
878.824	21842
878.951	22036
879.079	22093
879.206	22169
879.333	22051
879.461	21884
879.588	21979
879.715	22032
879.842	22196
879.97	21983
880.097	21652
880.224	21720
880.351	21789
880.478	21728
880.605	21686
880.732	21804
880.859	21899
880.986	21876
881.112	21857
881.239	21652
881.366	21382
881.493	21454
881.619	21405
881.746	21313
881.872	21264
881.999	21355
882.125	21199
882.252	21287
882.378	21310
882.505	21428
882.631	21150
882.757	21039
882.883	21146
883.01	21093
883.136	20982
883.262	20967
883.388	20785
883.514	21047
883.64	20982
883.766	20998
883.892	20705
884.018	20781
884.143	20937
884.269	21108
884.395	20712
884.52	20750
884.646	20621
884.772	20640
884.897	20575
885.023	20674
885.148	20644
885.274	20777
885.399	20708
885.524	20705
885.65	20758
885.775	20720
885.9	20590
886.025	20754
886.15	20670
886.275	20560
886.4	20648
886.525	20511
886.65	20648
886.775	20568
886.9	20716
887.025	20807
887.149	20636
887.274	20438
887.399	20431
887.523	20431
887.648	20541
887.773	20278
887.897	20575
888.021	20454
888.146	20427
888.27	20583
888.395	20564
888.519	20389
888.643	20408
888.767	20415
888.891	20324
889.015	20229
889.139	20381
889.263	20126
889.387	20526
889.511	20469
889.635	20214
889.759	20278
889.883	20229
890.006	20332
890.13	20271
890.254	20183
890.377	20229
890.501	19989
890.624	20035
890.748	20005
890.871	19879
890.995	19864
891.118	19890
891.241	19803
891.364	19753
891.488	19944
891.611	19708
891.734	19738
891.857	19856
891.98	19811
892.103	19833
892.226	19826
892.349	19784
892.471	19689
892.594	19715
892.717	19780
892.839	19685
892.962	19685
893.085	19818
893.207	19738
893.33	19681
893.452	19586
893.575	19856
893.697	19712
893.819	19856
893.941	19955
894.064	19818
894.186	19772
894.308	19689
894.43	19909
894.552	19765
894.674	19811
894.796	19601
894.918	19624
895.04	19693
895.161	19818
895.283	19738
895.405	19662
895.526	19700
895.648	19769
895.769	19769
895.891	19845
896.012	19772
896.134	19837
896.255	19750
896.376	19693
896.498	19727
896.619	19799
896.74	19784
896.861	19769
896.982	20046
897.103	20103
897.224	19993
897.345	19898
897.466	19871
897.587	19928
897.708	20069
897.828	19978
897.949	19959
898.07	19742
898.19	19845
898.311	20043
898.431	19951
898.552	20039
898.672	19989
898.792	19967
898.913	20001
899.033	19913
899.153	19780
899.273	19674
899.393	19681
899.513	19715
899.633	19742
899.753	19689
899.873	19693
899.993	19715
900.113	19750
900.232	19708
900.352	19586
900.472	19400
900.591	19525
900.711	19468
900.83	19502
900.95	19681
901.069	19613
901.189	19411
901.308	19183
901.427	19072
901.546	19129
901.665	19061
901.784	19053
901.904	18913
902.023	18753
902.141	18711
902.26	18620
902.379	18703
902.498	18593
902.617	18464
902.735	18540
902.854	18566
902.973	18464
903.091	18289
903.21	18277
903.328	18388
903.446	18167
903.565	18072
903.683	18072
903.801	17923
903.919	18026
904.038	17889
904.156	17904
904.274	17950
904.392	17832
904.51	17824
904.627	17786
904.745	17847
904.863	17897
904.981	17573
905.098	17490
905.216	17581
905.334	17471
905.451	17452
905.569	17558
905.686	17551
905.803	17493
905.921	17326
906.038	17391
906.155	17315
906.272	17204
906.389	17193
906.506	17128
906.623	17121
906.74	16934
906.857	17052
906.974	16968
907.091	17029
907.208	17265
907.324	17060
907.441	16923
907.557	16839
907.674	16755
907.79	16668
907.907	16736
908.023	16873
908.139	16763
908.256	16706
908.372	16664
908.488	16717
908.604	16554
908.72	16432
908.836	16508
908.952	16440
909.068	16546
909.184	16645
909.3	16478
909.415	16512
909.531	16424
909.647	16314
909.762	16204
909.878	16128
909.993	16215
910.108	16150
910.224	16268
910.339	16200
910.454	16128
910.57	16055
910.685	15956
910.8	16249
910.915	16268
911.03	16044
911.145	15899
911.259	15797
911.374	15865
911.489	15728
911.604	15781
911.718	15644
911.833	15580
911.947	15584
912.062	15439
912.176	15671
912.291	15625
912.405	15644
912.519	15789
912.633	15812
912.748	15549
912.862	15515
912.976	15450
913.09	15291
913.204	15302
913.318	15317
913.431	15389
913.545	15473
913.659	15500
913.772	15386
913.886	15283
914	15047
914.113	15336
914.226	15264
914.34	15264
914.453	15001
914.566	15226
914.68	15047
914.793	14952
914.906	14956
915.019	14804
915.132	14727
915.245	14785
915.358	14883
915.47	14773
915.583	14781
915.696	14788
915.809	14910
915.921	14963
916.034	14724
916.146	14644
916.259	14731
916.371	14815
916.483	14720
916.595	14708
916.708	14758
916.82	14579
916.932	14571
917.044	14552
917.156	14560
917.268	14511
917.38	14412
917.491	14473
917.603	14457
917.715	14552
917.826	14511
917.938	14484
918.049	14301
918.161	14381
918.272	14507
918.384	14507
918.495	14389
918.606	14221
918.717	14134
918.828	14202
918.939	14259
919.05	14111
919.161	14123
919.272	14020
919.383	14073
919.494	14347
919.604	14438
919.715	14229
919.826	14016
919.936	14221
920.047	14263
920.157	14199
920.267	14385
920.378	14191
920.488	14180
920.598	14343
920.708	14480
920.818	14305
920.928	14355
921.038	14579
921.148	14473
921.258	14126
921.368	13967
921.477	13963
921.587	13947
921.697	13902
921.806	13902
921.916	13753
922.025	13723
922.134	13597
922.244	13571
922.353	13609
922.462	13468
922.571	13499
922.68	13343
922.789	13285
922.898	13244
923.007	13221
923.116	13209
923.224	13259
923.333	13236
923.442	13103
923.55	13164
923.659	13171
923.767	13042
923.876	13080
923.984	13061
924.092	12962
924.201	13015
924.309	13012
924.417	12996
924.525	12913
924.633	12890
924.741	13799
924.849	12642
924.956	12882
925.064	12722
925.172	12616
925.279	12612
925.387	12692
925.494	12719
925.602	12798
925.709	12597
925.816	12498
925.924	12593
926.031	12665
926.138	12517
926.245	12642
926.352	12589
926.459	12620
926.566	12749
926.673	12486
926.779	12429
926.886	12433
926.993	12308
927.099	12190
927.206	12258
927.312	12182
927.419	12361
927.525	12258
927.631	12270
927.737	12209
927.843	12121
927.95	12038
928.056	12019
928.162	12121
928.267	12121
928.373	12585
928.479	12148
928.585	11878
928.69	11977
928.796	12022
928.901	11885
929.007	11771
929.112	11950
929.218	11920
929.323	11752
929.428	11847
929.533	11931
929.638	11802
929.743	11748
929.848	11851
929.953	11741
930.058	11611
930.163	11486
930.267	11493
930.372	11566
930.477	11463
930.581	11695
930.685	11501
930.79	11429
930.894	11433
930.998	11277
931.103	11459
931.207	11079
931.311	11102
931.415	11079
931.519	10698
931.623	10759
