Data from test_V78500241_2400.txt Node
Date: Fri Mar 25 15:26:34 CST 2022
User: usil
Spectrometer: V785-0024
Trigger mode: 0
Integration Time (sec): 4.000000E-1
Scans to average: 1
Nonlinearity correction enabled: false
Boxcar width: 0
Storing dark spectrum: false
XAxis mode: Wavelengths
Number of Pixels in Spectrum: 1024
>>>>>Begin Spectral Data<<<<<
801.071	27176
801.214	27184
801.356	27127
801.499	26868
801.641	26815
801.783	26712
801.926	26792
802.068	26655
802.211	26670
802.353	26693
802.496	26396
802.638	26412
802.78	26446
802.923	26400
803.065	26404
803.208	26317
803.35	26381
803.492	26480
803.635	26689
803.777	26446
803.919	26533
804.061	26925
804.204	26507
804.346	26480
804.488	26339
804.63	26476
804.773	26514
804.915	26461
805.057	26754
805.199	26514
805.341	26602
805.483	26533
805.626	26682
805.768	26530
805.91	26609
806.052	26587
806.194	26503
806.336	26902
806.478	26663
806.62	26712
806.762	26727
806.904	26830
807.046	27176
807.188	27135
807.33	27123
807.472	27211
807.614	27074
807.756	27104
807.898	26963
808.04	26990
808.182	26937
808.324	26967
808.465	27013
808.607	26994
808.749	27283
808.891	27351
809.033	27363
809.174	27199
809.316	27222
809.458	27241
809.6	27146
809.741	27348
809.883	27408
810.025	27477
810.166	27553
810.308	27447
810.45	27412
810.591	27458
810.733	27154
810.875	27188
811.016	26986
811.158	27157
811.299	27386
811.441	27519
811.582	27351
811.724	27165
811.865	27199
812.007	27237
812.148	27089
812.29	27416
812.431	27477
812.573	27641
812.714	27618
812.855	27812
812.997	27789
813.138	27991
813.279	27926
813.421	27789
813.562	27644
813.703	27564
813.845	27447
813.986	27192
814.127	27020
814.268	26906
814.41	27043
814.551	26876
814.692	26872
814.833	26880
814.974	26948
815.115	26963
815.256	26845
815.397	26830
815.539	26739
815.68	26602
815.821	26545
815.962	26731
816.103	26716
816.244	26678
816.385	26469
816.526	26355
816.666	26404
816.807	26195
816.948	26294
817.089	26256
817.23	26115
817.371	26191
817.512	26126
817.653	26054
817.793	26218
817.934	26153
818.075	26130
818.216	26115
818.356	25989
818.497	26024
818.638	25917
818.778	25856
818.919	25871
819.06	25993
819.2	26046
819.341	26077
819.481	26149
819.622	26320
819.762	26446
819.903	26408
820.043	26282
820.184	26237
820.324	26275
820.465	26355
820.605	26259
820.746	26298
820.886	26122
821.026	26199
821.167	26187
821.307	26191
821.447	26183
821.588	26031
821.728	26001
821.868	25803
822.008	25647
822.149	25575
822.289	25635
822.429	25396
822.569	25255
822.709	25407
822.849	25137
822.99	25187
823.13	25187
823.27	25160
823.41	24996
823.55	24875
823.69	24920
823.83	24924
823.97	24852
824.11	24753
824.25	24608
824.389	24741
824.529	24943
824.669	24776
824.809	24890
824.949	24776
825.089	24798
825.228	24772
825.368	24677
825.508	24654
825.648	24635
825.787	24715
825.927	24559
826.067	24768
826.206	24620
826.346	24684
826.485	24559
826.625	24540
826.765	24642
826.904	24783
827.044	24361
827.183	24460
827.323	24338
827.462	24456
827.601	24330
827.741	24315
827.88	24399
828.02	24133
828.159	24323
828.298	24372
828.437	24228
828.577	24182
828.716	24399
828.855	24388
828.994	24003
829.134	23992
829.273	24121
829.412	24053
829.551	24041
829.69	24114
829.829	23954
829.968	24091
830.107	24041
830.246	24045
830.385	23904
830.524	23984
830.663	23809
830.802	23771
830.941	23619
831.08	23543
831.219	23764
831.357	23748
831.496	23817
831.635	23665
831.774	23501
831.913	23687
832.051	23425
832.19	23360
832.329	23425
832.467	23452
832.606	23292
832.744	23337
832.883	23284
833.022	23277
833.16	23459
833.299	23429
833.437	23436
833.576	23398
833.714	23337
833.852	23433
833.991	23410
834.129	23406
834.267	23535
834.406	23311
834.544	23406
834.682	23478
834.821	23391
834.959	23444
835.097	23383
835.235	23467
835.373	23395
835.511	23345
835.65	23242
835.788	23235
835.926	23060
836.064	23075
836.202	23033
836.34	23216
836.478	23200
836.615	23143
836.753	23189
836.891	23345
837.029	23269
837.167	23162
837.305	23105
837.443	23102
837.58	23018
837.718	23155
837.856	23151
837.993	23044
838.131	23037
838.269	22995
838.406	23094
838.544	22938
838.681	22877
838.819	22774
838.956	22478
839.094	22550
839.231	22634
839.369	22706
839.506	22957
839.643	22744
839.781	22592
839.918	22573
840.055	22455
840.193	22519
840.33	22554
840.467	22516
840.604	22432
840.742	22691
840.879	22363
841.016	22363
841.153	22432
841.29	22519
841.427	22535
841.564	22565
841.701	22561
841.838	22333
841.975	22398
842.112	22424
842.249	22337
842.385	22169
842.522	22394
842.659	22318
842.796	22192
842.933	22314
843.069	22185
843.206	22158
843.343	22272
843.479	22249
843.616	22196
843.752	22112
843.889	21956
844.025	22215
844.162	21956
844.298	22128
844.435	22036
844.571	21934
844.708	22006
844.844	22249
844.98	22044
845.117	22207
845.253	22029
845.389	21884
845.525	21915
845.661	21865
845.798	21785
845.934	21785
846.07	21743
846.206	21857
846.342	21842
846.478	21823
846.614	21561
846.75	21511
846.886	21568
847.022	21622
847.158	21488
847.294	21523
847.429	21485
847.565	21477
847.701	21770
847.837	21378
847.972	21173
848.108	21287
848.244	21401
848.379	21104
848.515	21070
848.65	21062
848.786	21173
848.921	21058
849.057	21214
849.192	21256
849.328	21135
849.463	21211
849.598	21024
849.734	21066
849.869	20937
850.004	20842
850.14	20929
850.275	20914
850.41	20861
850.545	20868
850.68	20929
850.815	20838
850.95	20815
851.085	20872
851.22	20971
851.355	20921
851.49	20750
851.625	20804
851.76	20720
851.895	20697
852.03	20758
852.165	20861
852.299	20872
852.434	20849
852.569	20857
852.703	20853
852.838	20921
852.973	20990
853.107	20990
853.242	20826
853.376	20606
853.511	20670
853.645	20568
853.78	20777
853.914	20682
854.048	20579
854.183	20579
854.317	20739
854.451	20819
854.585	20727
854.72	20655
854.854	20689
854.988	20590
855.122	20625
855.256	20522
855.39	20670
855.524	20785
855.658	20727
855.792	20708
855.926	20727
856.06	20781
856.194	20739
856.327	20697
856.461	20568
856.595	20556
856.729	20705
856.862	20724
856.996	20762
857.13	20708
857.263	20773
857.397	20777
857.53	20750
857.664	20667
857.797	20659
857.931	20815
858.064	20758
858.197	20864
858.331	20785
858.464	20545
858.597	20568
858.731	20587
858.864	20606
858.997	20552
859.13	20670
859.263	20667
859.396	20785
859.529	20587
859.662	20609
859.795	20682
859.928	20648
860.061	20648
860.194	20876
860.327	20686
860.46	20644
860.592	20804
860.725	20830
860.858	20899
860.99	20587
861.123	20545
861.256	20648
861.388	20716
861.521	21264
861.653	20552
861.786	20545
861.918	20377
862.05	20552
862.183	20549
862.315	20613
862.447	20796
862.58	20541
862.712	20393
862.844	20381
862.976	20484
863.108	20511
863.24	20876
863.372	20324
863.504	20415
863.636	20465
863.768	20461
863.9	20434
864.032	20423
864.164	20400
864.296	20377
864.428	20419
864.559	20461
864.691	20412
864.823	20381
864.954	20423
865.086	20374
865.217	20480
865.349	20145
865.48	20210
865.612	20317
865.743	20404
865.875	20278
866.006	20199
866.137	20286
866.269	20309
866.4	20267
866.531	20100
866.662	20218
866.793	20244
866.924	20210
867.055	20237
867.186	20221
867.317	20199
867.448	20248
867.579	20218
867.71	20149
867.841	20176
867.972	20370
868.103	20263
868.233	20278
868.364	20225
868.495	20336
868.625	20457
868.756	20606
868.886	20446
869.017	20469
869.147	20606
869.278	20571
869.408	20415
869.539	20438
869.669	20537
869.799	20518
869.929	20651
870.06	20617
870.19	20746
870.32	20743
870.45	20743
870.58	20857
870.71	21028
870.84	20914
870.97	20857
871.1	20876
871.23	21184
871.36	21051
871.489	20914
871.619	20933
871.749	21032
871.879	21085
872.008	21230
872.138	21013
872.267	21214
872.397	20921
872.526	20899
872.656	20880
872.785	20902
872.915	21062
873.044	21089
873.173	21093
873.303	21089
873.432	21188
873.561	21245
873.69	21146
873.819	21207
873.948	21192
874.077	21096
874.206	20910
874.335	21009
874.464	21150
874.593	21389
874.722	21291
874.851	21397
874.979	21389
875.108	21306
875.237	21389
875.365	21359
875.494	21252
875.623	21363
875.751	21332
875.88	21386
876.008	21439
876.136	21583
876.265	21747
876.393	21907
876.521	21831
876.65	21717
876.778	21713
876.906	21835
877.034	21701
877.162	21663
877.29	21705
877.418	21701
877.546	21739
877.674	21641
877.802	21671
877.93	21583
878.058	21622
878.185	21492
878.313	21633
878.441	21789
878.568	21469
878.696	21660
878.824	21698
878.951	21808
879.079	21934
879.206	21953
879.333	21876
879.461	21736
879.588	21808
879.715	21960
879.842	22002
879.97	21762
880.097	21447
880.224	21583
880.351	21606
880.478	21488
880.605	21454
880.732	21583
880.859	21705
880.986	21435
881.112	21641
881.239	21462
881.366	21192
881.493	21237
881.619	21116
881.746	21123
881.872	21180
881.999	20948
882.125	21051
882.252	21112
882.378	20948
882.505	21131
882.631	20956
882.757	20819
882.883	20906
883.01	20788
883.136	20777
883.262	20511
883.388	20667
883.514	20845
883.64	20796
883.766	20830
883.892	20526
884.018	20636
884.143	20773
884.269	20834
884.395	20469
884.52	20503
884.646	20476
884.772	20343
884.897	20309
885.023	20419
885.148	20442
885.274	20564
885.399	20507
885.524	20457
885.65	20404
885.775	20518
885.9	20412
886.025	20621
886.15	20514
886.275	20328
886.4	20484
886.525	20556
886.65	20450
886.775	20294
886.9	20560
887.025	20617
887.149	20347
887.274	20259
887.399	20180
887.523	20210
887.648	20286
887.773	20153
887.897	20244
888.021	20259
888.146	20180
888.27	20229
888.395	20202
888.519	20134
888.643	20320
888.767	20317
888.891	20145
889.015	20126
889.139	20122
889.263	20111
889.387	20130
889.511	20351
889.635	20210
889.759	20119
889.883	20027
890.006	20046
890.13	20130
890.254	20020
890.377	19963
890.501	19772
890.624	19791
890.748	19795
890.871	19708
890.995	19624
891.118	19582
891.241	19597
891.364	19655
891.488	19879
891.611	19544
891.734	19613
891.857	19639
891.98	19643
892.103	19582
892.226	19727
892.349	19582
892.471	19415
892.594	19457
892.717	19605
892.839	19521
892.962	19594
893.085	19582
893.207	19521
893.33	19396
893.452	19480
893.575	19529
893.697	19525
893.819	19696
893.941	19746
894.064	19643
894.186	19441
894.308	19510
894.43	19670
894.552	19719
894.674	19647
894.796	19392
894.918	19487
895.04	19312
895.161	19582
895.283	19613
895.405	19438
895.526	19594
895.648	19575
895.769	19544
895.891	19616
896.012	19616
896.134	19521
896.255	19624
896.376	19533
896.498	19578
896.619	19685
896.74	19491
896.861	19651
896.982	19894
897.103	19818
897.224	19841
897.345	19731
897.466	19620
897.587	19742
897.708	19936
897.828	19818
897.949	19647
898.07	19529
898.19	19594
898.311	19803
898.431	19658
898.552	19731
898.672	19967
898.792	19799
898.913	19769
899.033	19708
899.153	19586
899.273	19506
899.393	19556
899.513	19571
899.633	19594
899.753	19483
899.873	19346
899.993	19594
900.113	19499
900.232	19514
900.352	19464
900.472	19365
900.591	19308
900.711	19304
900.83	19289
900.95	19468
901.069	19392
901.189	19160
901.308	19088
901.427	18890
901.546	18859
901.665	18947
901.784	18905
901.904	18734
902.023	18696
902.141	18559
902.26	18346
902.379	18528
902.498	18399
902.617	18456
902.735	18445
902.854	18525
902.973	18311
903.091	18262
903.21	18129
903.328	18190
903.446	18098
903.565	17882
903.683	17904
903.801	17832
903.919	17855
904.038	17851
904.156	17733
904.274	17809
904.392	17623
904.51	17592
904.627	17649
904.745	17707
904.863	17710
904.981	17585
905.098	17337
905.216	17398
905.334	17254
905.451	17330
905.569	17284
905.686	17334
905.803	17280
905.921	17151
906.038	17284
906.155	17242
906.272	17033
906.389	17033
906.506	16869
906.623	16885
906.74	16877
906.857	16801
906.974	16725
907.091	16980
907.208	17102
907.324	16915
907.441	16786
907.557	16603
907.674	16622
907.79	16531
907.907	16558
908.023	16645
908.139	16733
908.256	16607
908.372	16554
908.488	16459
908.604	16405
908.72	16303
908.836	16360
908.952	16390
909.068	16462
909.184	16405
909.3	16360
909.415	16459
909.531	16287
909.647	16124
909.762	16093
909.878	16025
909.993	16036
910.108	16040
910.224	16017
910.339	15972
910.454	15922
910.57	15865
910.685	15873
910.8	16044
910.915	15998
911.03	15922
911.145	15774
911.259	15675
911.374	15652
911.489	15584
911.604	15462
911.718	15382
911.833	15492
911.947	15287
912.062	15226
912.176	15382
912.291	15340
912.405	15348
912.519	15599
912.633	15523
912.748	15382
912.862	15287
912.976	15291
913.09	15161
913.204	15211
913.318	15241
913.431	15355
913.545	15313
913.659	15340
913.772	15192
913.886	15112
914	15001
914.113	15146
914.226	15131
914.34	15085
914.453	14937
914.566	15028
914.68	14963
914.793	14864
914.906	14670
915.019	14583
915.132	14594
915.245	14632
915.358	14663
915.47	14648
915.583	14705
915.696	14731
915.809	14792
915.921	14758
916.034	14499
916.146	14457
916.259	14598
916.371	14701
916.483	14568
916.595	14457
916.708	14412
916.82	14533
916.932	14530
917.044	14473
917.156	14457
917.268	14271
917.38	14252
917.491	14317
917.603	14385
917.715	14400
917.826	14431
917.938	14229
918.049	14183
918.161	14370
918.272	14461
918.384	14301
918.495	14252
918.606	14138
918.717	13993
918.828	14142
918.939	14145
919.05	13993
919.161	14107
919.272	13894
919.383	13894
919.494	14107
919.604	14332
919.715	13993
919.826	13982
919.936	13978
920.047	14183
920.157	14035
920.267	14263
920.378	14008
920.488	13986
920.598	14225
920.708	14476
920.818	14202
920.928	14180
921.038	14358
921.148	14275
921.258	13993
921.368	13993
921.477	13849
921.587	13753
921.697	13670
921.806	13833
921.916	13655
922.025	13480
922.134	13419
922.244	13407
922.353	13422
922.462	13285
922.571	13270
922.68	13164
922.789	13053
922.898	13152
923.007	13050
923.116	13110
923.224	13118
923.333	13031
923.442	12958
923.55	13019
923.659	12905
923.767	13042
923.876	12909
923.984	12958
924.092	12817
924.201	12981
924.309	12783
924.417	12970
924.525	12703
924.633	12966
924.741	13731
924.849	12627
924.956	12700
925.064	12681
925.172	12490
925.279	12578
925.387	12536
925.494	12597
925.602	12753
925.709	12578
925.816	12399
925.924	12467
926.031	12589
926.138	12502
926.245	12536
926.352	12448
926.459	12578
926.566	12574
926.673	12418
926.779	12353
926.886	12308
926.993	12129
927.099	12114
927.206	12079
927.312	12064
927.419	12213
927.525	12175
927.631	12140
927.737	12015
927.843	12011
927.95	11885
928.056	11893
928.162	11980
928.267	12011
928.373	12574
928.479	12068
928.585	11840
928.69	11988
928.796	11973
928.901	11843
929.007	11699
929.112	11824
929.218	11691
929.323	11657
929.428	11726
929.533	11760
929.638	11611
929.743	11684
929.848	11642
929.953	11615
930.058	11592
930.163	11414
930.267	11345
930.372	11467
930.477	11349
930.581	11509
930.685	11402
930.79	11239
930.894	11318
930.998	11296
931.103	11360
931.207	11029
931.311	10930
931.415	10946
931.519	10710
931.623	10706
