Data from test_V78500241_3608.txt Node
Date: Fri Mar 25 15:34:58 CST 2022
User: usil
Spectrometer: V785-0024
Trigger mode: 0
Integration Time (sec): 4.000000E-1
Scans to average: 1
Nonlinearity correction enabled: false
Boxcar width: 0
Storing dark spectrum: false
XAxis mode: Wavelengths
Number of Pixels in Spectrum: 1024
>>>>>Begin Spectral Data<<<<<
801.071	27211
801.214	27427
801.356	27013
801.499	26994
801.641	26979
801.783	26925
801.926	26918
802.068	26937
802.211	26712
802.353	26823
802.496	26583
802.638	26625
802.78	26511
802.923	26408
803.065	26347
803.208	26396
803.35	26518
803.492	26549
803.635	26777
803.777	26480
803.919	26762
804.061	27074
804.204	26632
804.346	26533
804.488	26571
804.63	26556
804.773	26434
804.915	26678
805.057	26708
805.199	26663
805.341	26701
805.483	26746
805.626	26651
805.768	26613
805.91	26849
806.052	26895
806.194	26697
806.336	26895
806.478	26735
806.62	26727
806.762	26933
806.904	26906
807.046	27226
807.188	27138
807.33	27173
807.472	27089
807.614	26971
807.756	27135
807.898	27036
808.04	26845
808.182	26842
808.324	26952
808.465	27058
808.607	27150
808.749	27222
808.891	27363
809.033	27583
809.174	27454
809.316	27321
809.458	27332
809.6	27241
809.741	27359
809.883	27576
810.025	27629
810.166	27690
810.308	27606
810.45	27583
810.591	27637
810.733	27374
810.875	27519
811.016	27317
811.158	27233
811.299	27336
811.441	27572
811.582	27663
811.724	27245
811.865	27431
812.007	27325
812.148	27367
812.29	27321
812.431	27473
812.573	27652
812.714	27793
812.855	27762
812.997	27873
813.138	27983
813.279	27793
813.421	27968
813.562	27831
813.703	27671
813.845	27580
813.986	27211
814.127	27180
814.268	27066
814.41	27066
814.551	27032
814.692	27214
814.833	26990
814.974	27013
815.115	27131
815.256	26788
815.397	27036
815.539	26967
815.68	26788
815.821	26773
815.962	26838
816.103	26815
816.244	26533
816.385	26629
816.526	26556
816.666	26385
816.807	26355
816.948	26427
817.089	26298
817.23	26294
817.371	26267
817.512	26275
817.653	26256
817.793	26199
817.934	26202
818.075	26381
818.216	26339
818.356	26320
818.497	26115
818.638	26001
818.778	26050
818.919	26008
819.06	26115
819.2	26126
819.341	26252
819.481	26180
819.622	26434
819.762	26613
819.903	26461
820.043	26480
820.184	26476
820.324	26324
820.465	26233
820.605	26366
820.746	26351
820.886	26263
821.026	26355
821.167	26275
821.307	26290
821.447	26408
821.588	26176
821.728	26107
821.868	25845
822.008	25845
822.149	25719
822.289	25719
822.429	25388
822.569	25384
822.709	25422
822.849	25236
822.99	25297
823.13	25278
823.27	25122
823.41	25126
823.55	24954
823.69	25012
823.83	25164
823.97	24954
824.11	24973
824.25	24772
824.389	24871
824.529	25046
824.669	24867
824.809	25152
824.949	24776
825.089	24981
825.228	24920
825.368	24776
825.508	24787
825.648	24772
825.787	24734
825.927	24848
826.067	24700
826.206	24783
826.346	24787
826.485	24863
826.625	24798
826.765	24909
826.904	24745
827.044	24589
827.183	24570
827.323	24365
827.462	24532
827.601	24528
827.741	24486
827.88	24471
828.02	24346
828.159	24315
828.298	24521
828.437	24517
828.577	24403
828.716	24544
828.855	24445
828.994	24209
829.134	24197
829.273	24266
829.412	24038
829.551	24174
829.69	24194
829.829	24369
829.968	24327
830.107	24205
830.246	24182
830.385	24197
830.524	24262
830.663	23969
830.802	23946
830.941	23878
831.08	23832
831.219	23836
831.357	23863
831.496	24053
831.635	23794
831.774	23707
831.913	23775
832.051	23729
832.19	23638
832.329	23676
832.467	23387
832.606	23490
832.744	23452
832.883	23474
833.022	23505
833.16	23653
833.299	23615
833.437	23493
833.576	23543
833.714	23573
833.852	23547
833.991	23592
834.129	23562
834.267	23535
834.406	23600
834.544	23558
834.682	23627
834.821	23592
834.959	23817
835.097	23512
835.235	23630
835.373	23619
835.511	23345
835.65	23318
835.788	23474
835.926	23231
836.064	23212
836.202	23208
836.34	23455
836.478	23543
836.615	23436
836.753	23395
836.891	23524
837.029	23474
837.167	23341
837.305	23170
837.443	23258
837.58	23208
837.718	23368
837.856	23334
837.993	23166
838.131	23151
838.269	23147
838.406	23254
838.544	23071
838.681	22801
838.819	22881
838.956	22740
839.094	22752
839.231	22565
839.369	22946
839.506	23140
839.643	22961
839.781	22721
839.918	22691
840.055	22660
840.193	22694
840.33	22618
840.467	22656
840.604	22698
840.742	23033
840.879	22519
841.016	22748
841.153	22752
841.29	22698
841.427	22660
841.564	22611
841.701	22573
841.838	22645
841.975	22694
842.112	22565
842.249	22493
842.385	22546
842.522	22573
842.659	22538
842.796	22470
842.933	22417
843.069	22360
843.206	22447
843.343	22489
843.479	22428
843.616	22497
843.752	22177
843.889	22158
844.025	22276
844.162	22196
844.298	22291
844.435	22211
844.571	22280
844.708	22234
844.844	22375
844.98	22409
845.117	22299
845.253	22211
845.389	22181
845.525	22090
845.661	22025
845.798	21884
845.934	22131
846.07	21979
846.206	21956
846.342	22124
846.478	22013
846.614	21804
846.75	21595
846.886	21679
847.022	21873
847.158	21724
847.294	21739
847.429	21675
847.565	21671
847.701	21972
847.837	21568
847.972	21370
848.108	21500
848.244	21405
848.379	21492
848.515	21218
848.65	21211
848.786	21302
848.921	21393
849.057	21355
849.192	21298
849.328	21207
849.463	21131
849.598	21195
849.734	21233
849.869	21070
850.004	21051
850.14	21135
850.275	21028
850.41	20925
850.545	21047
850.68	21077
850.815	21108
850.95	20982
851.085	21218
851.22	21283
851.355	21024
851.49	21032
851.625	21039
851.76	21058
851.895	20845
852.03	20921
852.165	20982
852.299	21142
852.434	21108
852.569	21154
852.703	21009
852.838	20994
852.973	21161
853.107	21165
853.242	20971
853.376	20906
853.511	20853
853.645	20758
853.78	21085
853.914	20944
854.048	20731
854.183	20785
854.317	20876
854.451	20982
854.585	20754
854.72	20830
854.854	20830
854.988	20857
855.122	20712
855.256	20804
855.39	20796
855.524	20982
855.658	20963
855.792	20868
855.926	20994
856.06	20849
856.194	20921
856.327	20876
856.461	20834
856.595	20826
856.729	20746
856.862	20933
856.996	20906
857.13	20975
857.263	21017
857.397	20998
857.53	20724
857.664	20929
857.797	20895
857.931	20902
858.064	20883
858.197	20986
858.331	20967
858.464	20807
858.597	20815
858.731	20864
858.864	20952
858.997	20830
859.13	20857
859.263	20746
859.396	20956
859.529	20857
859.662	20887
859.795	20857
859.928	20975
860.061	20990
860.194	21028
860.327	20979
860.46	20876
860.592	20933
860.725	21089
860.858	20956
860.99	20887
861.123	20842
861.256	20872
861.388	20864
861.521	21572
861.653	20731
861.786	20712
861.918	20701
862.05	20754
862.183	20857
862.315	20819
862.447	20815
862.58	20750
862.712	20537
862.844	20602
862.976	20625
863.108	20674
863.24	20849
863.372	20526
863.504	20568
863.636	20621
863.768	20556
863.9	20579
864.032	20556
864.164	20511
864.296	20568
864.428	20724
864.559	20705
864.691	20727
864.823	20625
864.954	20495
865.086	20606
865.217	20579
865.349	20332
865.48	20431
865.612	20533
865.743	20636
865.875	20514
866.006	20408
866.137	20541
866.269	20495
866.4	20473
866.531	20431
866.662	20495
866.793	20476
866.924	20507
867.055	20488
867.186	20450
867.317	20484
867.448	20301
867.579	20412
867.71	20309
867.841	20370
867.972	20450
868.103	20488
868.233	20511
868.364	20400
868.495	20537
868.625	20697
868.756	20682
868.886	20564
869.017	20598
869.147	20739
869.278	20750
869.408	20651
869.539	20651
869.669	20735
869.799	20682
869.929	20868
870.06	20731
870.19	20906
870.32	21043
870.45	20929
870.58	21085
870.71	21176
870.84	21154
870.97	21020
871.1	21112
871.23	21287
871.36	21176
871.489	21313
871.619	21184
871.749	21252
871.879	21321
872.008	21363
872.138	21298
872.267	21283
872.397	21036
872.526	21108
872.656	21173
872.785	21093
872.915	21294
873.044	21302
873.173	21233
873.303	21317
873.432	21306
873.561	21291
873.69	21310
873.819	21294
873.948	21481
874.077	21264
874.206	21310
874.335	21313
874.464	21477
874.593	21534
874.722	21561
874.851	21549
874.979	21557
875.108	21504
875.237	21443
875.365	21656
875.494	21466
875.623	21629
875.751	21469
875.88	21549
876.008	21713
876.136	21762
876.265	22017
876.393	22048
876.521	22090
876.65	21964
876.778	21979
876.906	21873
877.034	21926
877.162	21884
877.29	21880
877.418	21861
877.546	21899
877.674	21869
877.802	21934
877.93	21907
878.058	21736
878.185	21724
878.313	21861
878.441	21903
878.568	21739
878.696	21873
878.824	21812
878.951	22013
879.079	22192
879.206	22162
879.333	22112
879.461	21876
879.588	22036
879.715	22013
879.842	22166
879.97	21895
880.097	21793
880.224	21682
880.351	21800
880.478	21675
880.605	21694
880.732	21789
880.859	21937
880.986	21709
881.112	21842
881.239	21641
881.366	21454
881.493	21412
881.619	21329
881.746	21382
881.872	21279
881.999	21207
882.125	21230
882.252	21348
882.378	21317
882.505	21412
882.631	21268
882.757	20994
882.883	21176
883.01	20971
883.136	20941
883.262	20956
883.388	20910
883.514	21005
883.64	21096
883.766	21047
883.892	20796
884.018	20823
884.143	20986
884.269	21100
884.395	20727
884.52	20667
884.646	20773
884.772	20598
884.897	20533
885.023	20670
885.148	20632
885.274	20769
885.399	20781
885.524	20697
885.65	20659
885.775	20556
885.9	20629
886.025	20663
886.15	20807
886.275	20640
886.4	20659
886.525	20552
886.65	20587
886.775	20598
886.9	20746
887.025	20918
887.149	20571
887.274	20389
887.399	20377
887.523	20419
887.648	20381
887.773	20347
887.897	20473
888.021	20473
888.146	20237
888.27	20526
888.395	20484
888.519	20457
888.643	20476
888.767	20427
888.891	20347
889.015	20366
889.139	20275
889.263	20282
889.387	20271
889.511	20370
889.635	20248
889.759	20233
889.883	20119
890.006	20286
890.13	20282
890.254	20142
890.377	20183
890.501	19986
890.624	19883
890.748	20043
890.871	19841
890.995	19761
891.118	19666
891.241	19909
891.364	19715
891.488	19890
891.611	19750
891.734	19830
891.857	19887
891.98	19822
892.103	19734
892.226	19799
892.349	19772
892.471	19506
892.594	19788
892.717	19753
892.839	19681
892.962	19799
893.085	19795
893.207	19772
893.33	19594
893.452	19616
893.575	19750
893.697	19700
893.819	19833
893.941	19947
894.064	19944
894.186	19723
894.308	19662
894.43	19860
894.552	19845
894.674	19731
894.796	19495
894.918	19658
895.04	19734
895.161	19765
895.283	19784
895.405	19674
895.526	19715
895.648	19750
895.769	19616
895.891	19757
896.012	19731
896.134	19727
896.255	19693
896.376	19750
896.498	19803
896.619	19715
896.74	19578
896.861	19731
896.982	20092
897.103	20084
897.224	20008
897.345	19902
897.466	19906
897.587	19925
897.708	20107
897.828	20027
897.949	19890
898.07	19818
898.19	19837
898.311	20027
898.431	19898
898.552	19921
898.672	20084
898.792	20039
898.913	19845
899.033	19788
899.153	19776
899.273	19712
899.393	19639
899.513	19666
899.633	19723
899.753	19632
899.873	19582
899.993	19807
900.113	19666
900.232	19674
900.352	19613
900.472	19491
900.591	19510
900.711	19476
900.83	19392
900.95	19582
901.069	19552
901.189	19335
901.308	19190
901.427	18981
901.546	19091
901.665	19118
901.784	19179
901.904	18901
902.023	18757
902.141	18642
902.26	18681
902.379	18700
902.498	18513
902.617	18658
902.735	18585
902.854	18639
902.973	18445
903.091	18254
903.21	18296
903.328	18243
903.446	18114
903.565	18022
903.683	18106
903.801	17874
903.919	18098
904.038	18049
904.156	17741
904.274	17977
904.392	17726
904.51	17748
904.627	17813
904.745	17874
904.863	17802
904.981	17619
905.098	17452
905.216	17619
905.334	17467
905.451	17455
905.569	17592
905.686	17577
905.803	17547
905.921	17318
906.038	17402
906.155	17296
906.272	17193
906.389	17246
906.506	17071
906.623	17041
906.74	17105
906.857	16847
906.974	16953
907.091	17086
907.208	17197
907.324	17064
907.441	16881
907.557	16755
907.674	16835
907.79	16656
907.907	16698
908.023	16767
908.139	16748
908.256	16672
908.372	16759
908.488	16622
908.604	16550
908.72	16443
908.836	16462
908.952	16440
909.068	16470
909.184	16656
909.3	16565
909.415	16497
909.531	16489
909.647	16253
909.762	16242
909.878	16158
909.993	16158
910.108	16188
910.224	16029
910.339	16207
910.454	16169
910.57	16021
910.685	15922
910.8	16242
910.915	16154
911.03	15873
911.145	15842
911.259	15827
911.374	15827
911.489	15675
911.604	15652
911.718	15523
911.833	15515
911.947	15538
912.062	15382
912.176	15610
912.291	15682
912.405	15667
912.519	15736
912.633	15759
912.748	15656
912.862	15507
912.976	15447
913.09	15348
913.204	15386
913.318	15458
913.431	15458
913.545	15447
913.659	15397
913.772	15405
913.886	15252
914	15157
914.113	15275
914.226	15260
914.34	15283
914.453	15138
914.566	15176
914.68	15051
914.793	15081
914.906	14853
915.019	14872
915.132	14743
915.245	14750
915.358	14773
915.47	14864
915.583	14811
915.696	14838
915.809	14986
915.921	14998
916.034	14811
916.146	14834
916.259	14735
916.371	14762
916.483	14811
916.595	14640
916.708	14629
916.82	14670
916.932	14663
917.044	14583
917.156	14568
917.268	14476
917.38	14545
917.491	14564
917.603	14587
917.715	14537
917.826	14545
917.938	14415
918.049	14290
918.161	14389
918.272	14621
918.384	14598
918.495	14446
918.606	14286
918.717	14225
918.828	14396
918.939	14286
919.05	14210
919.161	14301
919.272	13989
919.383	14145
919.494	14343
919.604	14412
919.715	14221
919.826	14164
919.936	14229
920.047	14320
920.157	14237
920.267	14324
920.378	14259
920.488	14214
920.598	14511
920.708	14434
920.818	14355
920.928	14389
921.038	14560
921.148	14507
921.258	14240
921.368	14123
921.477	13986
921.587	13974
921.697	13852
921.806	14035
921.916	13791
922.025	13712
922.134	13681
922.244	13434
922.353	13643
922.462	13552
922.571	13510
922.68	13392
922.789	13278
922.898	13225
923.007	13228
923.116	13331
923.224	13308
923.333	13225
923.442	13107
923.55	13129
923.659	13088
923.767	13202
923.876	13057
923.984	13080
924.092	12939
924.201	12970
924.309	13019
924.417	13008
924.525	12935
924.633	12928
924.741	13814
924.849	12665
924.956	12871
925.064	12711
925.172	12635
925.279	12627
925.387	12772
925.494	12559
925.602	12924
925.709	12757
925.816	12559
925.924	12684
926.031	12787
926.138	12646
926.245	12650
926.352	12509
926.459	12669
926.566	12715
926.673	12593
926.779	12429
926.886	12460
926.993	12323
927.099	12346
927.206	12239
927.312	12247
927.419	12323
927.525	12239
927.631	12292
927.737	12140
927.843	12072
927.95	11996
928.056	12133
928.162	12106
928.267	12182
928.373	12787
928.479	12140
928.585	11916
928.69	12068
928.796	12125
928.901	11965
929.007	11786
929.112	11912
929.218	11977
929.323	11855
929.428	11783
929.533	11923
929.638	11699
929.743	11680
929.848	11824
929.953	11855
930.058	11718
930.163	11596
930.267	11493
930.372	11691
930.477	11471
930.581	11710
930.685	11630
930.79	11376
930.894	11421
930.998	11417
931.103	11516
931.207	11193
931.311	11067
931.415	11022
931.519	10904
931.623	10797
