Data from test_V78500241_470.txt Node
Date: Fri Mar 25 15:13:07 CST 2022
User: usil
Spectrometer: V785-0024
Trigger mode: 0
Integration Time (sec): 4.000000E-1
Scans to average: 1
Nonlinearity correction enabled: false
Boxcar width: 0
Storing dark spectrum: false
XAxis mode: Wavelengths
Number of Pixels in Spectrum: 1024
>>>>>Begin Spectral Data<<<<<
801.071	27386
801.214	27264
801.356	27138
801.499	26998
801.641	27013
801.783	26944
801.926	27070
802.068	26834
802.211	26864
802.353	26693
802.496	26609
802.638	26670
802.78	26659
802.923	26507
803.065	26507
803.208	26621
803.35	26537
803.492	26716
803.635	26735
803.777	26701
803.919	26876
804.061	27154
804.204	26720
804.346	26727
804.488	26575
804.63	26735
804.773	26651
804.915	26773
805.057	26834
805.199	26773
805.341	26918
805.483	26838
805.626	26842
805.768	26556
805.91	26788
806.052	27005
806.194	26708
806.336	26838
806.478	26891
806.62	26731
806.762	26982
806.904	26899
807.046	27393
807.188	27268
807.33	27359
807.472	27249
807.614	27207
807.756	27294
807.898	27020
808.04	27146
808.182	26982
808.324	27184
808.465	26963
808.607	27214
808.749	27431
808.891	27477
809.033	27618
809.174	27545
809.316	27424
809.458	27416
809.6	27382
809.741	27610
809.883	27564
810.025	27671
810.166	27717
810.308	27778
810.45	27618
810.591	27732
810.733	27526
810.875	27515
811.016	27241
811.158	27332
811.299	27496
811.441	27641
811.582	27610
811.724	27553
811.865	27401
812.007	27481
812.148	27359
812.29	27466
812.431	27637
812.573	27854
812.714	27880
812.855	27937
812.997	28082
813.138	28124
813.279	28070
813.421	28036
813.562	28063
813.703	27914
813.845	27747
813.986	27466
814.127	27355
814.268	27123
814.41	27237
814.551	27180
814.692	27173
814.833	27116
814.974	27017
815.115	27081
815.256	26872
815.397	26891
815.539	26925
815.68	26887
815.821	26940
815.962	26956
816.103	26777
816.244	26750
816.385	26648
816.526	26716
816.666	26488
816.807	26415
816.948	26469
817.089	26644
817.23	26404
817.371	26393
817.512	26408
817.653	26480
817.793	26457
817.934	26511
818.075	26438
818.216	26377
818.356	26263
818.497	26336
818.638	26077
818.778	26199
818.919	26058
819.06	26271
819.2	26172
819.341	26518
819.481	26366
819.622	26495
819.762	26868
819.903	26594
820.043	26617
820.184	26423
820.324	26499
820.465	26594
820.605	26503
820.746	26697
820.886	26427
821.026	26473
821.167	26511
821.307	26488
821.447	26453
821.588	26286
821.728	26065
821.868	25966
822.008	25913
822.149	25936
822.289	25803
822.429	25620
822.569	25582
822.709	25476
822.849	25521
822.99	25483
823.13	25343
823.27	25354
823.41	25152
823.55	25088
823.69	25202
823.83	25293
823.97	25148
824.11	25031
824.25	25034
824.389	25050
824.529	25072
824.669	25099
824.809	25057
824.949	24947
825.089	25122
825.228	25019
825.368	24924
825.508	24859
825.648	24875
825.787	24863
825.927	24932
826.067	24776
826.206	24814
826.346	24935
826.485	24878
826.625	24947
826.765	24992
826.904	24833
827.044	24650
827.183	24612
827.323	24563
827.462	24582
827.601	24517
827.741	24505
827.88	24601
828.02	24486
828.159	24703
828.298	24601
828.437	24688
828.577	24517
828.716	24814
828.855	24441
828.994	24330
829.134	24254
829.273	24342
829.412	24323
829.551	24190
829.69	24220
829.829	24243
829.968	24437
830.107	24239
830.246	24304
830.385	24277
830.524	24346
830.663	24136
830.802	24053
830.941	23885
831.08	23843
831.219	24007
831.357	23969
831.496	24235
831.635	24034
831.774	23863
831.913	23863
832.051	23775
832.19	23764
832.329	23741
832.467	23665
832.606	23551
832.744	23543
832.883	23600
833.022	23486
833.16	23676
833.299	23638
833.437	23657
833.576	23608
833.714	23729
833.852	23649
833.991	23741
834.129	23756
834.267	23748
834.406	23619
834.544	23783
834.682	23729
834.821	23756
834.959	23790
835.097	23649
835.235	23703
835.373	23779
835.511	23703
835.65	23535
835.788	23630
835.926	23471
836.064	23376
836.202	23299
836.34	23649
836.478	23577
836.615	23421
836.753	23459
836.891	23547
837.029	23566
837.167	23543
837.305	23562
837.443	23467
837.58	23436
837.718	23398
837.856	23368
837.993	23334
838.131	23299
838.269	23265
838.406	23315
838.544	23102
838.681	23003
838.819	23132
838.956	22942
839.094	22858
839.231	22881
839.369	23052
839.506	23334
839.643	23147
839.781	22869
839.918	22786
840.055	22824
840.193	22801
840.33	22763
840.467	22809
840.604	22850
840.742	23064
840.879	22672
841.016	22713
841.153	22679
841.29	22965
841.427	22733
841.564	22733
841.701	22828
841.838	22698
841.975	22710
842.112	22790
842.249	22561
842.385	22634
842.522	22763
842.659	22721
842.796	22550
842.933	22459
843.069	22470
843.206	22497
843.343	22565
843.479	22554
843.616	22691
843.752	22424
843.889	22280
844.025	22516
844.162	22325
844.298	22531
844.435	22257
844.571	22363
844.708	22405
844.844	22280
844.98	22561
845.117	22386
845.253	22215
845.389	22314
845.525	22166
845.661	22249
845.798	22109
845.934	22131
846.07	21915
846.206	22143
846.342	22207
846.478	22002
846.614	21907
846.75	21736
846.886	21873
847.022	21819
847.158	21892
847.294	21838
847.429	21960
847.565	21660
847.701	22048
847.837	21549
847.972	21553
848.108	21583
848.244	21625
848.379	21447
848.515	21389
848.65	21321
848.786	21382
848.921	21553
849.057	21420
849.192	21515
849.328	21473
849.463	21458
849.598	21355
849.734	21272
849.869	21287
850.004	21089
850.14	21252
850.275	21169
850.41	21142
850.545	21100
850.68	21055
850.815	21165
850.95	21123
851.085	21233
851.22	21294
851.355	21173
851.49	21222
851.625	21176
851.76	21154
851.895	21032
852.03	21077
852.165	21150
852.299	21192
852.434	21264
852.569	21214
852.703	21100
852.838	21192
852.973	21245
853.107	21344
853.242	21070
853.376	21051
853.511	20845
853.645	20948
853.78	21131
853.914	20998
854.048	20994
854.183	21047
854.317	20971
854.451	21233
854.585	20925
854.72	20902
854.854	21032
854.988	20899
855.122	20979
855.256	20883
855.39	20925
855.524	21020
855.658	21028
855.792	20956
855.926	21047
856.06	21157
856.194	21123
856.327	21009
856.461	21009
856.595	20899
856.729	20971
856.862	21013
856.996	21024
857.13	21013
857.263	21017
857.397	21146
857.53	21009
857.664	20979
857.797	21024
857.931	21036
858.064	21131
858.197	21169
858.331	20990
858.464	20941
858.597	20842
858.731	20864
858.864	20956
858.997	20929
859.13	20948
859.263	21043
859.396	21020
859.529	20872
859.662	21024
859.795	21081
859.928	20963
860.061	21173
860.194	21070
860.327	21154
860.46	21001
860.592	21085
860.725	21146
860.858	21047
860.99	21001
861.123	20971
861.256	20929
861.388	21070
861.521	21599
861.653	20845
861.786	20727
861.918	20815
862.05	20906
862.183	20944
862.315	20937
862.447	21032
862.58	20864
862.712	20735
862.844	20663
862.976	20815
863.108	20625
863.24	21169
863.372	20701
863.504	20598
863.636	20621
863.768	20864
863.9	20648
864.032	20651
864.164	20697
864.296	20686
864.428	20944
864.559	20686
864.691	20674
864.823	20727
864.954	20724
865.086	20686
865.217	20594
865.349	20556
865.48	20606
865.612	20629
865.743	20731
865.875	20594
866.006	20625
866.137	20629
866.269	20617
866.4	20594
866.531	20545
866.662	20465
866.793	20465
866.924	20514
867.055	20556
867.186	20499
867.317	20514
867.448	20385
867.579	20438
867.71	20473
867.841	20541
867.972	20541
868.103	20549
868.233	20640
868.364	20507
868.495	20625
868.625	20693
868.756	20750
868.886	20758
869.017	20750
869.147	20838
869.278	20956
869.408	20788
869.539	20811
869.669	20876
869.799	20785
869.929	20902
870.06	20891
870.19	21116
870.32	21066
870.45	21066
870.58	21150
870.71	21260
870.84	21203
870.97	21131
871.1	21211
871.23	21412
871.36	21332
871.489	21230
871.619	21268
871.749	21272
871.879	21443
872.008	21534
872.138	21382
872.267	21473
872.397	21241
872.526	21184
872.656	21302
872.785	21252
872.915	21397
873.044	21389
873.173	21329
873.303	21538
873.432	21420
873.561	21519
873.69	21431
873.819	21336
873.948	21439
874.077	21351
874.206	21291
874.335	21401
874.464	21496
874.593	21660
874.722	21515
874.851	21660
874.979	21663
875.108	21663
875.237	21614
875.365	21538
875.494	21568
875.623	21724
875.751	21622
875.88	21679
876.008	21770
876.136	21831
876.265	21987
876.393	22128
876.521	22002
876.65	22166
876.778	22154
876.906	22067
877.034	21915
877.162	22017
877.29	21918
877.418	21918
877.546	21915
877.674	21895
877.802	21991
877.93	21975
878.058	21949
878.185	21797
878.313	21884
878.441	22036
878.568	21785
878.696	21994
878.824	22013
878.951	22048
879.079	22074
879.206	22303
879.333	22112
879.461	22150
879.588	22082
879.715	22124
879.842	22173
879.97	22048
880.097	21732
880.224	21747
880.351	21892
880.478	21781
880.605	21793
880.732	21854
880.859	21892
880.986	21838
881.112	21732
881.239	21671
881.366	21553
881.493	21492
881.619	21393
881.746	21393
881.872	21454
881.999	21260
882.125	21370
882.252	21553
882.378	21302
882.505	21469
882.631	21150
882.757	21020
882.883	21195
883.01	21066
883.136	21047
883.262	20971
883.388	20910
883.514	21264
883.64	21154
883.766	21108
883.892	20785
884.018	20861
884.143	20994
884.269	21272
884.395	20731
884.52	20689
884.646	20792
884.772	20781
884.897	20663
885.023	20758
885.148	20800
885.274	20891
885.399	20902
885.524	20724
885.65	20788
885.775	20674
885.9	20769
886.025	20823
886.15	20857
886.275	20686
886.4	20632
886.525	20735
886.65	20613
886.775	20568
886.9	20880
887.025	20834
887.149	20682
887.274	20552
887.399	20511
887.523	20526
887.648	20507
887.773	20366
887.897	20507
888.021	20564
888.146	20423
888.27	20617
888.395	20613
888.519	20579
888.643	20655
888.767	20533
888.891	20499
889.015	20377
889.139	20366
889.263	20351
889.387	20465
889.511	20511
889.635	20461
889.759	20252
889.883	20317
890.006	20339
890.13	20438
890.254	20202
890.377	20336
890.501	20058
890.624	20008
890.748	20062
890.871	19986
890.995	19852
891.118	19818
891.241	19887
891.364	19803
891.488	20027
891.611	19750
891.734	19849
891.857	20005
891.98	19974
892.103	19860
892.226	19864
892.349	19761
892.471	19742
892.594	19769
892.717	19776
892.839	19715
892.962	19765
893.085	19906
893.207	19738
893.33	19628
893.452	19704
893.575	19879
893.697	19704
893.819	19967
893.941	19925
894.064	19944
894.186	19704
894.308	19609
894.43	19852
894.552	19936
894.674	19811
894.796	19681
894.918	19715
895.04	19826
895.161	19811
895.283	19883
895.405	19616
895.526	19795
895.648	19738
895.769	19841
895.891	19791
896.012	19788
896.134	19712
896.255	19822
896.376	19791
896.498	19890
896.619	19795
896.74	19814
896.861	19921
896.982	20092
897.103	20115
897.224	20096
897.345	20005
897.466	19868
897.587	20039
897.708	20176
897.828	20122
897.949	19970
898.07	19883
898.19	20027
898.311	20100
898.431	19837
898.552	20027
898.672	20069
898.792	20100
898.913	19951
899.033	19909
899.153	19818
899.273	19635
899.393	19689
899.513	19837
899.633	19708
899.753	19700
899.873	19689
899.993	19727
900.113	19681
900.232	19715
900.352	19719
900.472	19616
900.591	19510
900.711	19639
900.83	19506
900.95	19658
901.069	19601
901.189	19445
901.308	19217
901.427	19148
901.546	19198
901.665	19107
901.784	19133
901.904	18928
902.023	18875
902.141	18677
902.26	18715
902.379	18745
902.498	18688
902.617	18509
902.735	18597
902.854	18627
902.973	18475
903.091	18448
903.21	18315
903.328	18384
903.446	18152
903.565	18041
903.683	18121
903.801	17942
903.919	18053
904.038	18114
904.156	17878
904.274	17904
904.392	17859
904.51	17878
904.627	17855
904.745	17931
904.863	17889
904.981	17680
905.098	17566
905.216	17596
905.334	17547
905.451	17558
905.569	17543
905.686	17558
905.803	17604
905.921	17410
906.038	17452
906.155	17349
906.272	17265
906.389	17296
906.506	17174
906.623	17048
906.74	17052
906.857	17033
906.974	16949
907.091	17155
907.208	17322
907.324	17181
907.441	17067
907.557	16885
907.674	16900
907.79	16717
907.907	16683
908.023	16820
908.139	16873
908.256	16755
908.372	16721
908.488	16736
908.604	16607
908.72	16443
908.836	16481
908.952	16588
909.068	16649
909.184	16645
909.3	16470
909.415	16519
909.531	16615
909.647	16405
909.762	16249
909.878	16280
909.993	16230
910.108	16219
910.224	16280
910.339	16162
910.454	16173
910.57	16074
910.685	15983
910.8	16356
910.915	16105
911.03	16090
911.145	15956
911.259	15831
911.374	15888
911.489	15899
911.604	15701
911.718	15686
911.833	15603
911.947	15462
912.062	15549
912.176	15538
912.291	15584
912.405	15629
912.519	15793
912.633	15911
912.748	15675
912.862	15568
912.976	15477
913.09	15374
913.204	15481
913.318	15340
913.431	15481
913.545	15469
913.659	15519
913.772	15466
913.886	15272
914	15154
914.113	15412
914.226	15374
914.34	15294
914.453	15211
914.566	15233
914.68	15093
914.793	15089
914.906	14948
915.019	14804
915.132	14853
915.245	14880
915.358	14883
915.47	14887
915.583	14849
915.696	14872
915.809	14960
915.921	14933
916.034	14815
916.146	14773
916.259	14788
916.371	14845
916.483	14758
916.595	14602
916.708	14678
916.82	14625
916.932	14727
917.044	14651
917.156	14651
917.268	14503
917.38	14651
917.491	14522
917.603	14625
917.715	14587
917.826	14545
917.938	14549
918.049	14324
918.161	14438
918.272	14602
918.384	14587
918.495	14476
918.606	14290
918.717	14210
918.828	14309
918.939	14221
919.05	14065
919.161	14225
919.272	14123
919.383	14119
919.494	14336
919.604	14457
919.715	14221
919.826	14191
919.936	14199
920.047	14309
920.157	14282
920.267	14389
920.378	14294
920.488	14248
920.598	14400
920.708	14499
920.818	14400
920.928	14404
921.038	14651
921.148	14454
921.258	14233
921.368	14050
921.477	14096
921.587	14119
921.697	13890
921.806	14077
921.916	13902
922.025	13746
922.134	13655
922.244	13616
922.353	13632
922.462	13510
922.571	13464
922.68	13354
922.789	13259
922.898	13270
923.007	13202
923.116	13369
923.224	13270
923.333	13247
923.442	13225
923.55	13080
923.659	13084
923.767	13168
923.876	13057
923.984	13091
924.092	13065
924.201	13091
924.309	13000
924.417	13027
924.525	12947
924.633	12951
924.741	13887
924.849	12772
924.956	12928
925.064	12749
925.172	12681
925.279	12711
925.387	12722
925.494	12696
925.602	12897
925.709	12802
925.816	12654
925.924	12646
926.031	12688
926.138	12627
926.245	12635
926.352	12555
926.459	12711
926.566	12601
926.673	12536
926.779	12414
926.886	12448
926.993	12315
927.099	12365
927.206	12285
927.312	12254
927.419	12308
927.525	12190
927.631	12361
927.737	12194
927.843	12152
927.95	12045
928.056	12148
928.162	12102
928.267	12159
928.373	12787
928.479	12197
928.585	11885
928.69	12133
928.796	12041
928.901	12003
929.007	11832
929.112	11950
929.218	11885
929.323	11817
929.428	11783
929.533	11996
929.638	11767
929.743	11851
929.848	11866
929.953	11809
930.058	11585
930.163	11471
930.267	11558
930.372	11665
930.477	11486
930.581	11741
930.685	11566
930.79	11452
930.894	11448
930.998	11444
931.103	11570
931.207	11140
931.311	11064
931.415	10957
931.519	10839
931.623	10812
