Data from test_V78500241_3290.txt Node
Date: Fri Mar 25 15:32:46 CST 2022
User: usil
Spectrometer: V785-0024
Trigger mode: 0
Integration Time (sec): 4.000000E-1
Scans to average: 1
Nonlinearity correction enabled: false
Boxcar width: 0
Storing dark spectrum: false
XAxis mode: Wavelengths
Number of Pixels in Spectrum: 1024
>>>>>Begin Spectral Data<<<<<
801.071	27389
801.214	27332
801.356	27150
801.499	26986
801.641	26792
801.783	26902
801.926	26929
802.068	26895
802.211	26823
802.353	26598
802.496	26552
802.638	26545
802.78	26453
802.923	26389
803.065	26396
803.208	26301
803.35	26484
803.492	26537
803.635	26746
803.777	26552
803.919	26678
804.061	26933
804.204	26716
804.346	26644
804.488	26526
804.63	26602
804.773	26583
804.915	26606
805.057	26758
805.199	26655
805.341	26792
805.483	26716
805.626	26629
805.768	26739
805.91	26769
806.052	26693
806.194	26651
806.336	26883
806.478	26720
806.62	26667
806.762	26853
806.904	26944
807.046	27287
807.188	27211
807.33	27195
807.472	27176
807.614	27028
807.756	27150
807.898	27024
808.04	26971
808.182	26933
808.324	26967
808.465	27032
808.607	27070
808.749	27393
808.891	27542
809.033	27507
809.174	27519
809.316	27439
809.458	27165
809.6	27222
809.741	27382
809.883	27603
810.025	27576
810.166	27618
810.308	27561
810.45	27690
810.591	27583
810.733	27298
810.875	27405
811.016	27405
811.158	27195
811.299	27519
811.441	27542
811.582	27603
811.724	27401
811.865	27340
812.007	27325
812.148	27363
812.29	27439
812.431	27545
812.573	27507
812.714	27675
812.855	27755
812.997	27964
813.138	27972
813.279	27876
813.421	27793
813.562	27774
813.703	27583
813.845	27405
813.986	27230
814.127	27081
814.268	26948
814.41	27135
814.551	27074
814.692	27047
814.833	26929
814.974	26853
815.115	27017
815.256	26864
815.397	26902
815.539	26861
815.68	26689
815.821	26689
815.962	26902
816.103	26762
816.244	26644
816.385	26587
816.526	26560
816.666	26396
816.807	26252
816.948	26389
817.089	26377
817.23	26320
817.371	26263
817.512	26187
817.653	26237
817.793	26157
817.934	26259
818.075	26202
818.216	26309
818.356	26046
818.497	26130
818.638	25940
818.778	25997
818.919	25997
819.06	26020
819.2	26275
819.341	26313
819.481	26195
819.622	26442
819.762	26575
819.903	26495
820.043	26400
820.184	26294
820.324	26305
820.465	26537
820.605	26366
820.746	26305
820.886	26282
821.026	26271
821.167	26347
821.307	26419
821.447	26294
821.588	26084
821.728	25890
821.868	26005
822.008	25696
822.149	25807
822.289	25639
822.429	25453
822.569	25430
822.709	25411
822.849	25217
822.99	25278
823.13	25160
823.27	25209
823.41	25015
823.55	24996
823.69	24985
823.83	25069
823.97	25061
824.11	24783
824.25	24916
824.389	24837
824.529	24966
824.669	24863
824.809	24932
824.949	24943
825.089	24985
825.228	24966
825.368	24677
825.508	24833
825.648	24738
825.787	24719
825.927	24905
826.067	24650
826.206	24741
826.346	24905
826.485	24741
826.625	24791
826.765	24817
826.904	24722
827.044	24612
827.183	24448
827.323	24414
827.462	24505
827.601	24547
827.741	24502
827.88	24467
828.02	24395
828.159	24410
828.298	24376
828.437	24513
828.577	24365
828.716	24555
828.855	24365
828.994	24053
829.134	24064
829.273	24239
829.412	24194
829.551	24087
829.69	24197
829.829	24273
829.968	24334
830.107	24262
830.246	24174
830.385	24102
830.524	24072
830.663	24041
830.802	23946
830.941	23832
831.08	23737
831.219	23859
831.357	23893
831.496	23950
831.635	23611
831.774	23764
831.913	23691
832.051	23585
832.19	23695
832.329	23592
832.467	23589
832.606	23474
832.744	23433
832.883	23410
833.022	23337
833.16	23440
833.299	23501
833.437	23406
833.576	23585
833.714	23596
833.852	23661
833.991	23505
834.129	23596
834.267	23558
834.406	23406
834.544	23501
834.682	23596
834.821	23486
834.959	23756
835.097	23410
835.235	23573
835.373	23551
835.511	23490
835.65	23376
835.788	23497
835.926	23326
836.064	23159
836.202	23242
836.34	23429
836.478	23543
836.615	23360
836.753	23383
836.891	23505
837.029	23376
837.167	23349
837.305	23349
837.443	23174
837.58	23185
837.718	23265
837.856	23261
837.993	23250
838.131	23273
838.269	23003
838.406	23121
838.544	23155
838.681	23014
838.819	22763
838.956	22668
839.094	22679
839.231	22664
839.369	22862
839.506	23086
839.643	22885
839.781	22679
839.918	22702
840.055	22577
840.193	22740
840.33	22687
840.467	22721
840.604	22691
840.742	22904
840.879	22409
841.016	22527
841.153	22470
841.29	22824
841.427	22618
841.564	22512
841.701	22637
841.838	22550
841.975	22527
842.112	22637
842.249	22527
842.385	22417
842.522	22645
842.659	22546
842.796	22394
842.933	22398
843.069	22451
843.206	22363
843.343	22493
843.479	22436
843.616	22333
843.752	22169
843.889	22166
844.025	22257
844.162	22128
844.298	22287
844.435	22010
844.571	22082
844.708	22162
844.844	22318
844.98	22329
845.117	22238
845.253	22097
845.389	22040
845.525	22063
845.661	22029
845.798	21888
845.934	21850
846.07	21812
846.206	22101
846.342	21895
846.478	21888
846.614	21724
846.75	21713
846.886	21709
847.022	21698
847.158	21675
847.294	21557
847.429	21797
847.565	21625
847.701	21865
847.837	21504
847.972	21401
848.108	21416
848.244	21488
848.379	21260
848.515	21188
848.65	21298
848.786	21256
848.921	21283
849.057	21298
849.192	21344
849.328	21332
849.463	21317
849.598	21241
849.734	21127
849.869	21142
850.004	20994
850.14	21100
850.275	21043
850.41	20967
850.545	21039
850.68	21001
850.815	21135
850.95	21104
851.085	21268
851.22	21165
851.355	21119
851.49	20899
851.625	21112
851.76	20914
851.895	20986
852.03	20925
852.165	21043
852.299	21116
852.434	20975
852.569	21108
852.703	21017
852.838	21055
852.973	21142
853.107	21195
853.242	20914
853.376	20838
853.511	20705
853.645	20830
853.78	20838
853.914	20952
854.048	20883
854.183	20842
854.317	20887
854.451	20982
854.585	20796
854.72	20708
854.854	20937
854.988	20807
855.122	20952
855.256	20693
855.39	20807
855.524	20868
855.658	20800
855.792	20750
855.926	20861
856.06	20849
856.194	20834
856.327	20785
856.461	20785
856.595	20765
856.729	20861
856.862	20906
856.996	20895
857.13	20910
857.263	20906
857.397	20937
857.53	20925
857.664	20842
857.797	20944
857.931	20929
858.064	20872
858.197	20902
858.331	20807
858.464	20796
858.597	20731
858.731	20773
858.864	20804
858.997	20830
859.13	20845
859.263	20811
859.396	20853
859.529	20921
859.662	20765
859.795	20800
859.928	20891
860.061	21066
860.194	21028
860.327	20872
860.46	20880
860.592	21020
860.725	20963
860.858	20971
860.99	20834
861.123	20864
861.256	20689
861.388	20830
861.521	21302
861.653	20686
861.786	20655
861.918	20663
862.05	20693
862.183	20826
862.315	20754
862.447	20880
862.58	20724
862.712	20552
862.844	20594
862.976	20625
863.108	20670
863.24	20967
863.372	20454
863.504	20564
863.636	20473
863.768	20594
863.9	20575
864.032	20495
864.164	20503
864.296	20564
864.428	20648
864.559	20640
864.691	20594
864.823	20560
864.954	20552
865.086	20552
865.217	20473
865.349	20476
865.48	20457
865.612	20518
865.743	20575
865.875	20552
866.006	20461
866.137	20419
866.269	20412
866.4	20362
866.531	20473
866.662	20438
866.793	20374
866.924	20278
867.055	20431
867.186	20552
867.317	20454
867.448	20396
867.579	20286
867.71	20218
867.841	20263
867.972	20446
868.103	20381
868.233	20393
868.364	20518
868.495	20537
868.625	20617
868.756	20659
868.886	20659
869.017	20659
869.147	20625
869.278	20830
869.408	20762
869.539	20621
869.669	20735
869.799	20720
869.929	20777
870.06	20667
870.19	20899
870.32	20895
870.45	20895
870.58	21062
870.71	21093
870.84	21100
870.97	21020
871.1	20944
871.23	21249
871.36	21218
871.489	21203
871.619	21195
871.749	21374
871.879	21367
872.008	21287
872.138	21245
872.267	21325
872.397	21157
872.526	21100
872.656	21112
872.785	21138
872.915	21252
873.044	21405
873.173	21237
873.303	21355
873.432	21405
873.561	21500
873.69	21294
873.819	21298
873.948	21393
874.077	21310
874.206	21169
874.335	21089
874.464	21386
874.593	21488
874.722	21462
874.851	21447
874.979	21462
875.108	21530
875.237	21443
875.365	21454
875.494	21568
875.623	21553
875.751	21420
875.88	21561
876.008	21606
876.136	21701
876.265	21994
876.393	22082
876.521	22051
876.65	22021
876.778	21907
876.906	21960
877.034	21930
877.162	21793
877.29	21774
877.418	21922
877.546	21915
877.674	21994
877.802	21892
877.93	21842
878.058	21770
878.185	21656
878.313	21812
878.441	21808
878.568	21705
878.696	21854
878.824	21876
878.951	22032
879.079	21964
879.206	22139
879.333	22093
879.461	21857
879.588	21979
879.715	21926
879.842	22093
879.97	21854
880.097	21618
880.224	21774
880.351	21671
880.478	21739
880.605	21694
880.732	21728
880.859	21838
880.986	21542
881.112	21519
881.239	21587
881.366	21382
881.493	21401
881.619	21378
881.746	21447
881.872	21302
881.999	21112
882.125	21142
882.252	21252
882.378	21306
882.505	21405
882.631	20971
882.757	20998
882.883	20933
883.01	20933
883.136	20918
883.262	20864
883.388	20834
883.514	20986
883.64	21047
883.766	20899
883.892	20777
884.018	20826
884.143	20971
884.269	20990
884.395	20796
884.52	20621
884.646	20746
884.772	20663
884.897	20469
885.023	20678
885.148	20697
885.274	20857
885.399	20632
885.524	20644
885.65	20697
885.775	20758
885.9	20670
886.025	20701
886.15	20701
886.275	20602
886.4	20446
886.525	20575
886.65	20602
886.775	20541
886.9	20754
887.025	20697
887.149	20503
887.274	20408
887.399	20377
887.523	20408
887.648	20271
887.773	20252
887.897	20457
888.021	20450
888.146	20370
888.27	20484
888.395	20408
888.519	20343
888.643	20415
888.767	20461
888.891	20427
889.015	20187
889.139	20210
889.263	20210
889.387	20267
889.511	20290
889.635	20377
889.759	20100
889.883	20176
890.006	20168
890.13	20347
890.254	20206
890.377	20103
890.501	19947
890.624	19913
890.748	19974
890.871	19795
890.995	19814
891.118	19704
891.241	19761
891.364	19780
891.488	19868
891.611	19864
891.734	19746
891.857	19635
891.98	19685
892.103	19845
892.226	19791
892.349	19757
892.471	19582
892.594	19757
892.717	19738
892.839	19613
892.962	19685
893.085	19852
893.207	19715
893.33	19597
893.452	19552
893.575	19715
893.697	19616
893.819	19833
893.941	19963
894.064	19719
894.186	19635
894.308	19635
894.43	19788
894.552	19814
894.674	19750
894.796	19647
894.918	19571
895.04	19696
895.161	19753
895.283	19601
895.405	19662
895.526	19715
895.648	19788
895.769	19765
895.891	19788
896.012	19738
896.134	19731
896.255	19689
896.376	19639
896.498	19693
896.619	19772
896.74	19712
896.861	19734
896.982	19959
897.103	20145
897.224	19989
897.345	19936
897.466	19845
897.587	19883
897.708	20031
897.828	19898
897.949	19887
898.07	19662
898.19	19860
898.311	20058
898.431	19864
898.552	19989
898.672	20031
898.792	19978
898.913	19936
899.033	19982
899.153	19624
899.273	19586
899.393	19719
899.513	19719
899.633	19681
899.753	19769
899.873	19670
899.993	19761
900.113	19620
900.232	19556
900.352	19567
900.472	19616
900.591	19449
900.711	19460
900.83	19312
900.95	19483
901.069	19510
901.189	19411
901.308	19190
901.427	18985
901.546	18966
901.665	19118
901.784	19053
901.904	18878
902.023	18806
902.141	18612
902.26	18665
902.379	18574
902.498	18506
902.617	18521
902.735	18578
902.854	18509
902.973	18540
903.091	18197
903.21	18247
903.328	18125
903.446	18152
903.565	17996
903.683	18060
903.801	17935
903.919	18007
904.038	17980
904.156	17866
904.274	17935
904.392	17824
904.51	17973
904.627	17733
904.745	17790
904.863	17885
904.981	17661
905.098	17448
905.216	17436
905.334	17471
905.451	17440
905.569	17604
905.686	17611
905.803	17387
905.921	17250
906.038	17414
906.155	17269
906.272	17250
906.389	17170
906.506	17083
906.623	16911
906.74	17010
906.857	16946
906.974	16991
907.091	17052
907.208	17117
907.324	17025
907.441	16904
907.557	16869
907.674	16835
907.79	16744
907.907	16637
908.023	16763
908.139	16778
908.256	16710
908.372	16618
908.488	16698
908.604	16531
908.72	16405
908.836	16500
908.952	16436
909.068	16478
909.184	16531
909.3	16462
909.415	16481
909.531	16447
909.647	16226
909.762	16120
909.878	16124
909.993	16192
910.108	16211
910.224	16166
910.339	16169
910.454	16097
910.57	15987
910.685	15915
910.8	16173
910.915	16166
911.03	15945
911.145	15816
911.259	15759
911.374	15694
911.489	15660
911.604	15694
911.718	15564
911.833	15488
911.947	15511
912.062	15355
912.176	15507
912.291	15603
912.405	15572
912.519	15637
912.633	15755
912.748	15564
912.862	15424
912.976	15355
913.09	15211
913.204	15294
913.318	15294
913.431	15466
913.545	15336
913.659	15401
913.772	15302
913.886	15207
914	15207
914.113	15180
914.226	15325
914.34	15298
914.453	14963
914.566	15226
914.68	14979
914.793	14963
914.906	14861
915.019	14731
915.132	14746
915.245	14769
915.358	14800
915.47	14727
915.583	14804
915.696	14830
915.809	14838
915.921	14960
916.034	14693
916.146	14693
916.259	14663
916.371	14727
916.483	14670
916.595	14625
916.708	14587
916.82	14629
916.932	14522
917.044	14545
917.156	14556
917.268	14393
917.38	14427
917.491	14404
917.603	14552
917.715	14480
917.826	14579
917.938	14434
918.049	14305
918.161	14469
918.272	14556
918.384	14556
918.495	14438
918.606	14358
918.717	14172
918.828	14294
918.939	14221
919.05	14134
919.161	14172
919.272	13978
919.383	14081
919.494	14221
919.604	14404
919.715	14176
919.826	14187
919.936	14180
920.047	14225
920.157	14126
920.267	14404
920.378	14225
920.488	14199
920.598	14248
920.708	14545
920.818	14294
920.928	14336
921.038	14488
921.148	14514
921.258	14149
921.368	13993
921.477	13951
921.587	13936
921.697	13955
921.806	13925
921.916	13753
922.025	13662
922.134	13636
922.244	13502
922.353	13582
922.462	13525
922.571	13445
922.68	13343
922.789	13236
922.898	13179
923.007	13209
923.116	13343
923.224	13285
923.333	13240
923.442	13061
923.55	13084
923.659	13114
923.767	13088
923.876	13072
923.984	13145
924.092	13012
924.201	13038
924.309	13015
924.417	12954
924.525	12897
924.633	12821
924.741	13898
924.849	12688
924.956	12871
925.064	12760
925.172	12669
925.279	12700
925.387	12616
925.494	12719
925.602	12844
925.709	12711
925.816	12585
925.924	12540
926.031	12703
926.138	12601
926.245	12669
926.352	12483
926.459	12593
926.566	12696
926.673	12525
926.779	12445
926.886	12407
926.993	12254
927.099	12239
927.206	12159
927.312	12220
927.419	12254
927.525	12235
927.631	12327
927.737	12034
927.843	12110
927.95	12045
928.056	12140
928.162	12045
928.267	12220
928.373	12745
928.479	12182
928.585	11904
928.69	12003
928.796	12117
928.901	11927
929.007	11775
929.112	11973
929.218	11908
929.323	11859
929.428	11794
929.533	11889
929.638	11756
929.743	11676
929.848	11794
929.953	11745
930.058	11703
930.163	11486
930.267	11505
930.372	11684
930.477	11471
930.581	11714
930.685	11440
930.79	11482
930.894	11391
930.998	11337
931.103	11486
931.207	11303
931.311	11075
931.415	10942
931.519	10782
931.623	10873
