Data from test_V78500241_469.txt Node
Date: Fri Mar 25 15:13:07 CST 2022
User: usil
Spectrometer: V785-0024
Trigger mode: 0
Integration Time (sec): 4.000000E-1
Scans to average: 1
Nonlinearity correction enabled: false
Boxcar width: 0
Storing dark spectrum: false
XAxis mode: Wavelengths
Number of Pixels in Spectrum: 1024
>>>>>Begin Spectral Data<<<<<
801.071	27355
801.214	27329
801.356	27146
801.499	27077
801.641	26861
801.783	26960
801.926	27077
802.068	27131
802.211	26739
802.353	26792
802.496	26686
802.638	26492
802.78	26552
802.923	26484
803.065	26568
803.208	26533
803.35	26495
803.492	26682
803.635	26849
803.777	26712
803.919	26746
804.061	26994
804.204	26769
804.346	26693
804.488	26731
804.63	26682
804.773	26659
804.915	26613
805.057	26887
805.199	26682
805.341	26819
805.483	26781
805.626	26899
805.768	26758
805.91	26872
806.052	26880
806.194	26720
806.336	27039
806.478	26918
806.62	26982
806.762	26899
806.904	27146
807.046	27397
807.188	27336
807.33	27317
807.472	27169
807.614	27222
807.756	27199
807.898	27131
808.04	27154
808.182	27180
808.324	27138
808.465	26971
808.607	27256
808.749	27583
808.891	27599
809.033	27618
809.174	27553
809.316	27408
809.458	27496
809.6	27405
809.741	27542
809.883	27606
810.025	27876
810.166	27675
810.308	27545
810.45	27698
810.591	27789
810.733	27618
810.875	27310
811.016	27363
811.158	27435
811.299	27641
811.441	27713
811.582	27557
811.724	27416
811.865	27405
812.007	27504
812.148	27492
812.29	27511
812.431	27542
812.573	27831
812.714	27914
812.855	27899
812.997	28105
813.138	28196
813.279	28219
813.421	28021
813.562	28055
813.703	27781
813.845	27724
813.986	27427
814.127	27348
814.268	27226
814.41	27165
814.551	27116
814.692	27291
814.833	26967
814.974	27142
815.115	27112
815.256	27055
815.397	26971
815.539	27127
815.68	26975
815.821	26838
815.962	27047
816.103	26845
816.244	26773
816.385	26769
816.526	26693
816.666	26484
816.807	26549
816.948	26598
817.089	26568
817.23	26560
817.371	26446
817.512	26415
817.653	26396
817.793	26309
817.934	26415
818.075	26412
818.216	26438
818.356	26465
818.497	26404
818.638	26138
818.778	26206
818.919	26290
819.06	26214
819.2	26393
819.341	26396
819.481	26396
819.622	26560
819.762	26826
819.903	26556
820.043	26648
820.184	26609
820.324	26556
820.465	26598
820.605	26564
820.746	26545
820.886	26355
821.026	26415
821.167	26644
821.307	26575
821.447	26393
821.588	26275
821.728	26100
821.868	26180
822.008	25826
822.149	25727
822.289	25791
822.429	25597
822.569	25616
822.709	25658
822.849	25384
822.99	25327
823.13	25415
823.27	25350
823.41	25145
823.55	25095
823.69	25217
823.83	25236
823.97	25091
824.11	24920
824.25	25148
824.389	24981
824.529	25175
824.669	25031
824.809	25175
824.949	25072
825.089	25194
825.228	25164
825.368	24894
825.508	24890
825.648	25000
825.787	24920
825.927	24924
826.067	24837
826.206	24852
826.346	24837
826.485	24840
826.625	24833
826.765	24992
826.904	25038
827.044	24665
827.183	24673
827.323	24661
827.462	24601
827.601	24734
827.741	24616
827.88	24631
828.02	24509
828.159	24635
828.298	24593
828.437	24700
828.577	24532
828.716	24715
828.855	24593
828.994	24410
829.134	24300
829.273	24285
829.412	24414
829.551	24369
829.69	24216
829.829	24300
829.968	24327
830.107	24346
830.246	24262
830.385	24247
830.524	24209
830.663	24152
830.802	24121
830.941	23980
831.08	23946
831.219	23908
831.357	23984
831.496	24213
831.635	23961
831.774	23866
831.913	23813
832.051	23680
832.19	23764
832.329	23764
832.467	23707
832.606	23570
832.744	23600
832.883	23585
833.022	23562
833.16	23691
833.299	23699
833.437	23619
833.576	23672
833.714	23699
833.852	23646
833.991	23760
834.129	23809
834.267	23729
834.406	23737
834.544	23714
834.682	23760
834.821	23562
834.959	23870
835.097	23722
835.235	23619
835.373	23642
835.511	23764
835.65	23482
835.788	23543
835.926	23448
836.064	23318
836.202	23421
836.34	23497
836.478	23634
836.615	23467
836.753	23490
836.891	23661
837.029	23596
837.167	23520
837.305	23436
837.443	23425
837.58	23448
837.718	23474
837.856	23315
837.993	23471
838.131	23368
838.269	23170
838.406	23204
838.544	23242
838.681	23037
838.819	23064
838.956	23003
839.094	22881
839.231	22965
839.369	23090
839.506	23277
839.643	23193
839.781	22938
839.918	22786
840.055	22748
840.193	22831
840.33	22691
840.467	22889
840.604	22919
840.742	23090
840.879	22645
841.016	22752
841.153	22782
841.29	22889
841.427	22710
841.564	22736
841.701	22831
841.838	22790
841.975	22485
842.112	22744
842.249	22630
842.385	22516
842.522	22713
842.659	22588
842.796	22489
842.933	22546
843.069	22519
843.206	22599
843.343	22588
843.479	22424
843.616	22519
843.752	22367
843.889	22329
844.025	22512
844.162	22344
844.298	22474
844.435	22337
844.571	22295
844.708	22367
844.844	22489
844.98	22542
845.117	22470
845.253	22375
845.389	22173
845.525	22333
845.661	22082
845.798	22109
845.934	22150
846.07	22032
846.206	22025
846.342	22226
846.478	22044
846.614	21781
846.75	21831
846.886	21766
847.022	21915
847.158	21739
847.294	21781
847.429	21838
847.565	21713
847.701	21922
847.837	21500
847.972	21549
848.108	21701
848.244	21614
848.379	21435
848.515	21408
848.65	21294
848.786	21447
848.921	21401
849.057	21534
849.192	21485
849.328	21412
849.463	21313
849.598	21256
849.734	21249
849.869	21306
850.004	21146
850.14	21230
850.275	21169
850.41	21108
850.545	21081
850.68	21036
850.815	21176
850.95	21112
851.085	21268
851.22	21138
851.355	21306
851.49	21058
851.625	21112
851.76	21135
851.895	21066
852.03	21009
852.165	21169
852.299	21275
852.434	21173
852.569	21146
852.703	21207
852.838	21241
852.973	21207
853.107	21252
853.242	21093
853.376	21074
853.511	20910
853.645	20979
853.78	21062
853.914	21032
854.048	20933
854.183	21028
854.317	21058
854.451	21245
854.585	20990
854.72	21013
854.854	21039
854.988	20868
855.122	20994
855.256	20842
855.39	20967
855.524	20929
855.658	21024
855.792	20990
855.926	20952
856.06	20967
856.194	21047
856.327	20933
856.461	20918
856.595	21009
856.729	20933
856.862	21161
856.996	21017
857.13	21005
857.263	21085
857.397	21039
857.53	20948
857.664	20990
857.797	21077
857.931	21013
858.064	20994
858.197	21135
858.331	20963
858.464	20982
858.597	20883
858.731	20933
858.864	20990
858.997	20941
859.13	20998
859.263	21028
859.396	21135
859.529	20986
859.662	20933
859.795	20883
859.928	20994
860.061	21024
860.194	21127
860.327	21001
860.46	21024
860.592	21066
860.725	21096
860.858	21036
860.99	20956
861.123	20918
861.256	20948
861.388	20994
861.521	21690
861.653	20975
861.786	20788
861.918	20830
862.05	20804
862.183	20933
862.315	20842
862.447	20963
862.58	20868
862.712	20746
862.844	20667
862.976	20853
863.108	20811
863.24	21287
863.372	20579
863.504	20762
863.636	20598
863.768	20769
863.9	20663
864.032	20541
864.164	20670
864.296	20670
864.428	20830
864.559	20773
864.691	20762
864.823	20731
864.954	20689
865.086	20648
865.217	20667
865.349	20598
865.48	20564
865.612	20663
865.743	20689
865.875	20587
866.006	20560
866.137	20518
866.269	20522
866.4	20530
866.531	20499
866.662	20473
866.793	20575
866.924	20590
867.055	20526
867.186	20317
867.317	20495
867.448	20431
867.579	20450
867.71	20427
867.841	20457
867.972	20575
868.103	20442
868.233	20469
868.364	20552
868.495	20659
868.625	20667
868.756	20845
868.886	20765
869.017	20758
869.147	20853
869.278	20921
869.408	20811
869.539	20788
869.669	20872
869.799	20777
869.929	21001
870.06	20731
870.19	21055
870.32	21051
870.45	21157
870.58	21218
870.71	21214
870.84	21252
870.97	21123
871.1	21211
871.23	21230
871.36	21325
871.489	21241
871.619	21287
871.749	21431
871.879	21325
872.008	21393
872.138	21336
872.267	21348
872.397	21226
872.526	21131
872.656	21214
872.785	21214
872.915	21344
873.044	21568
873.173	21294
873.303	21469
873.432	21424
873.561	21500
873.69	21443
873.819	21488
873.948	21523
874.077	21374
874.206	21351
874.335	21389
874.464	21542
874.593	21481
874.722	21595
874.851	21625
874.979	21663
875.108	21682
875.237	21515
875.365	21515
875.494	21629
875.623	21667
875.751	21553
875.88	21690
876.008	21591
876.136	21785
876.265	22006
876.393	22051
876.521	22177
876.65	22002
876.778	21953
876.906	22025
877.034	21907
877.162	22097
877.29	21895
877.418	21975
877.546	22051
877.674	21918
877.802	21953
877.93	21968
878.058	21945
878.185	21846
878.313	21903
878.441	21964
878.568	21846
878.696	21861
878.824	21960
878.951	22036
879.079	22051
879.206	22226
879.333	22143
879.461	21975
879.588	21953
879.715	22086
879.842	22211
879.97	22006
880.097	21778
880.224	21751
880.351	21816
880.478	21766
880.605	21736
880.732	21717
880.859	22017
880.986	21755
881.112	21774
881.239	21572
881.366	21481
881.493	21485
881.619	21313
881.746	21386
881.872	21412
881.999	21336
882.125	21325
882.252	21351
882.378	21336
882.505	21412
882.631	21188
882.757	21104
882.883	21230
883.01	20994
883.136	21066
883.262	20998
883.388	20967
883.514	21104
883.64	21142
883.766	20971
883.892	20876
884.018	20880
884.143	20963
884.269	21165
884.395	20743
884.52	20705
884.646	20705
884.772	20697
884.897	20617
885.023	20788
885.148	20788
885.274	20914
885.399	20769
885.524	20689
885.65	20701
885.775	20769
885.9	20735
886.025	20731
886.15	20781
886.275	20617
886.4	20689
886.525	20754
886.65	20552
886.775	20670
886.9	20727
887.025	20830
887.149	20697
887.274	20594
887.399	20473
887.523	20537
887.648	20507
887.773	20256
887.897	20579
888.021	20590
888.146	20408
888.27	20415
888.395	20590
888.519	20511
888.643	20484
888.767	20564
888.891	20336
889.015	20298
889.139	20446
889.263	20233
889.387	20454
889.511	20503
889.635	20442
889.759	20218
889.883	20298
890.006	20271
890.13	20434
890.254	20164
890.377	20240
890.501	20016
890.624	20024
890.748	20050
890.871	19887
890.995	19784
891.118	19822
891.241	19894
891.364	19837
891.488	20031
891.611	19852
891.734	19845
891.857	19799
891.98	19997
892.103	19795
892.226	19928
892.349	19761
892.471	19632
892.594	19883
892.717	19776
892.839	19868
892.962	19784
893.085	19928
893.207	19860
893.33	19734
893.452	19746
893.575	19799
893.697	19765
893.819	19894
893.941	19944
894.064	19913
894.186	19780
894.308	19620
894.43	19830
894.552	19811
894.674	19925
894.796	19704
894.918	19780
895.04	19738
895.161	19871
895.283	19723
895.405	19605
895.526	19811
895.648	19833
895.769	19750
895.891	19909
896.012	19959
896.134	19875
896.255	19700
896.376	19700
896.498	19772
896.619	19731
896.74	19693
896.861	19868
896.982	20103
897.103	20267
897.224	20138
897.345	20065
897.466	19955
897.587	20043
897.708	20183
897.828	19989
897.949	19890
898.07	19746
898.19	19913
898.311	20031
898.431	19925
898.552	19997
898.672	20046
898.792	20001
898.913	20062
899.033	19947
899.153	19761
899.273	19655
899.393	19708
899.513	19890
899.633	19727
899.753	19791
899.873	19609
899.993	19708
900.113	19772
900.232	19734
900.352	19734
900.472	19601
900.591	19453
900.711	19521
900.83	19559
900.95	19670
901.069	19674
901.189	19460
901.308	19228
901.427	19091
901.546	19148
901.665	19137
901.784	19141
901.904	19000
902.023	18878
902.141	18719
902.26	18635
902.379	18741
902.498	18623
902.617	18551
902.735	18700
902.854	18570
902.973	18578
903.091	18372
903.21	18277
903.328	18228
903.446	18232
903.565	18053
903.683	18133
903.801	18030
903.919	18083
904.038	18083
904.156	17904
904.274	17973
904.392	17874
904.51	17832
904.627	17920
904.745	17878
904.863	18003
904.981	17676
905.098	17528
905.216	17512
905.334	17623
905.451	17665
905.569	17577
905.686	17668
905.803	17528
905.921	17406
906.038	17474
906.155	17353
906.272	17284
906.389	17235
906.506	17117
906.623	17121
906.74	17064
906.857	16961
906.974	17067
907.091	17178
907.208	17318
907.324	17147
907.441	17025
907.557	16850
907.674	16831
907.79	16744
907.907	16793
908.023	16869
908.139	16831
908.256	16763
908.372	16782
908.488	16683
908.604	16653
908.72	16466
908.836	16573
908.952	16550
909.068	16523
909.184	16740
909.3	16519
909.415	16554
909.531	16542
909.647	16318
909.762	16147
909.878	16287
909.993	16337
910.108	16185
910.224	16223
910.339	16272
910.454	16097
910.57	16116
910.685	16067
910.8	16348
910.915	16234
911.03	16090
911.145	15903
911.259	15892
911.374	15854
911.489	15865
911.604	15778
911.718	15576
911.833	15644
911.947	15606
912.062	15378
912.176	15481
912.291	15595
912.405	15564
912.519	15804
912.633	15736
912.748	15652
912.862	15610
912.976	15412
913.09	15336
913.204	15363
913.318	15344
913.431	15519
913.545	15599
913.659	15568
913.772	15389
913.886	15310
914	15222
914.113	15283
914.226	15408
914.34	15313
914.453	15154
914.566	15237
914.68	15184
914.793	15093
914.906	14952
915.019	14830
915.132	14800
915.245	14853
915.358	14895
915.47	14857
915.583	14944
915.696	14876
915.809	14918
915.921	15017
916.034	14830
916.146	14754
916.259	14632
916.371	14796
916.483	14674
916.595	14682
916.708	14617
916.82	14663
916.932	14583
917.044	14659
917.156	14545
917.268	14488
917.38	14492
917.491	14545
917.603	14537
917.715	14469
917.826	14522
917.938	14427
918.049	14370
918.161	14473
918.272	14533
918.384	14629
918.495	14461
918.606	14210
918.717	14145
918.828	14275
918.939	14324
919.05	14214
919.161	14248
919.272	14065
919.383	14126
919.494	14385
919.604	14446
919.715	14294
919.826	14138
919.936	14313
920.047	14278
920.157	14301
920.267	14282
920.378	14259
920.488	14275
920.598	14374
920.708	14454
920.818	14309
920.928	14434
921.038	14549
921.148	14358
921.258	14187
921.368	14092
921.477	13993
921.587	13951
921.697	13887
921.806	14020
921.916	13753
922.025	13655
922.134	13704
922.244	13521
922.353	13624
922.462	13647
922.571	13419
922.68	13312
922.789	13168
922.898	13354
923.007	13228
923.116	13228
923.224	13152
923.333	13217
923.442	13160
923.55	13103
923.659	13156
923.767	13259
923.876	13053
923.984	13152
924.092	12977
924.201	13088
924.309	12894
924.417	13061
924.525	12909
924.633	12985
924.741	13811
924.849	12798
924.956	12954
925.064	12681
925.172	12669
925.279	12745
925.387	12726
925.494	12646
925.602	12863
925.709	12707
925.816	12650
925.924	12700
926.031	12738
926.138	12604
926.245	12620
926.352	12563
926.459	12601
926.566	12783
926.673	12498
926.779	12528
926.886	12418
926.993	12308
927.099	12186
927.206	12258
927.312	12182
927.419	12235
927.525	12235
927.631	12251
927.737	12186
927.843	12019
927.95	12041
928.056	12133
928.162	12098
928.267	12182
928.373	12753
928.479	12194
928.585	12011
928.69	12026
928.796	12098
928.901	12003
929.007	11893
929.112	11961
929.218	12095
929.323	11866
929.428	11805
929.533	11912
929.638	11779
929.743	11813
929.848	11783
929.953	11771
930.058	11668
930.163	11493
930.267	11596
930.372	11634
930.477	11528
930.581	11707
930.685	11646
930.79	11421
930.894	11467
930.998	11395
931.103	11452
931.207	11140
931.311	11159
931.415	10957
931.519	10797
931.623	10805
