Data from test_V78500241_1759.txt Node
Date: Fri Mar 25 15:22:06 CST 2022
User: usil
Spectrometer: V785-0024
Trigger mode: 0
Integration Time (sec): 4.000000E-1
Scans to average: 1
Nonlinearity correction enabled: false
Boxcar width: 0
Storing dark spectrum: false
XAxis mode: Wavelengths
Number of Pixels in Spectrum: 1024
>>>>>Begin Spectral Data<<<<<
801.071	27861
801.214	27717
801.356	27641
801.499	27542
801.641	27359
801.783	27359
801.926	27427
802.068	27340
802.211	27336
802.353	27249
802.496	27157
802.638	27123
802.78	27066
802.923	26963
803.065	26902
803.208	26933
803.35	26986
803.492	27264
803.635	27241
803.777	27188
803.919	27233
804.061	27534
804.204	27348
804.346	27123
804.488	27085
804.63	27443
804.773	27131
804.915	27241
805.057	27386
805.199	27218
805.341	27332
805.483	27572
805.626	27367
805.768	27268
805.91	27283
806.052	27397
806.194	27431
806.336	27622
806.478	27382
806.62	27340
806.762	27393
806.904	27644
807.046	27831
807.188	27888
807.33	27724
807.472	27994
807.614	27751
807.756	27831
807.898	27774
808.04	27557
808.182	27633
808.324	27591
808.465	27682
808.607	27968
808.749	28051
808.891	28131
809.033	28143
809.174	28029
809.316	27975
809.458	27949
809.6	27911
809.741	28048
809.883	28078
810.025	28329
810.166	28242
810.308	28398
810.45	28272
810.591	28131
810.733	27975
810.875	27922
811.016	27911
811.158	27755
811.299	27975
811.441	28219
811.582	28306
811.724	28006
811.865	27979
812.007	27949
812.148	28082
812.29	28063
812.431	28124
812.573	28341
812.714	28607
812.855	28489
812.997	28645
813.138	28820
813.279	28607
813.421	28542
813.562	28367
813.703	28276
813.845	28253
813.986	28086
814.127	27884
814.268	27595
814.41	27873
814.551	27671
814.692	27762
814.833	27709
814.974	27610
815.115	27679
815.256	27641
815.397	27595
815.539	27488
815.68	27439
815.821	27378
815.962	27462
816.103	27625
816.244	27370
816.385	27233
816.526	27321
816.666	27142
816.807	26963
816.948	26963
817.089	27207
817.23	27066
817.371	27104
817.512	27077
817.653	26925
817.793	27009
817.934	27005
818.075	26982
818.216	27001
818.356	27100
818.497	26826
818.638	26826
818.778	26667
818.919	26731
819.06	26758
819.2	26971
819.341	26994
819.481	27112
819.622	27100
819.762	27382
819.903	27264
820.043	27180
820.184	27180
820.324	27173
820.465	27245
820.605	26979
820.746	27127
820.886	27005
821.026	27116
821.167	27070
821.307	27249
821.447	26956
821.588	27108
821.728	26807
821.868	26484
822.008	26381
822.149	26530
822.289	26617
822.429	26199
822.569	26058
822.709	26256
822.849	26008
822.99	26046
823.13	25898
823.27	26008
823.41	25837
823.55	25837
823.69	25818
823.83	25734
823.97	25791
824.11	25616
824.25	25582
824.389	25632
824.529	25871
824.669	25689
824.809	25742
824.949	25765
825.089	25696
825.228	25548
825.368	25540
825.508	25479
825.648	25514
825.787	25491
825.927	25479
826.067	25438
826.206	25597
826.346	25483
826.485	25575
826.625	25502
826.765	25582
826.904	25662
827.044	25198
827.183	25285
827.323	25217
827.462	25407
827.601	25228
827.741	25072
827.88	25160
828.02	25164
828.159	25247
828.298	25213
828.437	25175
828.577	25118
828.716	25225
828.855	25251
828.994	24951
829.134	24939
829.273	24996
829.412	25084
829.551	24867
829.69	24806
829.829	24943
829.968	25061
830.107	25080
830.246	24985
830.385	24764
830.524	25008
830.663	24734
830.802	24673
830.941	24464
831.08	24513
831.219	24719
831.357	24700
831.496	24837
831.635	24585
831.774	24498
831.913	24441
832.051	24376
832.19	24247
832.329	24300
832.467	24220
832.606	24304
832.744	24232
832.883	24155
833.022	24144
833.16	24273
833.299	24407
833.437	24243
833.576	24281
833.714	24205
833.852	24228
833.991	24399
834.129	24563
834.267	24380
834.406	24311
834.544	24323
834.682	24232
834.821	24243
834.959	24433
835.097	24133
835.235	24277
835.373	24418
835.511	24289
835.65	24315
835.788	24152
835.926	23980
836.064	23950
836.202	23923
836.34	24235
836.478	24186
836.615	24098
836.753	24224
836.891	24186
837.029	24235
837.167	24114
837.305	24011
837.443	24015
837.58	23912
837.718	24015
837.856	23977
837.993	23874
838.131	24045
838.269	23885
838.406	23748
838.544	23745
838.681	23684
838.819	23691
838.956	23486
839.094	23387
839.231	23596
839.369	23630
839.506	23802
839.643	23779
839.781	23459
839.918	23379
840.055	23463
840.193	23383
840.33	23387
840.467	23417
840.604	23398
840.742	23615
840.879	23140
841.016	23242
841.153	23273
841.29	23471
841.427	23273
841.564	23436
841.701	23345
841.838	23364
841.975	23239
842.112	23197
842.249	23231
842.385	23094
842.522	23334
842.659	23147
842.796	23159
842.933	23246
843.069	23132
843.206	23117
843.343	23296
843.479	23185
843.616	23121
843.752	22858
843.889	22923
844.025	23003
844.162	22915
844.298	22915
844.435	22896
844.571	22942
844.708	22965
844.844	23018
844.98	23124
845.117	22965
845.253	22767
845.389	22717
845.525	22904
845.661	22847
845.798	22653
845.934	22759
846.07	22615
846.206	22615
846.342	22831
846.478	22607
846.614	22421
846.75	22405
846.886	22424
847.022	22584
847.158	22424
847.294	22409
847.429	22451
847.565	22371
847.701	22577
847.837	22105
847.972	22044
848.108	22204
848.244	22181
848.379	22036
848.515	21960
848.65	21895
848.786	21937
848.921	22010
849.057	22150
849.192	21937
849.328	22006
849.463	21964
849.598	21895
849.734	21937
849.869	21819
850.004	21690
850.14	21812
850.275	21568
850.41	21603
850.545	21622
850.68	21698
850.815	21827
850.95	21770
851.085	21857
851.22	21865
851.355	21705
851.49	21705
851.625	21652
851.76	21720
851.895	21553
852.03	21599
852.165	21724
852.299	21759
852.434	21842
852.569	21808
852.703	21656
852.838	21724
852.973	21876
853.107	21983
853.242	21701
853.376	21599
853.511	21424
853.645	21473
853.78	21720
853.914	21610
854.048	21511
854.183	21561
854.317	21515
854.451	21713
854.585	21416
854.72	21557
854.854	21686
854.988	21549
855.122	21576
855.256	21367
855.39	21507
855.524	21576
855.658	21633
855.792	21663
855.926	21507
856.06	21591
856.194	21663
856.327	21530
856.461	21439
856.595	21610
856.729	21637
856.862	21720
856.996	21500
857.13	21538
857.263	21679
857.397	21720
857.53	21500
857.664	21648
857.797	21580
857.931	21564
858.064	21622
858.197	21652
858.331	21492
858.464	21587
858.597	21431
858.731	21424
858.864	21386
858.997	21378
859.13	21428
859.263	21549
859.396	21561
859.529	21458
859.662	21561
859.795	21553
859.928	21572
860.061	21797
860.194	21606
860.327	21633
860.46	21572
860.592	21660
860.725	21739
860.858	21629
860.99	21469
861.123	21564
861.256	21469
861.388	21523
861.521	22287
861.653	21416
861.786	21405
861.918	21393
862.05	21378
862.183	21397
862.315	21462
862.447	21633
862.58	21462
862.712	21214
862.844	21214
862.976	21325
863.108	21374
863.24	21724
863.372	21150
863.504	21214
863.636	21294
863.768	21298
863.9	21199
864.032	21233
864.164	21264
864.296	21222
864.428	21367
864.559	21241
864.691	21214
864.823	21203
864.954	21279
865.086	21218
865.217	21249
865.349	21150
865.48	21127
865.612	21089
865.743	21279
865.875	21165
866.006	20990
866.137	21180
866.269	21028
866.4	21070
866.531	21112
866.662	21020
866.793	21108
866.924	21119
867.055	21085
867.186	21127
867.317	21062
867.448	20998
867.579	20998
867.71	21070
867.841	20883
867.972	21214
868.103	21047
868.233	21135
868.364	21001
868.495	21119
868.625	21283
868.756	21481
868.886	21256
869.017	21207
869.147	21325
869.278	21389
869.408	21424
869.539	21275
869.669	21378
869.799	21367
869.929	21469
870.06	21340
870.19	21614
870.32	21507
870.45	21580
870.58	21724
870.71	21743
870.84	21743
870.97	21671
871.1	21797
871.23	21854
871.36	21861
871.489	21770
871.619	21960
871.749	21941
871.879	21964
872.008	22128
872.138	21941
872.267	21892
872.397	21675
872.526	21724
872.656	21804
872.785	21785
872.915	21934
873.044	21994
873.173	21972
873.303	21953
873.432	22032
873.561	21975
873.69	21979
873.819	21918
873.948	22036
874.077	21964
874.206	21880
874.335	21926
874.464	22139
874.593	22147
874.722	22112
874.851	22143
874.979	22093
875.108	22219
875.237	22124
875.365	21972
875.494	22101
875.623	22249
875.751	22070
875.88	22162
876.008	22211
876.136	22375
876.265	22573
876.393	22660
876.521	22637
876.65	22485
876.778	22481
876.906	22527
877.034	22497
877.162	22428
877.29	22421
877.418	22584
877.546	22580
877.674	22512
877.802	22565
877.93	22512
878.058	22508
878.185	22394
878.313	22356
878.441	22516
878.568	22459
878.696	22371
878.824	22622
878.951	22573
879.079	22634
879.206	22717
879.333	22809
879.461	22546
879.588	22618
879.715	22538
879.842	22702
879.97	22565
880.097	22234
880.224	22291
880.351	22481
880.478	22348
880.605	22261
880.732	22337
880.859	22580
880.986	22265
881.112	22303
881.239	22200
881.366	22112
881.493	22036
881.619	21739
881.746	21915
881.872	21949
881.999	21899
882.125	21869
882.252	21869
882.378	21876
882.505	22010
882.631	21804
882.757	21599
882.883	21675
883.01	21610
883.136	21595
883.262	21466
883.388	21454
883.514	21568
883.64	21660
883.766	21572
883.892	21408
884.018	21393
884.143	21549
884.269	21583
884.395	21321
884.52	21173
884.646	21260
884.772	21180
884.897	21195
885.023	21386
885.148	21245
885.274	21370
885.399	21302
885.524	21237
885.65	21298
885.775	21222
885.9	21165
886.025	21370
886.15	21313
886.275	21279
886.4	21062
886.525	21203
886.65	21017
886.775	21195
886.9	21264
887.025	21500
887.149	21135
887.274	21017
887.399	20956
887.523	21043
887.648	21020
887.773	20979
887.897	21150
888.021	21013
888.146	20956
888.27	21135
888.395	21135
888.519	21024
888.643	21127
888.767	21173
888.891	20914
889.015	20773
889.139	20963
889.263	20777
889.387	20883
889.511	20986
889.635	20960
889.759	20804
889.883	20769
890.006	20792
890.13	20948
890.254	20773
890.377	20644
890.501	20526
890.624	20469
890.748	20579
890.871	20389
890.995	20362
891.118	20347
891.241	20385
891.364	20298
891.488	20503
891.611	20358
891.734	20427
891.857	20461
891.98	20431
892.103	20362
892.226	20469
892.349	20355
892.471	19986
892.594	20237
892.717	20317
892.839	20233
892.962	20248
893.085	20408
893.207	20343
893.33	20218
893.452	20180
893.575	20267
893.697	20195
893.819	20484
893.941	20511
894.064	20244
894.186	20328
894.308	20225
894.43	20351
894.552	20362
894.674	20256
894.796	20100
894.918	20126
895.04	20221
895.161	20336
895.283	20229
895.405	20252
895.526	20180
895.648	20271
895.769	20240
895.891	20176
896.012	20389
896.134	20256
896.255	20282
896.376	20142
896.498	20248
896.619	20298
896.74	20168
896.861	20301
896.982	20514
897.103	20693
897.224	20446
897.345	20374
897.466	20351
897.587	20545
897.708	20575
897.828	20522
897.949	20358
898.07	20256
898.19	20370
898.311	20579
898.431	20507
898.552	20488
898.672	20533
898.792	20526
898.913	20454
899.033	20355
899.153	20351
899.273	20054
899.393	20240
899.513	20237
899.633	20195
899.753	20168
899.873	20111
899.993	20263
900.113	20199
900.232	20161
900.352	20142
900.472	20054
900.591	19871
900.711	20062
900.83	19936
900.95	20062
901.069	20096
901.189	19811
901.308	19799
901.427	19582
901.546	19544
901.665	19537
901.784	19514
901.904	19430
902.023	19274
902.141	19251
902.26	19053
902.379	19255
902.498	19152
902.617	18993
902.735	19072
902.854	19118
902.973	19027
903.091	18776
903.21	18673
903.328	18779
903.446	18532
903.565	18570
903.683	18555
903.801	18441
903.919	18498
904.038	18429
904.156	18361
904.274	18410
904.392	18243
904.51	18262
904.627	18273
904.745	18258
904.863	18388
904.981	18186
905.098	18083
905.216	18091
905.334	18003
905.451	18026
905.569	17969
905.686	18026
905.803	17950
905.921	17775
906.038	17908
906.155	17828
906.272	17726
906.389	17707
906.506	17611
906.623	17535
906.74	17573
906.857	17360
906.974	17478
907.091	17528
907.208	17695
907.324	17448
907.441	17452
907.557	17372
907.674	17258
907.79	17117
907.907	17197
908.023	17258
908.139	17345
908.256	17189
908.372	17090
908.488	17098
908.604	16923
908.72	16896
908.836	16946
908.952	16889
909.068	16934
909.184	17045
909.3	16961
909.415	17079
909.531	16908
909.647	16599
909.762	16725
909.878	16786
909.993	16767
910.108	16641
910.224	16668
910.339	16489
910.454	16580
910.57	16421
910.685	16398
910.8	16698
910.915	16615
911.03	16500
911.145	16238
911.259	16287
911.374	16287
911.489	16131
911.604	16105
911.718	16010
911.833	15987
911.947	16021
912.062	15850
912.176	15994
912.291	16017
912.405	15953
912.519	16090
912.633	16215
912.748	16048
912.862	15953
912.976	15907
913.09	15690
913.204	15739
913.318	15888
913.431	15903
913.545	15869
913.659	15937
913.772	15781
913.886	15637
914	15622
914.113	15713
914.226	15713
914.34	15641
914.453	15542
914.566	15713
914.68	15424
914.793	15519
914.906	15226
915.019	15275
915.132	15112
915.245	15294
915.358	15249
915.47	15291
915.583	15241
915.696	15199
915.809	15329
915.921	15298
916.034	15176
916.146	15036
916.259	15039
916.371	15294
916.483	15138
916.595	14982
916.708	15013
916.82	14967
916.932	14963
917.044	15142
917.156	14963
917.268	14883
917.38	14906
917.491	14800
917.603	14883
917.715	14895
917.826	14948
917.938	14762
918.049	14739
918.161	14819
918.272	14891
918.384	15043
918.495	14777
918.606	14659
918.717	14621
918.828	14727
918.939	14556
919.05	14598
919.161	14571
919.272	14480
919.383	14370
919.494	14674
919.604	14880
919.715	14617
919.826	14480
919.936	14629
920.047	14564
920.157	14613
920.267	14788
920.378	14533
920.488	14556
920.598	14705
920.708	14902
920.818	14788
920.928	14781
921.038	14819
921.148	14845
921.258	14522
921.368	14393
921.477	14305
921.587	14355
921.697	14168
921.806	14351
921.916	14142
922.025	13986
922.134	13883
922.244	14008
922.353	13959
922.462	13868
922.571	13780
922.68	13620
922.789	13639
922.898	13567
923.007	13533
923.116	13643
923.224	13544
923.333	13571
923.442	13411
923.55	13449
923.659	13419
923.767	13506
923.876	13396
923.984	13499
924.092	13251
924.201	13278
924.309	13285
924.417	13289
924.525	13236
924.633	13312
924.741	14027
924.849	13091
924.956	13270
925.064	13095
925.172	12837
925.279	12977
925.387	13031
925.494	13015
925.602	13152
925.709	13046
925.816	12867
925.924	13065
926.031	13034
926.138	12882
926.245	13023
926.352	12859
926.459	12970
926.566	13042
926.673	12878
926.779	12779
926.886	12776
926.993	12585
927.099	12597
927.206	12452
927.312	12486
927.419	12612
927.525	12544
927.631	12658
927.737	12372
927.843	12448
927.95	12311
928.056	12369
928.162	12479
928.267	12437
928.373	13034
928.479	12544
928.585	12201
928.69	12460
928.796	12350
928.901	12254
929.007	12148
929.112	12258
929.218	12232
929.323	12155
929.428	12068
929.533	12232
929.638	12026
929.743	12114
929.848	12106
929.953	12022
930.058	11984
930.163	11794
930.267	11813
930.372	11897
930.477	11779
930.581	11931
930.685	11783
930.79	11638
930.894	11745
930.998	11623
931.103	11699
931.207	11402
931.311	11349
931.415	11330
931.519	11064
931.623	11109
