Data from test_V78500241_1612.txt Node
Date: Fri Mar 25 15:21:04 CST 2022
User: usil
Spectrometer: V785-0024
Trigger mode: 0
Integration Time (sec): 4.000000E-1
Scans to average: 1
Nonlinearity correction enabled: false
Boxcar width: 0
Storing dark spectrum: false
XAxis mode: Wavelengths
Number of Pixels in Spectrum: 1024
>>>>>Begin Spectral Data<<<<<
801.071	27709
801.214	27625
801.356	27416
801.499	27264
801.641	27192
801.783	27256
801.926	27275
802.068	27230
802.211	27039
802.353	26998
802.496	26864
802.638	26982
802.78	26788
802.923	26849
803.065	26823
803.208	26845
803.35	26785
803.492	27001
803.635	27077
803.777	26868
803.919	26952
804.061	27336
804.204	27150
804.346	26883
804.488	27165
804.63	26971
804.773	27085
804.915	27108
805.057	27127
805.199	27085
805.341	27036
805.483	27100
805.626	27291
805.768	27024
805.91	27226
806.052	27169
806.194	27070
806.336	27287
806.478	27252
806.62	27207
806.762	27222
806.904	27332
807.046	27644
807.188	27507
807.33	27572
807.472	27557
807.614	27469
807.756	27542
807.898	27359
808.04	27606
808.182	27435
808.324	27572
808.465	27450
808.607	27675
808.749	27812
808.891	27701
809.033	28017
809.174	27892
809.316	27800
809.458	27804
809.6	27663
809.741	27816
809.883	27960
810.025	27941
810.166	27968
810.308	27972
810.45	28074
810.591	27884
810.733	27804
810.875	27778
811.016	27606
811.158	27660
811.299	27789
811.441	27804
811.582	27975
811.724	27766
811.865	27644
812.007	27739
812.148	27713
812.29	27679
812.431	28010
812.573	28185
812.714	28070
812.855	28265
812.997	28390
813.138	28447
813.279	28462
813.421	28409
813.562	28299
813.703	28131
813.845	27838
813.986	27812
814.127	27618
814.268	27435
814.41	27492
814.551	27481
814.692	27378
814.833	27458
814.974	27462
815.115	27458
815.256	27412
815.397	27336
815.539	27370
815.68	27199
815.821	27112
815.962	27382
816.103	27184
816.244	27096
816.385	27036
816.526	26994
816.666	26750
816.807	26758
816.948	26762
817.089	26754
817.23	26819
817.371	26701
817.512	26712
817.653	26697
817.793	26575
817.934	26575
818.075	26720
818.216	26682
818.356	26648
818.497	26602
818.638	26370
818.778	26511
818.919	26545
819.06	26473
819.2	26606
819.341	26613
819.481	26796
819.622	26868
819.762	27013
819.903	26998
820.043	26982
820.184	26697
820.324	26773
820.465	26944
820.605	26826
820.746	26845
820.886	26689
821.026	26739
821.167	26701
821.307	26887
821.447	26678
821.588	26518
821.728	26431
821.868	26412
822.008	26233
822.149	26153
822.289	26180
822.429	25947
822.569	25864
822.709	25898
822.849	25681
822.99	25704
823.13	25856
823.27	25750
823.41	25472
823.55	25434
823.69	25590
823.83	25510
823.97	25590
824.11	25320
824.25	25308
824.389	25312
824.529	25278
824.669	25209
824.809	25339
824.949	25411
825.089	25419
825.228	25285
825.368	25145
825.508	25168
825.648	25171
825.787	25133
825.927	25255
826.067	25217
826.206	25274
826.346	25206
826.485	25080
826.625	25053
826.765	25171
826.904	25187
827.044	25042
827.183	24943
827.323	24951
827.462	24973
827.601	24981
827.741	24890
827.88	24913
828.02	24848
828.159	24890
828.298	24760
828.437	25019
828.577	24802
828.716	25012
828.855	24871
828.994	24608
829.134	24456
829.273	24608
829.412	24635
829.551	24544
829.69	24582
829.829	24566
829.968	24707
830.107	24681
830.246	24612
830.385	24566
830.524	24448
830.663	24464
830.802	24304
830.941	24216
831.08	24361
831.219	24224
831.357	24334
831.496	24376
831.635	24209
831.774	24106
831.913	24171
832.051	24072
832.19	23969
832.329	24026
832.467	24064
832.606	23832
832.744	23916
832.883	23908
833.022	23802
833.16	23775
833.299	23824
833.437	23904
833.576	24011
833.714	23748
833.852	23961
833.991	23958
834.129	23965
834.267	24034
834.406	23954
834.544	24041
834.682	23920
834.821	23870
834.959	24136
835.097	23885
835.235	24026
835.373	23916
835.511	23961
835.65	23863
835.788	23821
835.926	23707
836.064	23589
836.202	23570
836.34	23805
836.478	23920
836.615	23729
836.753	23817
836.891	23737
837.029	23745
837.167	23718
837.305	23680
837.443	23531
837.58	23680
837.718	23737
837.856	23707
837.993	23619
838.131	23535
838.269	23360
838.406	23634
838.544	23501
838.681	23326
838.819	23109
838.956	23151
839.094	23151
839.231	23212
839.369	23269
839.506	23539
839.643	23181
839.781	23277
839.918	22972
840.055	23079
840.193	23102
840.33	23083
840.467	23044
840.604	23113
840.742	23318
840.879	22809
841.016	22915
841.153	22949
841.29	23064
841.427	23003
841.564	23060
841.701	22972
841.838	22927
841.975	22869
842.112	22892
842.249	22831
842.385	22778
842.522	22957
842.659	22820
842.796	22771
842.933	22801
843.069	22721
843.206	22683
843.343	22873
843.479	22782
843.616	22847
843.752	22622
843.889	22565
844.025	22687
844.162	22550
844.298	22694
844.435	22485
844.571	22523
844.708	22470
844.844	22592
844.98	22649
845.117	22584
845.253	22561
845.389	22428
845.525	22519
845.661	22348
845.798	22318
845.934	22291
846.07	22268
846.206	22303
846.342	22402
846.478	22226
846.614	22051
846.75	22124
846.886	22128
847.022	22086
847.158	22097
847.294	22086
847.429	22147
847.565	21968
847.701	22207
847.837	21797
847.972	21804
848.108	21774
848.244	21751
848.379	21603
848.515	21549
848.65	21629
848.786	21606
848.921	21614
849.057	21641
849.192	21717
849.328	21705
849.463	21633
849.598	21633
849.734	21538
849.869	21485
850.004	21389
850.14	21420
850.275	21321
850.41	21344
850.545	21431
850.68	21294
850.815	21389
850.95	21283
851.085	21561
851.22	21397
851.355	21367
851.49	21370
851.625	21534
851.76	21488
851.895	21173
852.03	21218
852.165	21268
852.299	21374
852.434	21370
852.569	21386
852.703	21443
852.838	21523
852.973	21519
853.107	21485
853.242	21283
853.376	21264
853.511	21100
853.645	21249
853.78	21294
853.914	21135
854.048	21104
854.183	21188
854.317	21313
854.451	21310
854.585	21062
854.72	21108
854.854	21192
854.988	21165
855.122	21195
855.256	21074
855.39	21070
855.524	21116
855.658	21195
855.792	21222
855.926	21192
856.06	21310
856.194	21233
856.327	21192
856.461	21157
856.595	21188
856.729	21302
856.862	21256
856.996	21108
857.13	21161
857.263	21256
857.397	21283
857.53	21039
857.664	21131
857.797	21332
857.931	21283
858.064	21142
858.197	21211
858.331	21252
858.464	21127
858.597	21066
858.731	21192
858.864	21077
858.997	21211
859.13	21180
859.263	21218
859.396	21279
859.529	21203
859.662	21123
859.795	21207
859.928	21169
860.061	21382
860.194	21420
860.327	21245
860.46	21157
860.592	21211
860.725	21363
860.858	21291
860.99	21142
861.123	21081
861.256	21081
861.388	21176
861.521	21873
861.653	21013
861.786	21017
861.918	21066
862.05	21036
862.183	21017
862.315	21096
862.447	21188
862.58	21173
862.712	20979
862.844	20880
862.976	21066
863.108	20998
863.24	21214
863.372	20785
863.504	20834
863.636	20982
863.768	20948
863.9	20880
864.032	20891
864.164	20921
864.296	20963
864.428	20967
864.559	20998
864.691	21077
864.823	20971
864.954	20967
865.086	20861
865.217	20785
865.349	20689
865.48	20792
865.612	20861
865.743	20914
865.875	20746
866.006	20765
866.137	20845
866.269	20819
866.4	20815
866.531	20792
866.662	20701
866.793	20773
866.924	20625
867.055	20743
867.186	20640
867.317	20735
867.448	20644
867.579	20640
867.71	20636
867.841	20583
867.972	20758
868.103	20659
868.233	20678
868.364	20674
868.495	20750
868.625	20975
868.756	21028
868.886	20952
869.017	21009
869.147	21024
869.278	21127
869.408	20925
869.539	20948
869.669	21184
869.799	21077
869.929	21009
870.06	21043
870.19	21291
870.32	21245
870.45	21188
870.58	21287
870.71	21458
870.84	21431
870.97	21458
871.1	21424
871.23	21599
871.36	21515
871.489	21515
871.619	21469
871.749	21564
871.879	21564
872.008	21690
872.138	21637
872.267	21549
872.397	21469
872.526	21393
872.656	21386
872.785	21439
872.915	21644
873.044	21622
873.173	21587
873.303	21698
873.432	21629
873.561	21648
873.69	21610
873.819	21515
873.948	21751
874.077	21660
874.206	21511
874.335	21564
874.464	21671
874.593	21823
874.722	21785
874.851	21911
874.979	21903
875.108	21915
875.237	21679
875.365	21743
875.494	21755
875.623	21884
875.751	21739
875.88	21865
876.008	21918
876.136	21983
876.265	22367
876.393	22371
876.521	22272
876.65	22421
876.778	22314
876.906	22169
877.034	22181
877.162	22169
877.29	22040
877.418	22139
877.546	22135
877.674	22124
877.802	22226
877.93	22101
878.058	22143
878.185	22017
878.313	22154
878.441	22116
878.568	21972
878.696	22013
878.824	22120
878.951	22257
879.079	22421
879.206	22367
879.333	22356
879.461	22207
879.588	22249
879.715	22379
879.842	22238
879.97	22185
880.097	22055
880.224	22002
880.351	22147
880.478	21934
880.605	21899
880.732	22055
880.859	22166
880.986	21987
881.112	21968
881.239	21842
881.366	21724
881.493	21682
881.619	21648
881.746	21644
881.872	21572
881.999	21443
882.125	21526
882.252	21545
882.378	21622
882.505	21686
882.631	21310
882.757	21348
882.883	21359
883.01	21218
883.136	21100
883.262	21184
883.388	21017
883.514	21233
883.64	21230
883.766	21165
883.892	21036
884.018	21104
884.143	21169
884.269	21268
884.395	21017
884.52	20891
884.646	20872
884.772	20765
884.897	20838
885.023	20975
885.148	20910
885.274	21093
885.399	21123
885.524	20796
885.65	20895
885.775	20895
885.9	20773
886.025	21013
886.15	20906
886.275	20773
886.4	20800
886.525	20830
886.65	20811
886.775	20876
886.9	20975
887.025	21047
887.149	20929
887.274	20621
887.399	20701
887.523	20686
887.648	20804
887.773	20621
887.897	20785
888.021	20773
888.146	20556
888.27	20705
888.395	20796
888.519	20743
888.643	20701
888.767	20697
888.891	20648
889.015	20507
889.139	20609
889.263	20476
889.387	20568
889.511	20689
889.635	20526
889.759	20454
889.883	20476
890.006	20393
890.13	20587
890.254	20465
890.377	20503
890.501	20282
890.624	20180
890.748	20248
890.871	20161
890.995	19963
891.118	20008
891.241	20027
891.364	20088
891.488	20161
891.611	19967
891.734	20084
891.857	20119
891.98	20126
892.103	20122
892.226	20103
892.349	19986
892.471	19772
892.594	19997
892.717	19989
892.839	20054
892.962	19967
893.085	19978
893.207	19993
893.33	19727
893.452	19860
893.575	19917
893.697	19909
893.819	20145
893.941	20183
894.064	20008
894.186	19917
894.308	19890
894.43	20107
894.552	20122
894.674	19963
894.796	19860
894.918	19875
895.04	19951
895.161	20058
895.283	19959
895.405	19898
895.526	19963
895.648	19826
895.769	19989
895.891	20008
896.012	20122
896.134	19967
896.255	19970
896.376	19841
896.498	19860
896.619	19932
896.74	19928
896.861	20107
896.982	20180
897.103	20381
897.224	20347
897.345	20138
897.466	20008
897.587	20252
897.708	20317
897.828	20278
897.949	20100
898.07	20020
898.19	20161
898.311	20267
898.431	20138
898.552	20062
898.672	20267
898.792	20244
898.913	20237
899.033	20008
899.153	19917
899.273	19807
899.393	19970
899.513	19974
899.633	20088
899.753	19841
899.873	19849
899.993	20012
900.113	19822
900.232	20005
900.352	19769
900.472	19780
900.591	19674
900.711	19723
900.83	19674
900.95	19803
901.069	19670
901.189	19689
901.308	19449
901.427	19251
901.546	19343
901.665	19293
901.784	19411
901.904	19202
902.023	19023
902.141	18897
902.26	18817
902.379	18951
902.498	18833
902.617	18806
902.735	18798
902.854	18897
902.973	18776
903.091	18429
903.21	18372
903.328	18395
903.446	18289
903.565	18319
903.683	18243
903.801	18228
903.919	18201
904.038	18220
904.156	18079
904.274	18194
904.392	18049
904.51	18129
904.627	17988
904.745	18087
904.863	18117
904.981	17859
905.098	17866
905.216	17726
905.334	17718
905.451	17707
905.569	17672
905.686	17695
905.803	17695
905.921	17478
906.038	17627
906.155	17524
906.272	17455
906.389	17322
906.506	17265
906.623	17303
906.74	17330
906.857	17067
906.974	17212
907.091	17341
907.208	17345
907.324	17212
907.441	17113
907.557	17003
907.674	17037
907.79	16949
907.907	16885
908.023	16991
908.139	16980
908.256	16961
908.372	16862
908.488	16866
908.604	16767
908.72	16672
908.836	16713
908.952	16694
909.068	16672
909.184	16771
909.3	16672
909.415	16721
909.531	16641
909.647	16398
909.762	16367
909.878	16443
909.993	16379
910.108	16356
910.224	16371
910.339	16432
910.454	16295
910.57	16154
910.685	16128
910.8	16398
910.915	16280
911.03	16200
911.145	16029
911.259	16010
911.374	15941
911.489	15983
911.604	15918
911.718	15774
911.833	15755
911.947	15622
912.062	15553
912.176	15743
912.291	15755
912.405	15675
912.519	15937
912.633	15892
912.748	15785
912.862	15759
912.976	15561
913.09	15435
913.204	15576
913.318	15523
913.431	15648
913.545	15637
913.659	15679
913.772	15496
913.886	15458
914	15424
914.113	15488
914.226	15431
914.34	15450
914.453	15340
914.566	15397
914.68	15138
914.793	15272
914.906	15020
915.019	14982
915.132	14857
915.245	14971
915.358	14944
915.47	15024
915.583	14918
915.696	15036
915.809	15089
915.921	15085
916.034	14956
916.146	14819
916.259	14819
916.371	14914
916.483	14914
916.595	14811
916.708	14773
916.82	14849
916.932	14785
917.044	14785
917.156	14613
917.268	14526
917.38	14621
917.491	14590
917.603	14674
917.715	14773
917.826	14644
917.938	14655
918.049	14526
918.161	14689
918.272	14705
918.384	14659
918.495	14583
918.606	14484
918.717	14370
918.828	14400
918.939	14492
919.05	14313
919.161	14431
919.272	14210
919.383	14168
919.494	14461
919.604	14575
919.715	14370
919.826	14324
919.936	14393
920.047	14476
920.157	14320
920.267	14514
920.378	14396
920.488	14377
920.598	14511
920.708	14564
920.818	14385
920.928	14511
921.038	14625
921.148	14503
921.258	14248
921.368	14271
921.477	14058
921.587	14077
921.697	14031
921.806	14164
921.916	13871
922.025	13795
922.134	13712
922.244	13723
922.353	13731
922.462	13674
922.571	13521
922.68	13434
922.789	13362
922.898	13487
923.007	13350
923.116	13327
923.224	13403
923.333	13335
923.442	13213
923.55	13187
923.659	13228
923.767	13263
923.876	13152
923.984	13228
924.092	13065
924.201	13107
924.309	13171
924.417	13145
924.525	13107
924.633	13053
924.741	14027
924.849	12856
924.956	13015
925.064	12875
925.172	12703
925.279	12810
925.387	12791
925.494	12814
925.602	12905
925.709	12844
925.816	12719
925.924	12741
926.031	12795
926.138	12776
926.245	12837
926.352	12673
926.459	12749
926.566	12852
926.673	12669
926.779	12658
926.886	12532
926.993	12399
927.099	12350
927.206	12289
927.312	12300
927.419	12437
927.525	12369
927.631	12384
927.737	12289
927.843	12205
927.95	12197
928.056	12175
928.162	12266
928.267	12273
928.373	12795
928.479	12209
928.585	11999
928.69	12152
928.796	12194
928.901	12045
929.007	11920
929.112	12057
929.218	11954
929.323	11969
929.428	11961
929.533	12007
929.638	11889
929.743	11847
929.848	11958
929.953	11847
930.058	11786
930.163	11695
930.267	11638
930.372	11756
930.477	11623
930.581	11813
930.685	11592
930.79	11406
930.894	11539
930.998	11482
931.103	11524
931.207	11216
931.311	11208
931.415	11155
931.519	10847
931.623	10957
