Data from test_V78500241_3127.txt Node
Date: Fri Mar 25 15:31:38 CST 2022
User: usil
Spectrometer: V785-0024
Trigger mode: 0
Integration Time (sec): 4.000000E-1
Scans to average: 1
Nonlinearity correction enabled: false
Boxcar width: 0
Storing dark spectrum: false
XAxis mode: Wavelengths
Number of Pixels in Spectrum: 1024
>>>>>Begin Spectral Data<<<<<
801.071	27138
801.214	27001
801.356	26834
801.499	26800
801.641	26583
801.783	26689
801.926	26636
802.068	26507
802.211	26560
802.353	26480
802.496	26256
802.638	26309
802.78	26336
802.923	26275
803.065	26263
803.208	26058
803.35	26149
803.492	26381
803.635	26370
803.777	26259
803.919	26453
804.061	26537
804.204	26374
804.346	26282
804.488	26263
804.63	26431
804.773	26195
804.915	26404
805.057	26526
805.199	26400
805.341	26362
805.483	26438
805.626	26381
805.768	26419
805.91	26366
806.052	26381
806.194	26381
806.336	26667
806.478	26389
806.62	26415
806.762	26427
806.904	26667
807.046	26956
807.188	26963
807.33	26899
807.472	26933
807.614	26811
807.756	26895
807.898	26674
808.04	26648
808.182	26644
808.324	26655
808.465	26697
808.607	26921
808.749	27074
808.891	27214
809.033	27283
809.174	27085
809.316	27058
809.458	27104
809.6	26971
809.741	27093
809.883	27184
810.025	27252
810.166	27367
810.308	27310
810.45	27207
810.591	27123
810.733	27077
810.875	26990
811.016	27009
811.158	26895
811.299	27283
811.441	27207
811.582	27233
811.724	27047
811.865	26990
812.007	26952
812.148	26933
812.29	26914
812.431	27367
812.573	27321
812.714	27336
812.855	27511
812.997	27667
813.138	27709
813.279	27561
813.421	27561
813.562	27447
813.703	27397
813.845	27378
813.986	26883
814.127	26845
814.268	26739
814.41	26663
814.551	26663
814.692	26804
814.833	26579
814.974	26514
815.115	26670
815.256	26587
815.397	26511
815.539	26526
815.68	26552
815.821	26488
815.962	26522
816.103	26450
816.244	26301
816.385	26248
816.526	26309
816.666	26088
816.807	25928
816.948	26058
817.089	26012
817.23	25940
817.371	25879
817.512	25936
817.653	25902
817.793	25784
817.934	25864
818.075	26065
818.216	26008
818.356	25955
818.497	25822
818.638	25616
818.778	25647
818.919	25715
819.06	25788
819.2	25803
819.341	25959
819.481	25989
819.622	26069
819.762	26313
819.903	26187
820.043	26119
820.184	25989
820.324	26054
820.465	26058
820.605	26062
820.746	26134
820.886	25700
821.026	26043
821.167	25944
821.307	26058
821.447	25894
821.588	25715
821.728	25746
821.868	25472
822.008	25396
822.149	25403
822.289	25468
822.429	25202
822.569	25103
822.709	25171
822.849	24932
822.99	24867
823.13	24901
823.27	24943
823.41	24753
823.55	24681
823.69	24719
823.83	24722
823.97	24650
824.11	24475
824.25	24582
824.389	24521
824.529	24551
824.669	24528
824.809	24681
824.949	24547
825.089	24578
825.228	24646
825.368	24429
825.508	24418
825.648	24475
825.787	24505
825.927	24486
826.067	24376
826.206	24323
826.346	24448
826.485	24445
826.625	24418
826.765	24486
826.904	24498
827.044	24262
827.183	24171
827.323	24167
827.462	24152
827.601	24190
827.741	24106
827.88	24068
828.02	24072
828.159	24136
828.298	24152
828.437	24079
828.577	23988
828.716	24277
828.855	24022
828.994	23775
829.134	23748
829.273	23840
829.412	23783
829.551	23760
829.69	23745
829.829	23843
829.968	23729
830.107	23828
830.246	23809
830.385	23726
830.524	23843
830.663	23596
830.802	23531
830.941	23497
831.08	23455
831.219	23455
831.357	23566
831.496	23630
831.635	23402
831.774	23379
831.913	23292
832.051	23166
832.19	23189
832.329	23231
832.467	23121
832.606	23083
832.744	23117
832.883	23143
833.022	23022
833.16	23147
833.299	23200
833.437	23204
833.576	23162
833.714	23071
833.852	23223
833.991	23250
834.129	23299
834.267	23181
834.406	23189
834.544	23223
834.682	23151
834.821	23147
834.959	23345
835.097	23071
835.235	23299
835.373	23193
835.511	23132
835.65	23041
835.788	22911
835.926	22774
836.064	22896
836.202	22824
836.34	23037
836.478	23136
836.615	23033
836.753	23098
836.891	23102
837.029	23022
837.167	22930
837.305	22877
837.443	22885
837.58	22835
837.718	22896
837.856	22873
837.993	22843
838.131	22995
838.269	22641
838.406	22858
838.544	22752
838.681	22554
838.819	22577
838.956	22276
839.094	22329
839.231	22284
839.369	22577
839.506	22664
839.643	22580
839.781	22367
839.918	22318
840.055	22356
840.193	22242
840.33	22226
840.467	22223
840.604	22413
840.742	22485
840.879	22143
841.016	22265
841.153	22101
841.29	22341
841.427	22162
841.564	22284
841.701	22440
841.838	22234
841.975	22120
842.112	22116
842.249	22177
842.385	22128
842.522	22344
842.659	22112
842.796	22029
842.933	22078
843.069	21998
843.206	22021
843.343	22090
843.479	22055
843.616	22181
843.752	21869
843.889	21907
844.025	21953
844.162	21865
844.298	21903
844.435	21903
844.571	21743
844.708	21903
844.844	22006
844.98	21926
845.117	21831
845.253	21812
845.389	21736
845.525	21629
845.661	21660
845.798	21572
845.934	21610
846.07	21504
846.206	21618
846.342	21530
846.478	21637
846.614	21401
846.75	21195
846.886	21283
847.022	21393
847.158	21351
847.294	21283
847.429	21401
847.565	21207
847.701	21542
847.837	20982
847.972	20963
848.108	21077
848.244	21062
848.379	20826
848.515	20842
848.65	20834
848.786	20819
848.921	20921
849.057	20994
849.192	21062
849.328	20979
849.463	20910
849.598	20857
849.734	20746
849.869	20807
850.004	20632
850.14	20705
850.275	20781
850.41	20579
850.545	20514
850.68	20693
850.815	20750
850.95	20716
851.085	20754
851.22	20765
851.355	20678
851.49	20613
851.625	20648
851.76	20606
851.895	20568
852.03	20560
852.165	20735
852.299	20564
852.434	20655
852.569	20682
852.703	20651
852.838	20724
852.973	20872
853.107	20777
853.242	20682
853.376	20541
853.511	20336
853.645	20488
853.78	20560
853.914	20518
854.048	20499
854.183	20423
854.317	20434
854.451	20701
854.585	20442
854.72	20503
854.854	20571
854.988	20492
855.122	20503
855.256	20309
855.39	20480
855.524	20564
855.658	20514
855.792	20522
855.926	20549
856.06	20514
856.194	20606
856.327	20473
856.461	20358
856.595	20427
856.729	20412
856.862	20541
856.996	20446
857.13	20564
857.263	20427
857.397	20530
857.53	20389
857.664	20480
857.797	20632
857.931	20522
858.064	20556
858.197	20609
858.331	20442
858.464	20469
858.597	20438
858.731	20473
858.864	20419
858.997	20431
859.13	20465
859.263	20545
859.396	20564
859.529	20473
859.662	20537
859.795	20412
859.928	20415
860.061	20651
860.194	20613
860.327	20568
860.46	20450
860.592	20629
860.725	20590
860.858	20598
860.99	20465
861.123	20495
861.256	20290
861.388	20461
861.521	20948
861.653	20370
861.786	20233
861.918	20324
862.05	20351
862.183	20438
862.315	20438
862.447	20454
862.58	20499
862.712	20214
862.844	20157
862.976	20225
863.108	20358
863.24	20590
863.372	20077
863.504	20172
863.636	20092
863.768	20275
863.9	20225
864.032	20161
864.164	20195
864.296	20218
864.428	20336
864.559	20282
864.691	20191
864.823	20362
864.954	20168
865.086	20240
865.217	20122
865.349	19959
865.48	20050
865.612	20084
865.743	20130
865.875	20161
866.006	20096
866.137	20130
866.269	20096
866.4	20024
866.531	19898
866.662	20043
866.793	20073
866.924	20081
867.055	20077
867.186	20065
867.317	20035
867.448	19898
867.579	20012
867.71	19894
867.841	19928
867.972	20039
868.103	20046
868.233	20077
868.364	20111
868.495	20115
868.625	20282
868.756	20389
868.886	20126
869.017	20282
869.147	20400
869.278	20298
869.408	20309
869.539	20351
869.669	20450
869.799	20275
869.929	20518
870.06	20389
870.19	20667
870.32	20579
870.45	20648
870.58	20621
870.71	20883
870.84	20705
870.97	20594
871.1	20682
871.23	20849
871.36	20899
871.489	20735
871.619	20830
871.749	20921
871.879	20918
872.008	21093
872.138	20769
872.267	20792
872.397	20724
872.526	20686
872.656	20731
872.785	20636
872.915	20887
873.044	21001
873.173	20891
873.303	20990
873.432	21051
873.561	20944
873.69	20986
873.819	20880
873.948	20967
874.077	20861
874.206	20876
874.335	20842
874.464	20842
874.593	21173
874.722	21032
874.851	21165
874.979	21203
875.108	21146
875.237	21077
875.365	21142
875.494	21131
875.623	21230
875.751	21123
875.88	21233
876.008	21302
876.136	21443
876.265	21545
876.393	21682
876.521	21561
876.65	21481
876.778	21595
876.906	21431
877.034	21561
877.162	21637
877.29	21530
877.418	21534
877.546	21625
877.674	21469
877.802	21511
877.93	21545
878.058	21477
878.185	21488
878.313	21534
878.441	21515
878.568	21298
878.696	21504
878.824	21652
878.951	21488
879.079	21652
879.206	21747
879.333	21538
879.461	21637
879.588	21614
879.715	21629
879.842	21827
879.97	21599
880.097	21389
880.224	21367
880.351	21317
880.478	21351
880.605	21332
880.732	21408
880.859	21576
880.986	21355
881.112	21313
881.239	21272
881.366	21104
881.493	21043
881.619	20963
881.746	21001
881.872	20986
881.999	20864
882.125	20819
882.252	20910
882.378	20842
882.505	21055
882.631	20944
882.757	20651
882.883	20629
883.01	20735
883.136	20655
883.262	20514
883.388	20571
883.514	20762
883.64	20712
883.766	20473
883.892	20454
884.018	20461
884.143	20621
884.269	20625
884.395	20278
884.52	20225
884.646	20362
884.772	20370
884.897	20191
885.023	20290
885.148	20400
885.274	20511
885.399	20317
885.524	20278
885.65	20286
885.775	20210
885.9	20301
886.025	20347
886.15	20286
886.275	20263
886.4	20263
886.525	20206
886.65	20077
886.775	20229
886.9	20256
887.025	20564
887.149	20298
887.274	20111
887.399	20081
887.523	20084
887.648	19955
887.773	19967
887.897	20229
888.021	20225
888.146	19982
888.27	20153
888.395	20122
888.519	20176
888.643	20103
888.767	20142
888.891	20012
889.015	19978
889.139	19890
889.263	19902
889.387	19887
889.511	20126
889.635	19906
889.759	19814
889.883	19887
890.006	19830
890.13	20081
890.254	19761
890.377	19830
890.501	19651
890.624	19685
890.748	19548
890.871	19544
890.995	19411
891.118	19308
891.241	19396
891.364	19430
891.488	19540
891.611	19369
891.734	19441
891.857	19514
891.98	19430
892.103	19453
892.226	19552
892.349	19339
892.471	19244
892.594	19422
892.717	19373
892.839	19350
892.962	19331
893.085	19400
893.207	19426
893.33	19362
893.452	19293
893.575	19468
893.697	19384
893.819	19556
893.941	19540
894.064	19594
894.186	19365
894.308	19152
894.43	19559
894.552	19529
894.674	19422
894.796	19255
894.918	19350
895.04	19407
895.161	19438
895.283	19483
895.405	19335
895.526	19392
895.648	19335
895.769	19327
895.891	19411
896.012	19388
896.134	19384
896.255	19308
896.376	19263
896.498	19358
896.619	19327
896.74	19434
896.861	19518
896.982	19814
897.103	19830
897.224	19609
897.345	19605
897.466	19491
897.587	19605
897.708	19681
897.828	19643
897.949	19616
898.07	19453
898.19	19563
898.311	19700
898.431	19460
898.552	19597
898.672	19750
898.792	19635
898.913	19658
899.033	19483
899.153	19415
899.273	19320
899.393	19365
899.513	19460
899.633	19396
899.753	19468
899.873	19350
899.993	19487
900.113	19278
900.232	19304
900.352	19301
900.472	19213
900.591	19217
900.711	19148
900.83	19012
900.95	19202
901.069	19236
901.189	19065
901.308	18909
901.427	18684
901.546	18768
901.665	18905
901.784	18719
901.904	18589
902.023	18555
902.141	18399
902.26	18334
902.379	18376
902.498	18300
902.617	18194
902.735	18365
902.854	18178
902.973	18167
903.091	17946
903.21	17824
903.328	17939
903.446	17901
903.565	17843
903.683	17767
903.801	17748
903.919	17741
904.038	17878
904.156	17532
904.274	17703
904.392	17604
904.51	17509
904.627	17471
904.745	17558
904.863	17543
904.981	17250
905.098	17254
905.216	17159
905.334	17204
905.451	17220
905.569	17181
905.686	17235
905.803	17307
905.921	16953
906.038	16968
906.155	16984
906.272	16831
906.389	16869
906.506	16828
906.623	16847
906.74	16835
906.857	16611
906.974	16713
907.091	16809
907.208	16904
907.324	16835
907.441	16653
907.557	16554
907.674	16466
907.79	16413
907.907	16478
908.023	16470
908.139	16523
908.256	16398
908.372	16405
908.488	16314
908.604	16265
908.72	16215
908.836	16215
908.952	16139
909.068	16299
909.184	16295
909.3	16173
909.415	16162
909.531	16257
909.647	15979
909.762	15880
909.878	15941
909.993	15922
910.108	15968
910.224	15819
910.339	15934
910.454	15846
910.57	15720
910.685	15671
910.8	16021
910.915	15846
911.03	15759
911.145	15504
911.259	15595
911.374	15580
911.489	15492
911.604	15325
911.718	15245
911.833	15317
911.947	15188
912.062	15180
912.176	15298
912.291	15325
912.405	15283
912.519	15477
912.633	15447
912.748	15291
912.862	15245
912.976	15047
913.09	14883
913.204	15085
913.318	15100
913.431	15173
913.545	15112
913.659	15241
913.772	15005
913.886	14906
914	14864
914.113	15047
914.226	14963
914.34	14986
914.453	14864
914.566	15001
914.68	14785
914.793	14834
914.906	14560
915.019	14571
915.132	14511
915.245	14560
915.358	14450
915.47	14511
915.583	14541
915.696	14560
915.809	14632
915.921	14689
916.034	14533
916.146	14396
916.259	14488
916.371	14568
916.483	14545
916.595	14454
916.708	14313
916.82	14427
916.932	14298
917.044	14278
917.156	14244
917.268	14157
917.38	14183
917.491	14183
917.603	14161
917.715	14358
917.826	14313
917.938	14233
918.049	14111
918.161	14164
918.272	14286
918.384	14172
918.495	14153
918.606	14073
918.717	13940
918.828	13978
918.939	14031
919.05	13917
919.161	13986
919.272	13742
919.383	13879
919.494	14100
919.604	14195
919.715	13955
919.826	13909
919.936	13932
920.047	13986
920.157	13894
920.267	14210
920.378	13967
920.488	13898
920.598	14065
920.708	14214
920.818	14069
920.928	14031
921.038	14256
921.148	14256
921.258	13925
921.368	13772
921.477	13689
921.587	13708
921.697	13605
921.806	13769
921.916	13582
922.025	13483
922.134	13331
922.244	13343
922.353	13460
922.462	13304
922.571	13206
922.68	13099
922.789	12886
922.898	12962
923.007	12943
923.116	13065
923.224	13008
923.333	12890
923.442	12882
923.55	12871
923.659	12825
923.767	12821
923.876	12833
923.984	12844
924.092	12696
924.201	12764
924.309	12844
924.417	12738
924.525	12700
924.633	12696
924.741	13609
924.849	12506
924.956	12616
925.064	12418
925.172	12395
925.279	12452
925.387	12486
925.494	12483
925.602	12608
925.709	12536
925.816	12308
925.924	12410
926.031	12544
926.138	12304
926.245	12521
926.352	12323
926.459	12460
926.566	12422
926.673	12323
926.779	12247
926.886	12304
926.993	12121
927.099	11988
927.206	12003
927.312	12026
927.419	12114
927.525	12011
927.631	12057
927.737	12022
927.843	11805
927.95	11729
928.056	11885
928.162	11920
928.267	11870
928.373	12532
928.479	11889
928.585	11619
928.69	11866
928.796	11885
928.901	11843
929.007	11596
929.112	11783
929.218	11733
929.323	11543
929.428	11611
929.533	11726
929.638	11516
929.743	11596
929.848	11589
929.953	11562
930.058	11463
930.163	11254
930.267	11349
930.372	11368
930.477	11273
930.581	11459
930.685	11345
930.79	11185
930.894	11170
930.998	11223
931.103	11246
931.207	10949
931.311	10919
931.415	10816
931.519	10588
931.623	10607
