Data from test_V78500241_2803.txt Node
Date: Fri Mar 25 15:29:22 CST 2022
User: usil
Spectrometer: V785-0024
Trigger mode: 0
Integration Time (sec): 4.000000E-1
Scans to average: 1
Nonlinearity correction enabled: false
Boxcar width: 0
Storing dark spectrum: false
XAxis mode: Wavelengths
Number of Pixels in Spectrum: 1024
>>>>>Begin Spectral Data<<<<<
801.071	27218
801.214	27260
801.356	26834
801.499	26998
801.641	26883
801.783	26887
801.926	26785
802.068	26876
802.211	26678
802.353	26541
802.496	26533
802.638	26362
802.78	26282
802.923	26290
803.065	26233
803.208	26229
803.35	26381
803.492	26552
803.635	26526
803.777	26404
803.919	26552
804.061	26762
804.204	26564
804.346	26434
804.488	26351
804.63	26511
804.773	26370
804.915	26530
805.057	26552
805.199	26400
805.341	26583
805.483	26686
805.626	26655
805.768	26617
805.91	26720
806.052	26606
806.194	26518
806.336	26788
806.478	26651
806.62	26670
806.762	26838
806.904	26872
807.046	26990
807.188	27127
807.33	27089
807.472	27184
807.614	27051
807.756	27077
807.898	26986
808.04	26758
808.182	26724
808.324	27028
808.465	27074
808.607	27154
808.749	27279
808.891	27218
809.033	27473
809.174	27313
809.316	27096
809.458	27302
809.6	27218
809.741	27283
809.883	27523
810.025	27443
810.166	27485
810.308	27595
810.45	27294
810.591	27355
810.733	27291
810.875	27348
811.016	27138
811.158	27279
811.299	27359
811.441	27374
811.582	27363
811.724	27283
811.865	27096
812.007	27199
812.148	27154
812.29	27230
812.431	27355
812.573	27564
812.714	27488
812.855	27629
812.997	27846
813.138	27968
813.279	27903
813.421	27869
813.562	27679
813.703	27504
813.845	27401
813.986	27176
814.127	26967
814.268	26933
814.41	26963
814.551	26910
814.692	26994
814.833	26842
814.974	26807
815.115	26914
815.256	26716
815.397	26796
815.539	26811
815.68	26708
815.821	26609
815.962	26739
816.103	26716
816.244	26541
816.385	26514
816.526	26347
816.666	26320
816.807	26206
816.948	26347
817.089	26081
817.23	26275
817.371	26164
817.512	26134
817.653	26168
817.793	25925
817.934	26111
818.075	26161
818.216	26092
818.356	26119
818.497	26043
818.638	25898
818.778	25925
818.919	25940
819.06	26027
819.2	26031
819.341	26168
819.481	26111
819.622	26168
819.762	26320
819.903	26469
820.043	26358
820.184	26465
820.324	26278
820.465	26263
820.605	26176
820.746	26256
820.886	26027
821.026	26206
821.167	26035
821.307	26332
821.447	26191
821.588	26172
821.728	25986
821.868	25788
822.008	25548
822.149	25594
822.289	25552
822.429	25358
822.569	25266
822.709	25244
822.849	25110
822.99	25198
823.13	25031
823.27	25023
823.41	24943
823.55	24871
823.69	24951
823.83	24928
823.97	24817
824.11	24688
824.25	24623
824.389	24871
824.529	24783
824.669	24719
824.809	24875
824.949	24821
825.089	24696
825.228	24677
825.368	24620
825.508	24631
825.648	24593
825.787	24601
825.927	24658
826.067	24540
826.206	24608
826.346	24551
826.485	24650
826.625	24692
826.765	24639
826.904	24593
827.044	24353
827.183	24357
827.323	24361
827.462	24346
827.601	24311
827.741	24346
827.88	24319
828.02	24209
828.159	24243
828.298	24372
828.437	24372
828.577	24216
828.716	24471
828.855	24098
828.994	24053
829.134	24057
829.273	24034
829.412	23870
829.551	23999
829.69	23992
829.829	23980
829.968	24114
830.107	24114
830.246	23946
830.385	23946
830.524	23824
830.663	23817
830.802	23691
830.941	23710
831.08	23592
831.219	23676
831.357	23600
831.496	23824
831.635	23649
831.774	23554
831.913	23520
832.051	23387
832.19	23395
832.329	23296
832.467	23326
832.606	23273
832.744	23330
832.883	23330
833.022	23284
833.16	23368
833.299	23410
833.437	23258
833.576	23246
833.714	23341
833.852	23337
833.991	23277
834.129	23444
834.267	23467
834.406	23425
834.544	23258
834.682	23254
834.821	23398
834.959	23524
835.097	23227
835.235	23360
835.373	23254
835.511	23261
835.65	23311
835.788	23227
835.926	23083
836.064	22953
836.202	22930
836.34	23208
836.478	23189
836.615	23041
836.753	23124
836.891	23455
837.029	23162
837.167	23147
837.305	23113
837.443	22984
837.58	23037
837.718	23014
837.856	22991
837.993	22965
838.131	23044
838.269	22911
838.406	22816
838.544	22778
838.681	22763
838.819	22672
838.956	22394
839.094	22542
839.231	22599
839.369	22839
839.506	23010
839.643	22873
839.781	22523
839.918	22615
840.055	22504
840.193	22557
840.33	22455
840.467	22421
840.604	22432
840.742	22721
840.879	22424
841.016	22421
841.153	22375
841.29	22451
841.427	22440
841.564	22379
841.701	22577
841.838	22497
841.975	22310
842.112	22451
842.249	22310
842.385	22303
842.522	22413
842.659	22341
842.796	22276
842.933	22162
843.069	22070
843.206	22116
843.343	22238
843.479	22162
843.616	22116
843.752	22021
843.889	21873
844.025	22192
844.162	21884
844.298	21956
844.435	22109
844.571	21804
844.708	21949
844.844	22295
844.98	22067
845.117	22059
845.253	21873
845.389	21892
845.525	21827
845.661	21732
845.798	21778
845.934	21770
846.07	21625
846.206	21732
846.342	21876
846.478	21720
846.614	21500
846.75	21492
846.886	21393
847.022	21534
847.158	21534
847.294	21435
847.429	21526
847.565	21519
847.701	21656
847.837	21199
847.972	21104
848.108	21287
848.244	21108
848.379	21047
848.515	21020
848.65	20998
848.786	21062
848.921	21074
849.057	21020
849.192	21104
849.328	21070
849.463	21169
849.598	21096
849.734	21020
849.869	20895
850.004	20792
850.14	20834
850.275	20754
850.41	20815
850.545	20659
850.68	20788
850.815	20762
850.95	20785
851.085	21032
851.22	21051
851.355	20823
851.49	20785
851.625	20800
851.76	20765
851.895	20663
852.03	20731
852.165	20788
852.299	20906
852.434	20838
852.569	20746
852.703	20883
852.838	20960
852.973	20861
853.107	20895
853.242	20781
853.376	20594
853.511	20590
853.645	20571
853.78	20819
853.914	20667
854.048	20632
854.183	20545
854.317	20686
854.451	20746
854.585	20587
854.72	20560
854.854	20727
854.988	20541
855.122	20781
855.256	20549
855.39	20533
855.524	20735
855.658	20769
855.792	20659
855.926	20701
856.06	20632
856.194	20674
856.327	20575
856.461	20530
856.595	20518
856.729	20651
856.862	20701
856.996	20667
857.13	20750
857.263	20735
857.397	20842
857.53	20560
857.664	20708
857.797	20701
857.931	20701
858.064	20625
858.197	20807
858.331	20644
858.464	20663
858.597	20469
858.731	20636
858.864	20602
858.997	20674
859.13	20625
859.263	20659
859.396	20632
859.529	20598
859.662	20682
859.795	20492
859.928	20655
860.061	20838
860.194	20731
860.327	20648
860.46	20693
860.592	20743
860.725	20781
860.858	20724
860.99	20724
861.123	20533
861.256	20560
861.388	20693
861.521	21195
861.653	20560
861.786	20408
861.918	20408
862.05	20609
862.183	20552
862.315	20621
862.447	20629
862.58	20404
862.712	20404
862.844	20256
862.976	20526
863.108	20457
863.24	20872
863.372	20339
863.504	20404
863.636	20332
863.768	20419
863.9	20412
864.032	20377
864.164	20275
864.296	20400
864.428	20408
864.559	20381
864.691	20484
864.823	20343
864.954	20339
865.086	20370
865.217	20244
865.349	20271
865.48	20164
865.612	20259
865.743	20278
865.875	20275
866.006	20267
866.137	20256
866.269	20248
866.4	20240
866.531	20187
866.662	20199
866.793	20328
866.924	20172
867.055	20161
867.186	20202
867.317	20088
867.448	20092
867.579	20153
867.71	20031
867.841	20214
867.972	20267
868.103	20103
868.233	20168
868.364	20278
868.495	20286
868.625	20480
868.756	20590
868.886	20381
869.017	20358
869.147	20476
869.278	20575
869.408	20511
869.539	20602
869.669	20526
869.799	20457
869.929	20541
870.06	20476
870.19	20754
870.32	20750
870.45	20659
870.58	20826
870.71	20967
870.84	20967
870.97	20724
871.1	20731
871.23	20876
871.36	21024
871.489	20899
871.619	21032
871.749	21070
871.879	21074
872.008	21135
872.138	21157
872.267	21146
872.397	20925
872.526	20762
872.656	20868
872.785	20838
872.915	21108
873.044	21104
873.173	21036
873.303	21077
873.432	21051
873.561	21146
873.69	21135
873.819	21032
873.948	21131
874.077	21165
874.206	21074
874.335	21077
874.464	21226
874.593	21279
874.722	21283
874.851	21298
874.979	21222
875.108	21222
875.237	21199
875.365	21157
875.494	21241
875.623	21397
875.751	21260
875.88	21374
876.008	21496
876.136	21553
876.265	21667
876.393	21888
876.521	21705
876.65	21739
876.778	21690
876.906	21534
877.034	21603
877.162	21629
877.29	21603
877.418	21637
877.546	21701
877.674	21629
877.802	21629
877.93	21736
878.058	21610
878.185	21485
878.313	21561
878.441	21698
878.568	21526
878.696	21701
878.824	21652
878.951	21846
879.079	21709
879.206	21922
879.333	21854
879.461	21713
879.588	21728
879.715	21804
879.842	21903
879.97	21785
880.097	21500
880.224	21397
880.351	21496
880.478	21450
880.605	21416
880.732	21386
880.859	21652
880.986	21473
881.112	21530
881.239	21340
881.366	21161
881.493	21154
881.619	21165
881.746	21062
881.872	20979
881.999	21062
882.125	21058
882.252	21173
882.378	20982
882.505	21119
882.631	20887
882.757	20788
882.883	20933
883.01	20834
883.136	20727
883.262	20655
883.388	20518
883.514	20750
883.64	20708
883.766	20621
883.892	20541
884.018	20625
884.143	20746
884.269	20853
884.395	20480
884.52	20454
884.646	20442
884.772	20301
884.897	20271
885.023	20408
885.148	20488
885.274	20583
885.399	20434
885.524	20454
885.65	20351
885.775	20465
885.9	20374
886.025	20408
886.15	20579
886.275	20374
886.4	20282
886.525	20412
886.65	20351
886.775	20263
886.9	20404
887.025	20579
887.149	20317
887.274	20161
887.399	20252
887.523	20237
887.648	20062
887.773	20084
887.897	20168
888.021	20229
888.146	20134
888.27	20248
888.395	20256
888.519	20214
888.643	20145
888.767	20183
888.891	20062
889.015	20008
889.139	20069
889.263	20027
889.387	20046
889.511	20229
889.635	20069
889.759	19944
889.883	19944
890.006	20069
890.13	20005
890.254	19906
890.377	19947
890.501	19700
890.624	19776
890.748	19811
890.871	19658
890.995	19518
891.118	19521
891.241	19502
891.364	19438
891.488	19670
891.611	19548
891.734	19472
891.857	19594
891.98	19662
892.103	19635
892.226	19548
892.349	19597
892.471	19426
892.594	19552
892.717	19518
892.839	19506
892.962	19415
893.085	19582
893.207	19510
893.33	19354
893.452	19358
893.575	19499
893.697	19586
893.819	19533
893.941	19750
894.064	19578
894.186	19480
894.308	19499
894.43	19571
894.552	19597
894.674	19544
894.796	19453
894.918	19476
895.04	19441
895.161	19460
895.283	19590
895.405	19460
895.526	19529
895.648	19339
895.769	19525
895.891	19548
896.012	19468
896.134	19635
896.255	19582
896.376	19438
896.498	19575
896.619	19491
896.74	19438
896.861	19468
896.982	19860
897.103	19978
897.224	19715
897.345	19833
897.466	19700
897.587	19685
897.708	19963
897.828	19776
897.949	19700
898.07	19571
898.19	19719
898.311	19845
898.431	19658
898.552	19696
898.672	19742
898.792	19849
898.913	19776
899.033	19666
899.153	19552
899.273	19350
899.393	19472
899.513	19594
899.633	19453
899.753	19502
899.873	19537
899.993	19544
900.113	19434
900.232	19453
900.352	19396
900.472	19312
900.591	19285
900.711	19282
900.83	19244
900.95	19506
901.069	19324
901.189	19209
901.308	18973
901.427	18973
901.546	18882
901.665	18947
901.784	18810
901.904	18817
902.023	18681
902.141	18342
902.26	18471
902.379	18490
902.498	18323
902.617	18403
902.735	18372
902.854	18399
902.973	18395
903.091	18159
903.21	18057
903.328	18057
903.446	17961
903.565	17961
903.683	17897
903.801	17863
903.919	17855
904.038	17707
904.156	17710
904.274	17718
904.392	17570
904.51	17577
904.627	17687
904.745	17684
904.863	17699
904.981	17459
905.098	17341
905.216	17429
905.334	17436
905.451	17341
905.569	17372
905.686	17315
905.803	17318
905.921	17155
906.038	17189
906.155	17075
906.272	17006
906.389	16984
906.506	16869
906.623	16885
906.74	16877
906.857	16740
906.974	16790
907.091	16839
907.208	16889
907.324	16843
907.441	16881
907.557	16622
907.674	16577
907.79	16466
907.907	16554
908.023	16592
908.139	16596
908.256	16459
908.372	16409
908.488	16371
908.604	16394
908.72	16261
908.836	16303
908.952	16177
909.068	16314
909.184	16478
909.3	16325
909.415	16306
909.531	16287
909.647	16093
909.762	16021
909.878	15941
909.993	16097
910.108	15979
910.224	16040
910.339	16051
910.454	15804
910.57	15895
910.685	15705
910.8	16116
910.915	15979
911.03	15812
911.145	15682
911.259	15652
911.374	15564
911.489	15610
911.604	15500
911.718	15504
911.833	15481
911.947	15424
912.062	15252
912.176	15393
912.291	15447
912.405	15412
912.519	15625
912.633	15584
912.748	15389
912.862	15420
912.976	15252
913.09	15150
913.204	15180
913.318	15203
913.431	15310
913.545	15184
913.659	15359
913.772	15184
913.886	14857
914	14986
914.113	15009
914.226	15142
914.34	14975
914.453	14849
914.566	14998
914.68	14887
914.793	14895
914.906	14758
915.019	14632
915.132	14575
915.245	14708
915.358	14705
915.47	14617
915.583	14678
915.696	14549
915.809	14773
915.921	14632
916.034	14617
916.146	14484
916.259	14492
916.371	14606
916.483	14606
916.595	14522
916.708	14473
916.82	14454
916.932	14404
917.044	14480
917.156	14442
917.268	14298
917.38	14317
917.491	14347
917.603	14328
917.715	14465
917.826	14374
917.938	14278
918.049	14107
918.161	14278
918.272	14404
918.384	14290
918.495	14202
918.606	14100
918.717	14088
918.828	14145
918.939	14134
919.05	14050
919.161	14039
919.272	13887
919.383	13883
919.494	14001
919.604	14244
919.715	14123
919.826	13963
919.936	14005
920.047	14161
920.157	13986
920.267	14244
920.378	14077
920.488	14008
920.598	14195
920.708	14305
920.818	14195
920.928	14168
921.038	14313
921.148	14351
921.258	14046
921.368	13967
921.477	13860
921.587	13883
921.697	13628
921.806	13849
921.916	13624
922.025	13506
922.134	13422
922.244	13468
922.353	13495
922.462	13346
922.571	13206
922.68	13061
922.789	13118
922.898	13091
923.007	13072
923.116	13164
923.224	13050
923.333	13065
923.442	12989
923.55	12894
923.659	12867
923.767	12985
923.876	12894
923.984	12928
924.092	12817
924.201	12783
924.309	12882
924.417	12852
924.525	12768
924.633	12798
924.741	13575
924.849	12585
924.956	12684
925.064	12540
925.172	12555
925.279	12475
925.387	12589
925.494	12551
925.602	12677
925.709	12555
925.816	12460
925.924	12483
926.031	12578
926.138	12509
926.245	12448
926.352	12467
926.459	12517
926.566	12547
926.673	12471
926.779	12266
926.886	12327
926.993	12159
927.099	12049
927.206	12049
927.312	12053
927.419	12091
927.525	12144
927.631	12148
927.737	11958
927.843	11916
927.95	11817
928.056	11965
928.162	12030
928.267	11973
928.373	12544
928.479	11996
928.585	11809
928.69	11916
928.796	11973
928.901	11847
929.007	11668
929.112	11767
929.218	11843
929.323	11642
929.428	11695
929.533	11775
929.638	11638
929.743	11668
929.848	11718
929.953	11600
930.058	11528
930.163	11376
930.267	11414
930.372	11543
930.477	11341
930.581	11623
930.685	11455
930.79	11280
930.894	11296
930.998	11280
931.103	11433
931.207	11094
931.311	11048
931.415	10930
931.519	10675
931.623	10717
