Data from test_V78500241_1095.txt Node
Date: Fri Mar 25 15:17:28 CST 2022
User: usil
Spectrometer: V785-0024
Trigger mode: 0
Integration Time (sec): 4.000000E-1
Scans to average: 1
Nonlinearity correction enabled: false
Boxcar width: 0
Storing dark spectrum: false
XAxis mode: Wavelengths
Number of Pixels in Spectrum: 1024
>>>>>Begin Spectral Data<<<<<
801.071	28500
801.214	28542
801.356	28154
801.499	27998
801.641	27926
801.783	28017
801.926	28055
802.068	28036
802.211	27949
802.353	27854
802.496	27835
802.638	27709
802.78	27789
802.923	27660
803.065	27679
803.208	27671
803.35	27698
803.492	27751
803.635	27781
803.777	27857
803.919	27865
804.061	28112
804.204	27983
804.346	27804
804.488	27835
804.63	27865
804.773	27797
804.915	27949
805.057	28116
805.199	27926
805.341	27945
805.483	28078
805.626	28166
805.768	27850
805.91	28101
806.052	28010
806.194	27987
806.336	28169
806.478	28059
806.62	28032
806.762	28139
806.904	28428
807.046	28573
807.188	28394
807.33	28413
807.472	28504
807.614	28432
807.756	28527
807.898	28493
808.04	28299
808.182	28185
808.324	28287
808.465	28390
808.607	28554
808.749	28710
808.891	28736
809.033	28873
809.174	28694
809.316	28816
809.458	28744
809.6	28653
809.741	28820
809.883	28763
810.025	28965
810.166	29018
810.308	28927
810.45	28888
810.591	28972
810.733	28763
810.875	28763
811.016	28649
811.158	28531
811.299	28790
811.441	28915
811.582	28854
811.724	28771
811.865	28656
812.007	28691
812.148	28653
812.29	28797
812.431	28991
812.573	29006
812.714	29132
812.855	29330
812.997	29292
813.138	29459
813.279	29421
813.421	29315
813.562	29273
813.703	29041
813.845	28995
813.986	28904
814.127	28550
814.268	28447
814.41	28451
814.551	28318
814.692	28516
814.833	28394
814.974	28394
815.115	28325
815.256	28234
815.397	28318
815.539	28337
815.68	28230
815.821	28185
815.962	28112
816.103	28306
816.244	28074
816.385	28093
816.526	28124
816.666	27926
816.807	27679
816.948	27785
817.089	27869
817.23	27800
817.371	27785
817.512	27865
817.653	27717
817.793	27808
817.934	27709
818.075	27850
818.216	27778
818.356	27819
818.497	27701
818.638	27310
818.778	27583
818.919	27530
819.06	27481
819.2	27743
819.341	27728
819.481	27804
819.622	27850
819.762	28116
819.903	28036
820.043	27998
820.184	27789
820.324	27945
820.465	27918
820.605	27880
820.746	27808
820.886	27675
821.026	27941
821.167	27907
821.307	27994
821.447	27789
821.588	27751
821.728	27469
821.868	27473
822.008	27272
822.149	27249
822.289	27157
822.429	26975
822.569	27005
822.709	26857
822.849	26697
822.99	26765
823.13	26735
823.27	26697
823.41	26579
823.55	26480
823.69	26560
823.83	26716
823.97	26469
824.11	26366
824.25	26362
824.389	26488
824.529	26533
824.669	26431
824.809	26693
824.949	26670
825.089	26564
825.228	26450
825.368	26271
825.508	26336
825.648	26225
825.787	26294
825.927	26351
826.067	26351
826.206	26309
826.346	26347
826.485	26313
826.625	26210
826.765	26518
826.904	26229
827.044	26050
827.183	26130
827.323	26084
827.462	26157
827.601	26126
827.741	25947
827.88	26172
828.02	25902
828.159	25970
828.298	26149
828.437	26092
828.577	26001
828.716	25978
828.855	25833
828.994	25708
829.134	25700
829.273	25852
829.412	25822
829.551	25753
829.69	25830
829.829	25651
829.968	25803
830.107	25700
830.246	25811
830.385	25624
830.524	25677
830.663	25563
830.802	25453
830.941	25339
831.08	25350
831.219	25499
831.357	25407
831.496	25609
831.635	25396
831.774	25270
831.913	25274
832.051	25202
832.19	25126
832.329	25057
832.467	25072
832.606	25069
832.744	24989
832.883	25042
833.022	25023
833.16	24951
833.299	25076
833.437	24954
833.576	25183
833.714	25099
833.852	25088
833.991	25160
834.129	25190
834.267	25133
834.406	25053
834.544	25194
834.682	25198
834.821	25126
834.959	25126
835.097	25008
835.235	25095
835.373	25137
835.511	25038
835.65	24954
835.788	24943
835.926	24856
836.064	24829
836.202	24817
836.34	24848
836.478	25008
836.615	24795
836.753	24840
836.891	25012
837.029	25000
837.167	25008
837.305	24795
837.443	24856
837.58	24821
837.718	24787
837.856	24837
837.993	24681
838.131	24719
838.269	24528
838.406	24585
838.544	24540
838.681	24456
838.819	24380
838.956	24228
839.094	24258
839.231	24399
839.369	24418
839.506	24616
839.643	24551
839.781	24239
839.918	24178
840.055	24315
840.193	24129
840.33	24106
840.467	24174
840.604	24315
840.742	24372
840.879	23969
841.016	23904
841.153	24087
841.29	24273
841.427	24205
841.564	24121
841.701	24125
841.838	24213
841.975	24076
842.112	24053
842.249	23821
842.385	23798
842.522	24045
842.659	24011
842.796	23897
842.933	23897
843.069	23961
843.206	23908
843.343	24072
843.479	23912
843.616	23912
843.752	23653
843.889	23737
844.025	23771
844.162	23619
844.298	23699
844.435	23771
844.571	23600
844.708	23676
844.844	23828
844.98	23817
845.117	23889
845.253	23604
845.389	23486
845.525	23691
845.661	23436
845.798	23421
845.934	23531
846.07	23440
846.206	23414
846.342	23452
846.478	23376
846.614	23113
846.75	23117
846.886	23124
847.022	23143
847.158	23189
847.294	23197
847.429	23166
847.565	23166
847.701	23292
847.837	22877
847.972	22850
848.108	23067
848.244	22904
848.379	22763
848.515	22771
848.65	22812
848.786	22691
848.921	22641
849.057	22828
849.192	22816
849.328	22824
849.463	22767
849.598	22668
849.734	22664
849.869	22580
850.004	22470
850.14	22504
850.275	22588
850.41	22409
850.545	22417
850.68	22481
850.815	22535
850.95	22470
851.085	22748
851.22	22675
851.355	22565
851.49	22508
851.625	22432
851.76	22417
851.895	22360
852.03	22379
852.165	22398
852.299	22615
852.434	22672
852.569	22634
852.703	22451
852.838	22531
852.973	22527
853.107	22675
853.242	22459
853.376	22375
853.511	22272
853.645	22310
853.78	22379
853.914	22284
854.048	22337
854.183	22276
854.317	22375
854.451	22565
854.585	22371
854.72	22169
854.854	22413
854.988	22272
855.122	22386
855.256	22348
855.39	22166
855.524	22405
855.658	22394
855.792	22333
855.926	22291
856.06	22455
856.194	22379
856.327	22272
856.461	22116
856.595	22261
856.729	22295
856.862	22455
856.996	22329
857.13	22386
857.263	22443
857.397	22443
857.53	22344
857.664	22405
857.797	22447
857.931	22466
858.064	22371
858.197	22402
858.331	22200
858.464	22276
858.597	22215
858.731	22474
858.864	22215
858.997	22200
859.13	22287
859.263	22234
859.396	22367
859.529	22371
859.662	22238
859.795	22329
859.928	22185
860.061	22504
860.194	22367
860.327	22386
860.46	22318
860.592	22481
860.725	22504
860.858	22538
860.99	22390
861.123	22185
861.256	22154
861.388	22257
861.521	22968
861.653	22204
861.786	22109
861.918	22166
862.05	22131
862.183	22276
862.315	22204
862.447	22390
862.58	22181
862.712	22002
862.844	21994
862.976	22040
863.108	22131
863.24	22504
863.372	21930
863.504	21975
863.636	21975
863.768	21991
863.9	22002
864.032	21953
864.164	22010
864.296	21968
864.428	22067
864.559	22150
864.691	22090
864.823	22010
864.954	22086
865.086	21926
865.217	21915
865.349	21842
865.48	21930
865.612	21850
865.743	22074
865.875	22059
866.006	21827
866.137	21762
866.269	22017
866.4	21884
866.531	21861
866.662	21728
866.793	21736
866.924	21816
867.055	21812
867.186	21846
867.317	21682
867.448	21705
867.579	21778
867.71	21808
867.841	21861
867.972	21789
868.103	21694
868.233	21797
868.364	21751
868.495	21831
868.625	22059
868.756	22192
868.886	22051
869.017	22032
869.147	22207
869.278	22109
869.408	22006
869.539	22112
869.669	22109
869.799	21956
869.929	22188
870.06	22116
870.19	22402
870.32	22382
870.45	22352
870.58	22417
870.71	22630
870.84	22523
870.97	22569
871.1	22455
871.23	22493
871.36	22679
871.489	22607
871.619	22531
871.749	22618
871.879	22622
872.008	22729
872.138	22664
872.267	22596
872.397	22500
872.526	22421
872.656	22588
872.785	22538
872.915	22736
873.044	22668
873.173	22660
873.303	22611
873.432	22809
873.561	22862
873.69	22607
873.819	22645
873.948	22713
874.077	22702
874.206	22523
874.335	22725
874.464	22622
874.593	22862
874.722	22801
874.851	22866
874.979	22869
875.108	22869
875.237	22793
875.365	22740
875.494	22675
875.623	22942
875.751	22850
875.88	22850
876.008	22953
876.136	23018
876.265	23311
876.393	23387
876.521	23387
876.65	23349
876.778	23223
876.906	23334
877.034	23140
877.162	23227
877.29	23200
877.418	23174
877.546	23303
877.674	23166
877.802	23170
877.93	23174
878.058	23071
878.185	23033
878.313	23048
878.441	23159
878.568	23079
878.696	23227
878.824	23189
878.951	23299
879.079	23326
879.206	23535
879.333	23254
879.461	23193
879.588	23307
879.715	23341
879.842	23531
879.97	23311
880.097	23052
880.224	23003
880.351	23037
880.478	23037
880.605	23033
880.732	23113
880.859	23277
880.986	23052
881.112	23003
881.239	22892
881.366	22744
881.493	22660
881.619	22538
881.746	22599
881.872	22607
881.999	22527
882.125	22538
882.252	22561
882.378	22538
882.505	22615
882.631	22382
882.757	22341
882.883	22344
883.01	22246
883.136	22150
883.262	22200
883.388	22139
883.514	22322
883.64	22204
883.766	22086
883.892	22105
884.018	22074
884.143	22124
884.269	22257
884.395	21945
884.52	21781
884.646	21960
884.772	21907
884.897	21781
885.023	21861
885.148	22010
885.274	21994
885.399	21994
885.524	21934
885.65	21895
885.775	21873
885.9	21869
886.025	22006
886.15	22021
886.275	21876
886.4	21865
886.525	21812
886.65	21838
886.775	21751
886.9	22025
887.025	22112
887.149	21842
887.274	21804
887.399	21682
887.523	21572
887.648	21652
887.773	21606
887.897	21690
888.021	21724
888.146	21568
888.27	21857
888.395	21728
888.519	21736
888.643	21637
888.767	21724
888.891	21610
889.015	21420
889.139	21671
889.263	21485
889.387	21424
889.511	21618
889.635	21583
889.759	21424
889.883	21340
890.006	21310
890.13	21561
890.254	21340
890.377	21336
890.501	21207
890.624	21146
890.748	21249
890.871	21096
890.995	20979
891.118	20979
891.241	20971
891.364	21093
891.488	21028
891.611	20887
891.734	20994
891.857	21108
891.98	21051
892.103	20990
892.226	21104
892.349	20960
892.471	20739
892.594	20963
892.717	20929
892.839	20929
892.962	20994
893.085	20994
893.207	20883
893.33	20830
893.452	20720
893.575	21013
893.697	20807
893.819	21070
893.941	21055
894.064	21074
894.186	20834
894.308	20762
894.43	21047
894.552	21062
894.674	20952
894.796	20777
894.918	20819
895.04	20891
895.161	21058
895.283	20872
895.405	20895
895.526	20872
895.648	20914
895.769	20804
895.891	20838
896.012	20876
896.134	20914
896.255	20777
896.376	20773
896.498	20834
896.619	20895
896.74	20842
896.861	21055
896.982	21161
897.103	21420
897.224	21195
897.345	21112
897.466	20982
897.587	20998
897.708	21070
897.828	21131
897.949	21009
898.07	20963
898.19	20956
898.311	21100
898.431	21032
898.552	21127
898.672	21180
898.792	21188
898.913	20990
899.033	20921
899.153	20876
899.273	20762
899.393	20716
899.513	20788
899.633	20857
899.753	20811
899.873	20564
899.993	20823
900.113	20762
900.232	20754
900.352	20758
900.472	20640
900.591	20545
900.711	20625
900.83	20564
900.95	20716
901.069	20556
901.189	20473
901.308	20225
901.427	20035
901.546	20172
901.665	20214
901.784	20031
901.904	20100
902.023	19932
902.141	19628
902.26	19696
902.379	19662
902.498	19590
902.617	19620
902.735	19693
902.854	19677
902.973	19510
903.091	19278
903.21	19327
903.328	19266
903.446	19107
903.565	19183
903.683	19129
903.801	18924
903.919	19080
904.038	19118
904.156	18958
904.274	19000
904.392	18886
904.51	18757
904.627	18852
904.745	18886
904.863	19012
904.981	18673
905.098	18498
905.216	18536
905.334	18517
905.451	18471
905.569	18521
905.686	18593
905.803	18509
905.921	18334
906.038	18498
906.155	18338
906.272	18251
906.389	18228
906.506	18125
906.623	18034
906.74	17946
906.857	17958
906.974	17961
907.091	18178
907.208	18190
907.324	18125
907.441	17980
907.557	17802
907.674	17870
907.79	17745
907.907	17707
908.023	17684
908.139	17794
908.256	17767
908.372	17707
908.488	17767
908.604	17581
908.72	17493
908.836	17516
908.952	17486
909.068	17448
909.184	17577
909.3	17440
909.415	17505
909.531	17490
909.647	17341
909.762	17098
909.878	17128
909.993	17254
910.108	17235
910.224	17181
910.339	17239
910.454	17128
910.57	16968
910.685	16980
910.8	17178
910.915	17162
911.03	17010
911.145	16866
911.259	16816
911.374	16744
911.489	16740
911.604	16603
911.718	16478
911.833	16470
911.947	16451
912.062	16367
912.176	16428
912.291	16527
912.405	16531
912.519	16683
912.633	16538
912.748	16596
912.862	16500
912.976	16253
913.09	16234
913.204	16344
913.318	16337
913.431	16478
913.545	16443
913.659	16325
913.772	16390
913.886	16105
914	16090
914.113	16150
914.226	16211
914.34	16223
914.453	15994
914.566	16112
914.68	16002
914.793	16078
914.906	15717
915.019	15671
915.132	15606
915.245	15743
915.358	15656
915.47	15686
915.583	15679
915.696	15694
915.809	15781
915.921	15857
916.034	15682
916.146	15603
916.259	15618
916.371	15686
916.483	15576
916.595	15519
916.708	15572
916.82	15606
916.932	15507
917.044	15454
917.156	15500
917.268	15435
917.38	15370
917.491	15336
917.603	15294
917.715	15458
917.826	15443
917.938	15302
918.049	15146
918.161	15306
918.272	15458
918.384	15466
918.495	15294
918.606	15165
918.717	14948
918.828	15017
918.939	15131
919.05	15093
919.161	15001
919.272	14895
919.383	14921
919.494	15142
919.604	15294
919.715	15085
919.826	15013
919.936	15085
920.047	15028
920.157	15020
920.267	15268
920.378	15070
920.488	14975
920.598	15176
920.708	15287
920.818	15051
920.928	15131
921.038	15294
921.148	15245
921.258	14998
921.368	14933
921.477	14819
921.587	14678
921.697	14590
921.806	14727
921.916	14651
922.025	14438
922.134	14393
922.244	14381
922.353	14385
922.462	14278
922.571	14187
922.68	14050
922.789	14065
922.898	13936
923.007	13959
923.116	13993
923.224	13978
923.333	13974
923.442	13883
923.55	13845
923.659	13898
923.767	13925
923.876	13811
923.984	13879
924.092	13750
924.201	13830
924.309	13807
924.417	13658
924.525	13712
924.633	13674
924.741	14613
924.849	13476
924.956	13590
925.064	13407
925.172	13400
925.279	13350
925.387	13362
925.494	13324
925.602	13514
925.709	13464
925.816	13270
925.924	13373
926.031	13476
926.138	13274
926.245	13403
926.352	13308
926.459	13396
926.566	13472
926.673	13270
926.779	13103
926.886	13103
926.993	13027
927.099	12981
927.206	12973
927.312	12848
927.419	13019
927.525	12859
927.631	12993
927.737	12749
927.843	12913
927.95	12681
928.056	12665
928.162	12722
928.267	12840
928.373	13411
928.479	12848
928.585	12566
928.69	12722
928.796	12730
928.901	12681
929.007	12525
929.112	12601
929.218	12563
929.323	12502
929.428	12521
929.533	12593
929.638	12479
929.743	12372
929.848	12544
929.953	12380
930.058	12319
930.163	12197
930.267	12095
930.372	12277
930.477	12121
930.581	12357
930.685	12247
930.79	12068
930.894	12167
930.998	12049
931.103	12251
931.207	11836
931.311	11779
931.415	11680
931.519	11478
931.623	11395
