Data from test_V78500241_234.txt Node
Date: Fri Mar 25 15:11:29 CST 2022
User: usil
Spectrometer: V785-0024
Trigger mode: 0
Integration Time (sec): 4.000000E-1
Scans to average: 1
Nonlinearity correction enabled: false
Boxcar width: 0
Storing dark spectrum: false
XAxis mode: Wavelengths
Number of Pixels in Spectrum: 1024
>>>>>Begin Spectral Data<<<<<
801.071	27717
801.214	27641
801.356	27504
801.499	27386
801.641	27310
801.783	27363
801.926	27329
802.068	27211
802.211	27218
802.353	27077
802.496	27070
802.638	26883
802.78	26956
802.923	26735
803.065	26777
803.208	26845
803.35	26906
803.492	27020
803.635	27066
803.777	26963
803.919	27058
804.061	27283
804.204	27047
804.346	26773
804.488	26861
804.63	26940
804.773	26712
804.915	26994
805.057	27135
805.199	26982
805.341	26986
805.483	27093
805.626	26971
805.768	26876
805.91	27176
806.052	26982
806.194	26948
806.336	27176
806.478	27051
806.62	26830
806.762	27241
806.904	27302
807.046	27530
807.188	27427
807.33	27447
807.472	27447
807.614	27306
807.756	27336
807.898	27397
808.04	27150
808.182	27313
808.324	27241
808.465	27218
808.607	27561
808.749	27530
808.891	27675
809.033	27831
809.174	27682
809.316	27507
809.458	27637
809.6	27405
809.741	27667
809.883	27736
810.025	28017
810.166	27812
810.308	27751
810.45	27755
810.591	27846
810.733	27553
810.875	27534
811.016	27469
811.158	27549
811.299	27709
811.441	27614
811.582	27819
811.724	27622
811.865	27595
812.007	27564
812.148	27572
812.29	27466
812.431	27686
812.573	27934
812.714	27922
812.855	28093
812.997	27987
813.138	28299
813.279	28173
813.421	28158
813.562	27972
813.703	27998
813.845	27701
813.986	27485
814.127	27336
814.268	27222
814.41	27222
814.551	27161
814.692	27252
814.833	27252
814.974	27146
815.115	27123
815.256	27039
815.397	26975
815.539	27028
815.68	26872
815.821	26956
815.962	26940
816.103	26906
816.244	26853
816.385	26804
816.526	26682
816.666	26594
816.807	26427
816.948	26549
817.089	26427
817.23	26412
817.371	26434
817.512	26488
817.653	26362
817.793	26248
817.934	26347
818.075	26317
818.216	26453
818.356	26271
818.497	26214
818.638	26046
818.778	26256
818.919	26195
819.06	26237
819.2	26149
819.341	26256
819.481	26263
819.622	26427
819.762	26693
819.903	26560
820.043	26469
820.184	26446
820.324	26294
820.465	26484
820.605	26438
820.746	26453
820.886	26172
821.026	26370
821.167	26328
821.307	26370
821.447	26271
821.588	26229
821.728	26081
821.868	25986
822.008	25803
822.149	25715
822.289	25685
822.429	25491
822.569	25449
822.709	25487
822.849	25240
822.99	25194
823.13	25251
823.27	25110
823.41	25126
823.55	24954
823.69	25103
823.83	25103
823.97	24935
824.11	24894
824.25	24700
824.389	24806
824.529	24901
824.669	24848
824.809	25107
824.949	25031
825.089	24890
825.228	24905
825.368	24684
825.508	24802
825.648	24715
825.787	24730
825.927	24779
826.067	24719
826.206	24681
826.346	24669
826.485	24783
826.625	24661
826.765	24791
826.904	24669
827.044	24456
827.183	24433
827.323	24338
827.462	24403
827.601	24365
827.741	24197
827.88	24414
828.02	24300
828.159	24369
828.298	24448
828.437	24376
828.577	24258
828.716	24593
828.855	24467
828.994	23999
829.134	24136
829.273	24178
829.412	24083
829.551	23977
829.69	24087
829.829	24087
829.968	24076
830.107	24129
830.246	24083
830.385	23961
830.524	23992
830.663	23961
830.802	23710
830.941	23748
831.08	23528
831.219	23661
831.357	23687
831.496	23927
831.635	23642
831.774	23589
831.913	23649
832.051	23577
832.19	23471
832.329	23425
832.467	23315
832.606	23372
832.744	23227
832.883	23330
833.022	23284
833.16	23277
833.299	23326
833.437	23376
833.576	23376
833.714	23440
833.852	23425
833.991	23573
834.129	23554
834.267	23516
834.406	23391
834.544	23349
834.682	23425
834.821	23349
834.959	23421
835.097	23258
835.235	23505
835.373	23307
835.511	23376
835.65	23132
835.788	23280
835.926	23006
836.064	23018
836.202	22938
836.34	23258
836.478	23269
836.615	23239
836.753	23151
836.891	23136
837.029	23231
837.167	23178
837.305	23216
837.443	23083
837.58	23124
837.718	23090
837.856	23041
837.993	23048
838.131	22961
838.269	22900
838.406	22873
838.544	22774
838.681	22733
838.819	22557
838.956	22432
839.094	22474
839.231	22440
839.369	22691
839.506	22843
839.643	22675
839.781	22432
839.918	22261
840.055	22421
840.193	22443
840.33	22382
840.467	22363
840.604	22367
840.742	22630
840.879	22249
841.016	22306
841.153	22268
841.29	22474
841.427	22382
841.564	22367
841.701	22443
841.838	22428
841.975	22287
842.112	22238
842.249	22150
842.385	22158
842.522	22295
842.659	22150
842.796	22181
842.933	22055
843.069	22036
843.206	22044
843.343	22139
843.479	22112
843.616	22109
843.752	21899
843.889	21899
844.025	22074
844.162	21895
844.298	21956
844.435	21895
844.571	21743
844.708	21934
844.844	22128
844.98	22040
845.117	21945
845.253	21789
845.389	21701
845.525	21903
845.661	21720
845.798	21648
845.934	21641
846.07	21637
846.206	21747
846.342	21728
846.478	21694
846.614	21336
846.75	21233
846.886	21359
847.022	21526
847.158	21306
847.294	21401
847.429	21447
847.565	21310
847.701	21519
847.837	21055
847.972	21093
848.108	21233
848.244	21188
848.379	20960
848.515	21013
848.65	20921
848.786	20925
848.921	20933
849.057	21104
849.192	20925
849.328	20944
849.463	20971
849.598	20880
849.734	20758
849.869	20781
850.004	20689
850.14	20636
850.275	20602
850.41	20495
850.545	20522
850.68	20560
850.815	20667
850.95	20705
851.085	20777
851.22	20735
851.355	20629
851.49	20617
851.625	20625
851.76	20583
851.895	20564
852.03	20571
852.165	20602
852.299	20659
852.434	20765
852.569	20765
852.703	20537
852.838	20663
852.973	20800
853.107	20750
853.242	20613
853.376	20446
853.511	20389
853.645	20461
853.78	20629
853.914	20412
854.048	20594
854.183	20358
854.317	20469
854.451	20632
854.585	20438
854.72	20518
854.854	20552
854.988	20374
855.122	20427
855.256	20393
855.39	20446
855.524	20575
855.658	20450
855.792	20522
855.926	20568
856.06	20457
856.194	20530
856.327	20381
856.461	20381
856.595	20412
856.729	20465
856.862	20541
856.996	20469
857.13	20522
857.263	20602
857.397	20522
857.53	20412
857.664	20476
857.797	20568
857.931	20579
858.064	20583
858.197	20492
858.331	20408
858.464	20377
858.597	20328
858.731	20488
858.864	20404
858.997	20450
859.13	20423
859.263	20427
859.396	20617
859.529	20400
859.662	20393
859.795	20393
859.928	20358
860.061	20549
860.194	20590
860.327	20423
860.46	20431
860.592	20583
860.725	20659
860.858	20488
860.99	20438
861.123	20419
861.256	20244
861.388	20415
861.521	21142
861.653	20339
861.786	20244
861.918	20332
862.05	20393
862.183	20469
862.315	20427
862.447	20526
862.58	20389
862.712	20142
862.844	20214
862.976	20244
863.108	20130
863.24	20701
863.372	20126
863.504	20122
863.636	20065
863.768	20214
863.9	20145
864.032	19940
864.164	20081
864.296	20164
864.428	20107
864.559	20168
864.691	20332
864.823	20054
864.954	20050
865.086	20027
865.217	20100
865.349	19986
865.48	19978
865.612	20161
865.743	20206
865.875	20043
866.006	19887
866.137	20168
866.269	20065
866.4	19955
866.531	19887
866.662	19913
866.793	20039
866.924	19894
867.055	20012
867.186	20024
867.317	19921
867.448	19898
867.579	19791
867.71	19845
867.841	19909
867.972	19925
868.103	19841
868.233	19871
868.364	19993
868.495	20035
868.625	20180
868.756	20389
868.886	20187
869.017	20229
869.147	20366
869.278	20396
869.408	20259
869.539	20237
869.669	20252
869.799	20256
869.929	20282
870.06	20237
870.19	20613
870.32	20438
870.45	20564
870.58	20476
870.71	20625
870.84	20773
870.97	20644
871.1	20606
871.23	20746
871.36	20796
871.489	20552
871.619	20682
871.749	20823
871.879	20857
872.008	20891
872.138	20868
872.267	20735
872.397	20571
872.526	20575
872.656	20621
872.785	20625
872.915	20773
873.044	20921
873.173	20849
873.303	21047
873.432	20941
873.561	20834
873.69	20845
873.819	20830
873.948	20891
874.077	20963
874.206	20758
874.335	20785
874.464	20975
874.593	21066
874.722	21161
874.851	20998
874.979	21142
875.108	21066
875.237	21051
875.365	20952
875.494	21066
875.623	21074
875.751	21024
875.88	21043
876.008	21180
876.136	21226
876.265	21485
876.393	21530
876.521	21488
876.65	21663
876.778	21561
876.906	21359
877.034	21401
877.162	21526
877.29	21363
877.418	21408
877.546	21481
877.674	21507
877.802	21424
877.93	21542
878.058	21268
878.185	21249
878.313	21443
878.441	21466
878.568	21325
878.696	21344
878.824	21420
878.951	21439
879.079	21618
879.206	21751
879.333	21675
879.461	21447
879.588	21454
879.715	21603
879.842	21816
879.97	21507
880.097	21214
880.224	21226
880.351	21245
880.478	21237
880.605	21279
880.732	21252
880.859	21526
880.986	21336
881.112	21150
881.239	21100
881.366	20960
881.493	20921
881.619	20781
881.746	20963
881.872	20861
881.999	20792
882.125	20792
882.252	20941
882.378	20777
882.505	20941
882.631	20754
882.757	20549
882.883	20632
883.01	20587
883.136	20533
883.262	20526
883.388	20256
883.514	20663
883.64	20533
883.766	20446
883.892	20400
884.018	20317
884.143	20632
884.269	20609
884.395	20313
884.52	20176
884.646	20282
884.772	20168
884.897	20122
885.023	20328
885.148	20252
885.274	20313
885.399	20305
885.524	20130
885.65	20183
885.775	20210
885.9	20180
886.025	20408
886.15	20218
886.275	20210
886.4	20008
886.525	20259
886.65	20157
886.775	20168
886.9	20275
887.025	20469
887.149	20240
887.274	19997
887.399	19978
887.523	19936
887.648	20008
887.773	19963
887.897	19940
888.021	20024
888.146	19925
888.27	20073
888.395	20100
888.519	20058
888.643	19921
888.767	19978
888.891	19780
889.015	19757
889.139	19830
889.263	19734
889.387	19925
889.511	20039
889.635	20058
889.759	19715
889.883	19757
890.006	19871
890.13	19906
890.254	19753
890.377	19708
890.501	19468
890.624	19499
890.748	19559
890.871	19392
890.995	19354
891.118	19289
891.241	19445
891.364	19422
891.488	19529
891.611	19354
891.734	19301
891.857	19373
891.98	19308
892.103	19453
892.226	19426
892.349	19312
892.471	19148
892.594	19316
892.717	19343
892.839	19236
892.962	19308
893.085	19297
893.207	19339
893.33	19232
893.452	19217
893.575	19297
893.697	19263
893.819	19377
893.941	19392
894.064	19434
894.186	19259
894.308	19350
894.43	19384
894.552	19468
894.674	19320
894.796	19122
894.918	19228
895.04	19240
895.161	19225
895.283	19426
895.405	19179
895.526	19304
895.648	19209
895.769	19301
895.891	19320
896.012	19411
896.134	19426
896.255	19502
896.376	19217
896.498	19400
896.619	19422
896.74	19308
896.861	19468
896.982	19651
897.103	19868
897.224	19559
897.345	19696
897.466	19422
897.587	19506
897.708	19575
897.828	19563
897.949	19533
898.07	19441
898.19	19441
898.311	19548
898.431	19559
898.552	19556
898.672	19601
898.792	19674
898.913	19616
899.033	19441
899.153	19365
899.273	19228
899.393	19179
899.513	19362
899.633	19263
899.753	19282
899.873	19187
899.993	19297
900.113	19164
900.232	19282
900.352	19251
900.472	19194
900.591	19061
900.711	19099
900.83	18973
900.95	19171
901.069	19152
901.189	19031
901.308	18776
901.427	18681
901.546	18623
901.665	18722
901.784	18681
901.904	18635
902.023	18509
902.141	18243
902.26	18171
902.379	18182
902.498	18159
902.617	18030
902.735	18159
902.854	18129
902.973	18030
903.091	17893
903.21	17920
903.328	17885
903.446	17699
903.565	17657
903.683	17615
903.801	17562
903.919	17615
904.038	17596
904.156	17455
904.274	17425
904.392	17493
904.51	17360
904.627	17429
904.745	17532
904.863	17547
904.981	17189
905.098	17056
905.216	17064
905.334	17174
905.451	17064
905.569	17075
905.686	17124
905.803	17098
905.921	16881
906.038	16961
906.155	16927
906.272	16850
906.389	16816
906.506	16694
906.623	16622
906.74	16611
906.857	16462
906.974	16596
907.091	16615
907.208	16717
907.324	16573
907.441	16531
907.557	16333
907.674	16428
907.79	16322
907.907	16352
908.023	16318
908.139	16390
908.256	16287
908.372	16192
908.488	16207
908.604	16032
908.72	16101
908.836	16185
908.952	16017
909.068	16067
909.184	16147
909.3	16048
909.415	16124
909.531	16017
909.647	15804
909.762	15751
909.878	15732
909.993	15736
910.108	15762
910.224	15762
910.339	15785
910.454	15629
910.57	15633
910.685	15507
910.8	15854
910.915	15686
911.03	15648
911.145	15420
911.259	15412
911.374	15374
911.489	15332
911.604	15188
911.718	15100
911.833	15230
911.947	14952
912.062	14948
912.176	15161
912.291	15020
912.405	15138
912.519	15340
912.633	15237
912.748	15100
912.862	15131
912.976	14960
913.09	14834
913.204	14842
913.318	15020
913.431	14979
913.545	14967
913.659	15024
913.772	15009
913.886	14849
914	14769
914.113	14853
914.226	14937
914.34	14800
914.453	14670
914.566	14788
914.68	14644
914.793	14594
914.906	14533
915.019	14408
915.132	14256
915.245	14400
915.358	14454
915.47	14412
915.583	14351
915.696	14408
915.809	14503
915.921	14564
916.034	14324
916.146	14267
916.259	14256
916.371	14313
916.483	14374
916.595	14206
916.708	14221
916.82	14252
916.932	14107
917.044	14103
917.156	14199
917.268	14031
917.38	14065
917.491	14103
917.603	13993
917.715	14084
917.826	14130
917.938	13906
918.049	13978
918.161	14016
918.272	14100
918.384	14081
918.495	13955
918.606	13860
918.717	13689
918.828	13887
918.939	13818
919.05	13753
919.161	13791
919.272	13677
919.383	13666
919.494	13791
919.604	14012
919.715	13791
919.826	13772
919.936	13841
920.047	13879
920.157	13791
920.267	14024
920.378	13761
920.488	13738
920.598	13932
920.708	14073
920.818	13921
920.928	13875
921.038	14088
921.148	14054
921.258	13765
921.368	13616
921.477	13495
921.587	13552
921.697	13422
921.806	13525
921.916	13362
922.025	13297
922.134	13217
922.244	13103
922.353	13244
922.462	13038
922.571	13004
922.68	12901
922.789	12829
922.898	12882
923.007	12677
923.116	12825
923.224	12795
923.333	12719
923.442	12700
923.55	12662
923.659	12707
923.767	12711
923.876	12585
923.984	12741
924.092	12582
924.201	12582
924.309	12528
924.417	12669
924.525	12467
924.633	12528
924.741	13312
924.849	12327
924.956	12418
925.064	12296
925.172	12228
925.279	12194
925.387	12330
925.494	12334
925.602	12422
925.709	12254
925.816	12186
925.924	12197
926.031	12232
926.138	12247
926.245	12285
926.352	12133
926.459	12262
926.566	12327
926.673	12171
926.779	12079
926.886	12057
926.993	11946
927.099	11908
927.206	11893
927.312	11809
927.419	11859
927.525	11828
927.631	11931
927.737	11752
927.843	11729
927.95	11585
928.056	11714
928.162	11691
928.267	11790
928.373	12330
928.479	11813
928.585	11505
928.69	11657
928.796	11726
928.901	11604
929.007	11391
929.112	11619
929.218	11509
929.323	11452
929.428	11471
929.533	11657
929.638	11398
929.743	11330
929.848	11482
929.953	11467
930.058	11364
930.163	11113
930.267	11147
930.372	11239
930.477	11117
930.581	11330
930.685	11231
930.79	11060
930.894	11010
930.998	10919
931.103	11124
931.207	10812
931.311	10664
931.415	10607
931.519	10413
931.623	10402
