Data from test_V78500241_3371.txt Node
Date: Fri Mar 25 15:33:20 CST 2022
User: usil
Spectrometer: V785-0024
Trigger mode: 0
Integration Time (sec): 4.000000E-1
Scans to average: 1
Nonlinearity correction enabled: false
Boxcar width: 0
Storing dark spectrum: false
XAxis mode: Wavelengths
Number of Pixels in Spectrum: 1024
>>>>>Begin Spectral Data<<<<<
801.071	27169
801.214	27211
801.356	26971
801.499	26887
801.641	26670
801.783	26804
801.926	26769
802.068	26674
802.211	26735
802.353	26617
802.496	26492
802.638	26423
802.78	26328
802.923	26278
803.065	26210
803.208	26214
803.35	26324
803.492	26587
803.635	26571
803.777	26541
803.919	26503
804.061	26861
804.204	26693
804.346	26400
804.488	26408
804.63	26499
804.773	26465
804.915	26594
805.057	26724
805.199	26457
805.341	26571
805.483	26598
805.626	26651
805.768	26408
805.91	26758
806.052	26682
806.194	26644
806.336	26785
806.478	26689
806.62	26564
806.762	26800
806.904	26921
807.046	27283
807.188	27009
807.33	27127
807.472	27104
807.614	26975
807.756	26914
807.898	26834
808.04	26629
808.182	26910
808.324	26940
808.465	26952
808.607	27009
808.749	27169
808.891	27374
809.033	27332
809.174	27222
809.316	27241
809.458	27176
809.6	27135
809.741	27272
809.883	27351
810.025	27393
810.166	27485
810.308	27644
810.45	27431
810.591	27382
810.733	27283
810.875	27241
811.016	27077
811.158	26960
811.299	27332
811.441	27332
811.582	27397
811.724	27321
811.865	27070
812.007	27123
812.148	27184
812.29	27226
812.431	27344
812.573	27549
812.714	27595
812.855	27709
812.997	27873
813.138	27941
813.279	27857
813.421	27713
813.562	27637
813.703	27496
813.845	27431
813.986	27123
814.127	27173
814.268	26963
814.41	26838
814.551	26952
814.692	26960
814.833	26804
814.974	26925
815.115	26933
815.256	26762
815.397	26777
815.539	26754
815.68	26705
815.821	26533
815.962	26735
816.103	26655
816.244	26651
816.385	26370
816.526	26275
816.666	26267
816.807	26031
816.948	26320
817.089	26282
817.23	26142
817.371	26130
817.512	25978
817.653	26096
817.793	26039
817.934	26084
818.075	26058
818.216	26202
818.356	26107
818.497	26005
818.638	25909
818.778	25947
818.919	25776
819.06	25959
819.2	25986
819.341	26138
819.481	26024
819.622	26328
819.762	26461
819.903	26271
820.043	26309
820.184	26157
820.324	26252
820.465	26290
820.605	26396
820.746	26347
820.886	26084
821.026	26103
821.167	26119
821.307	26267
821.447	26191
821.588	25966
821.728	25921
821.868	25795
822.008	25696
822.149	25628
822.289	25616
822.429	25358
822.569	25304
822.709	25377
822.849	25156
822.99	25152
823.13	25187
823.27	24901
823.41	24863
823.55	24738
823.69	24935
823.83	24947
823.97	24871
824.11	24707
824.25	24757
824.389	24726
824.529	24806
824.669	24715
824.809	24844
824.949	24825
825.089	24753
825.228	24837
825.368	24559
825.508	24654
825.648	24654
825.787	24620
825.927	24551
826.067	24540
826.206	24608
826.346	24741
826.485	24646
826.625	24585
826.765	24700
826.904	24639
827.044	24490
827.183	24551
827.323	24388
827.462	24327
827.601	24384
827.741	24388
827.88	24342
828.02	24117
828.159	24289
828.298	24270
828.437	24486
828.577	24266
828.716	24384
828.855	24213
828.994	24144
829.134	23821
829.273	24057
829.412	24015
829.551	23942
829.69	24083
829.829	24083
829.968	24121
830.107	24133
830.246	24064
830.385	24049
830.524	23946
830.663	23923
830.802	23828
830.941	23726
831.08	23577
831.219	23687
831.357	23927
831.496	23946
831.635	23623
831.774	23630
831.913	23551
832.051	23486
832.19	23512
832.329	23459
832.467	23482
832.606	23318
832.744	23254
832.883	23322
833.022	23212
833.16	23368
833.299	23417
833.437	23436
833.576	23547
833.714	23421
833.852	23455
833.991	23467
834.129	23334
834.267	23566
834.406	23452
834.544	23436
834.682	23303
834.821	23402
834.959	23627
835.097	23444
835.235	23429
835.373	23425
835.511	23387
835.65	23334
835.788	23105
835.926	23159
836.064	23003
836.202	23128
836.34	23200
836.478	23288
836.615	23334
836.753	23200
836.891	23425
837.029	23280
837.167	23296
837.305	23143
837.443	23212
837.58	23140
837.718	23147
837.856	23147
837.993	23029
838.131	23090
838.269	23143
838.406	23033
838.544	23018
838.681	22786
838.819	22710
838.956	22596
839.094	22626
839.231	22698
839.369	22691
839.506	22972
839.643	22862
839.781	22645
839.918	22538
840.055	22527
840.193	22577
840.33	22554
840.467	22523
840.604	22596
840.742	22774
840.879	22375
841.016	22398
841.153	22413
841.29	22653
841.427	22497
841.564	22569
841.701	22405
841.838	22466
841.975	22402
842.112	22481
842.249	22284
842.385	22417
842.522	22531
842.659	22341
842.796	22306
842.933	22246
843.069	22325
843.206	22371
843.343	22284
843.479	22268
843.616	22299
843.752	22086
843.889	22036
844.025	22223
844.162	22112
844.298	22204
844.435	22021
844.571	22048
844.708	22051
844.844	22280
844.98	22280
845.117	22128
845.253	21994
845.389	21972
845.525	21956
845.661	21994
845.798	21751
845.934	21857
846.07	21823
846.206	21842
846.342	21926
846.478	21857
846.614	21717
846.75	21462
846.886	21488
847.022	21580
847.158	21644
847.294	21576
847.429	21739
847.565	21667
847.701	21747
847.837	21332
847.972	21237
848.108	21332
848.244	21370
848.379	21302
848.515	21055
848.65	21154
848.786	21218
848.921	21192
849.057	21184
849.192	21070
849.328	21131
849.463	21169
849.598	21017
849.734	20990
849.869	21112
850.004	21013
850.14	20956
850.275	20899
850.41	20834
850.545	20895
850.68	20982
850.815	21047
850.95	20880
851.085	20998
851.22	20990
851.355	20834
851.49	20902
851.625	20804
851.76	20929
851.895	20842
852.03	20842
852.165	20948
852.299	20933
852.434	20944
852.569	20887
852.703	20944
852.838	20902
852.973	21142
853.107	21077
853.242	20811
853.376	20743
853.511	20648
853.645	20689
853.78	20781
853.914	20823
854.048	20629
854.183	20686
854.317	20849
854.451	20743
854.585	20678
854.72	20667
854.854	20853
854.988	20617
855.122	20720
855.256	20644
855.39	20712
855.524	20891
855.658	20716
855.792	20735
855.926	20731
856.06	20746
856.194	20758
856.327	20686
856.461	20689
856.595	20655
856.729	20826
856.862	20811
856.996	20739
857.13	20925
857.263	20773
857.397	20887
857.53	20583
857.664	20731
857.797	20792
857.931	20868
858.064	20796
858.197	20857
858.331	20708
858.464	20678
858.597	20609
858.731	20629
858.864	20667
858.997	20705
859.13	20727
859.263	20792
859.396	20815
859.529	20552
859.662	20861
859.795	20651
859.928	20640
860.061	20819
860.194	20868
860.327	20743
860.46	20708
860.592	20807
860.725	20845
860.858	20819
860.99	20693
861.123	20640
861.256	20629
861.388	20670
861.521	21443
861.653	20579
861.786	20549
861.918	20537
862.05	20537
862.183	20629
862.315	20674
862.447	20765
862.58	20632
862.712	20339
862.844	20370
862.976	20533
863.108	20579
863.24	20826
863.372	20427
863.504	20442
863.636	20492
863.768	20438
863.9	20568
864.032	20393
864.164	20450
864.296	20412
864.428	20503
864.559	20537
864.691	20461
864.823	20442
864.954	20404
865.086	20457
865.217	20351
865.349	20313
865.48	20343
865.612	20210
865.743	20450
865.875	20294
866.006	20343
866.137	20294
866.269	20400
866.4	20412
866.531	20202
866.662	20298
866.793	20313
866.924	20252
867.055	20396
867.186	20320
867.317	20161
867.448	20195
867.579	20218
867.71	20305
867.841	20145
867.972	20263
868.103	20305
868.233	20355
868.364	20263
868.495	20400
868.625	20594
868.756	20579
868.886	20530
869.017	20480
869.147	20621
869.278	20735
869.408	20545
869.539	20476
869.669	20686
869.799	20560
869.929	20594
870.06	20636
870.19	20872
870.32	20857
870.45	20857
870.58	20891
870.71	21001
870.84	21036
870.97	20933
871.1	20857
871.23	21093
871.36	21112
871.489	21039
871.619	21142
871.749	21211
871.879	21058
872.008	21176
872.138	21169
872.267	21146
872.397	21154
872.526	20948
872.656	21024
872.785	21051
872.915	21112
873.044	21249
873.173	21245
873.303	21195
873.432	21157
873.561	21207
873.69	21131
873.819	21024
873.948	21241
874.077	21214
874.206	21089
874.335	21211
874.464	21306
874.593	21302
874.722	21397
874.851	21374
874.979	21447
875.108	21416
875.237	21408
875.365	21458
875.494	21405
875.623	21447
875.751	21291
875.88	21283
876.008	21473
876.136	21663
876.265	21934
876.393	22051
876.521	22013
876.65	21888
876.778	21793
876.906	21660
877.034	21682
877.162	21705
877.29	21652
877.418	21789
877.546	21762
877.674	21751
877.802	21713
877.93	21720
878.058	21747
878.185	21610
878.313	21755
878.441	21747
878.568	21599
878.696	21648
878.824	21698
878.951	21907
879.079	21903
879.206	22044
879.333	21949
879.461	21808
879.588	21869
879.715	21892
879.842	21987
879.97	21785
880.097	21515
880.224	21606
880.351	21641
880.478	21618
880.605	21538
880.732	21625
880.859	21747
880.986	21519
881.112	21576
881.239	21466
881.366	21214
881.493	21306
881.619	21188
881.746	21214
881.872	21176
881.999	21089
882.125	21108
882.252	21165
882.378	21192
882.505	21222
882.631	20998
882.757	20800
882.883	20804
883.01	20925
883.136	20792
883.262	20678
883.388	20826
883.514	20861
883.64	20990
883.766	20933
883.892	20621
884.018	20651
884.143	20796
884.269	20819
884.395	20606
884.52	20480
884.646	20511
884.772	20465
884.897	20461
885.023	20590
885.148	20629
885.274	20640
885.399	20716
885.524	20431
885.65	20438
885.775	20541
885.9	20461
886.025	20609
886.15	20476
886.275	20495
886.4	20362
886.525	20499
886.65	20343
886.775	20389
886.9	20659
887.025	20750
887.149	20522
887.274	20385
887.399	20301
887.523	20161
887.648	20206
887.773	20240
887.897	20290
888.021	20256
888.146	20161
888.27	20427
888.395	20328
888.519	20393
888.643	20286
888.767	20400
888.891	20309
889.015	20172
889.139	20111
889.263	20100
889.387	20290
889.511	20396
889.635	20210
889.759	20027
889.883	20126
890.006	20088
890.13	20130
890.254	19978
890.377	19955
890.501	19837
890.624	19822
890.748	19906
890.871	19788
890.995	19643
891.118	19628
891.241	19704
891.364	19719
891.488	19875
891.611	19837
891.734	19795
891.857	19696
891.98	19620
892.103	19864
892.226	19689
892.349	19658
892.471	19556
892.594	19594
892.717	19594
892.839	19559
892.962	19609
893.085	19658
893.207	19468
893.33	19445
893.452	19601
893.575	19559
893.697	19529
893.819	19666
893.941	19776
894.064	19704
894.186	19518
894.308	19495
894.43	19723
894.552	19681
894.674	19715
894.796	19628
894.918	19628
895.04	19605
895.161	19628
895.283	19693
895.405	19521
895.526	19651
895.648	19563
895.769	19537
895.891	19605
896.012	19601
896.134	19582
896.255	19635
896.376	19632
896.498	19552
896.619	19616
896.74	19544
896.861	19689
896.982	19894
897.103	20001
897.224	20008
897.345	19921
897.466	19715
897.587	19898
897.708	19906
897.828	19761
897.949	19761
898.07	19681
898.19	19799
898.311	19868
898.431	19833
898.552	19902
898.672	19917
898.792	19982
898.913	19818
899.033	19620
899.153	19533
899.273	19422
899.393	19499
899.513	19559
899.633	19582
899.753	19613
899.873	19483
899.993	19563
900.113	19457
900.232	19472
900.352	19396
900.472	19392
900.591	19369
900.711	19411
900.83	19331
900.95	19335
901.069	19495
901.189	19270
901.308	19042
901.427	18920
901.546	19042
901.665	19069
901.784	18905
901.904	18856
902.023	18753
902.141	18528
902.26	18376
902.379	18525
902.498	18502
902.617	18433
902.735	18433
902.854	18429
902.973	18407
903.091	18228
903.21	18159
903.328	18079
903.446	18102
903.565	17935
903.683	18060
903.801	17836
903.919	17916
904.038	17916
904.156	17642
904.274	17904
904.392	17608
904.51	17703
904.627	17661
904.745	17741
904.863	17699
904.981	17604
905.098	17452
905.216	17334
905.334	17387
905.451	17478
905.569	17364
905.686	17406
905.803	17448
905.921	17128
906.038	17277
906.155	17174
906.272	17037
906.389	17159
906.506	16896
906.623	17022
906.74	16824
906.857	16850
906.974	16862
907.091	16995
907.208	17060
907.324	17052
907.441	16904
907.557	16660
907.674	16675
907.79	16569
907.907	16717
908.023	16793
908.139	16649
908.256	16702
908.372	16527
908.488	16508
908.604	16386
908.72	16382
908.836	16432
908.952	16447
909.068	16455
909.184	16538
909.3	16379
909.415	16466
909.531	16352
909.647	16173
909.762	16059
909.878	15930
909.993	16120
910.108	15972
910.224	16067
910.339	16013
910.454	16071
910.57	15903
910.685	15827
910.8	16112
910.915	15983
911.03	15922
911.145	15804
911.259	15800
911.374	15713
911.489	15625
911.604	15557
911.718	15504
911.833	15473
911.947	15397
912.062	15233
912.176	15591
912.291	15515
912.405	15443
912.519	15504
912.633	15553
912.748	15538
912.862	15447
912.976	15321
913.09	15192
913.204	15237
913.318	15283
913.431	15359
913.545	15332
913.659	15279
913.772	15192
913.886	15165
914	15077
914.113	15119
914.226	15249
914.34	15180
914.453	14921
914.566	15207
914.68	15051
914.793	14838
914.906	14785
915.019	14720
915.132	14724
915.245	14731
915.358	14739
915.47	14712
915.583	14663
915.696	14697
915.809	14834
915.921	14804
916.034	14644
916.146	14640
916.259	14511
916.371	14796
916.483	14579
916.595	14625
916.708	14583
916.82	14629
916.932	14511
917.044	14526
917.156	14438
917.268	14366
917.38	14347
917.491	14419
917.603	14294
917.715	14427
917.826	14461
917.938	14256
918.049	14187
918.161	14309
918.272	14366
918.384	14454
918.495	14298
918.606	14199
918.717	14123
918.828	14248
918.939	14187
919.05	14081
919.161	14088
919.272	14024
919.383	13913
919.494	14145
919.604	14240
919.715	14123
919.826	14119
919.936	14001
920.047	14103
920.157	14119
920.267	14229
920.378	14164
920.488	13955
920.598	14259
920.708	14351
920.818	14313
920.928	14294
921.038	14457
921.148	14317
921.258	14092
921.368	13967
921.477	13883
921.587	13959
921.697	13734
921.806	13909
921.916	13670
922.025	13651
922.134	13476
922.244	13422
922.353	13613
922.462	13369
922.571	13285
922.68	13126
922.789	13156
922.898	13285
923.007	12985
923.116	13202
923.224	13095
923.333	13076
923.442	12966
923.55	12913
923.659	12939
923.767	13141
923.876	12886
923.984	13015
924.092	12848
924.201	12867
924.309	12977
924.417	12878
924.525	12837
924.633	12844
924.741	13761
924.849	12612
924.956	12734
925.064	12677
925.172	12570
925.279	12506
925.387	12604
925.494	12593
925.602	12741
925.709	12639
925.816	12494
925.924	12593
926.031	12612
926.138	12555
926.245	12532
926.352	12452
926.459	12532
926.566	12620
926.673	12433
926.779	12357
926.886	12361
926.993	12136
927.099	12190
927.206	12163
927.312	12095
927.419	12182
927.525	12110
927.631	12190
927.737	12091
927.843	12019
927.95	11923
928.056	11958
928.162	12041
928.267	11992
928.373	12483
928.479	12064
928.585	11874
928.69	11961
928.796	12007
928.901	11840
929.007	11805
929.112	11805
929.218	11863
929.323	11878
929.428	11726
929.533	11863
929.638	11684
929.743	11657
929.848	11748
929.953	11691
930.058	11509
930.163	11493
930.267	11440
930.372	11505
930.477	11341
930.581	11600
930.685	11493
930.79	11372
930.894	11356
930.998	11280
931.103	11440
931.207	11075
931.311	10976
931.415	10949
931.519	10668
931.623	10603
