Data from test_V78500241_2800.txt Node
Date: Fri Mar 25 15:29:21 CST 2022
User: usil
Spectrometer: V785-0024
Trigger mode: 0
Integration Time (sec): 4.000000E-1
Scans to average: 1
Nonlinearity correction enabled: false
Boxcar width: 0
Storing dark spectrum: false
XAxis mode: Wavelengths
Number of Pixels in Spectrum: 1024
>>>>>Begin Spectral Data<<<<<
801.071	27249
801.214	27154
801.356	26940
801.499	26868
801.641	26568
801.783	26727
801.926	26712
802.068	26705
802.211	26663
802.353	26495
802.496	26442
802.638	26415
802.78	26366
802.923	26259
803.065	26202
803.208	26275
803.35	26347
803.492	26381
803.635	26438
803.777	26339
803.919	26446
804.061	26929
804.204	26575
804.346	26358
804.488	26476
804.63	26355
804.773	26492
804.915	26507
805.057	26568
805.199	26476
805.341	26541
805.483	26530
805.626	26594
805.768	26419
805.91	26636
806.052	26579
806.194	26499
806.336	26708
806.478	26552
806.62	26457
806.762	26800
806.904	26845
807.046	27036
807.188	27100
807.33	27142
807.472	27123
807.614	26963
807.756	26990
807.898	26940
808.04	26857
808.182	26876
808.324	26804
808.465	26781
808.607	27066
808.749	27142
808.891	27287
809.033	27313
809.174	27230
809.316	27093
809.458	27226
809.6	27252
809.741	27351
809.883	27420
810.025	27519
810.166	27545
810.308	27488
810.45	27405
810.591	27382
810.733	27275
810.875	27131
811.016	27066
811.158	27085
811.299	27264
811.441	27420
811.582	27340
811.724	27211
811.865	27119
812.007	27112
812.148	27135
812.29	27222
812.431	27359
812.573	27477
812.714	27603
812.855	27679
812.997	27751
813.138	27918
813.279	27797
813.421	27732
813.562	27675
813.703	27667
813.845	27351
813.986	27127
814.127	27062
814.268	26902
814.41	26735
814.551	26777
814.692	26967
814.833	26762
814.974	26804
815.115	26925
815.256	26777
815.397	26720
815.539	26781
815.68	26712
815.821	26663
815.962	26659
816.103	26804
816.244	26499
816.385	26480
816.526	26537
816.666	26225
816.807	26153
816.948	26282
817.089	26381
817.23	26244
817.371	26119
817.512	26088
817.653	26130
817.793	25966
817.934	26164
818.075	26229
818.216	26164
818.356	26100
818.497	26073
818.638	25982
818.778	25944
818.919	25917
819.06	25978
819.2	25944
819.341	26054
819.481	26050
819.622	26294
819.762	26476
819.903	26393
820.043	26317
820.184	26412
820.324	26199
820.465	26263
820.605	26199
820.746	26259
820.886	26107
821.026	26161
821.167	26214
821.307	26263
821.447	26024
821.588	26043
821.728	25879
821.868	25830
822.008	25639
822.149	25677
822.289	25597
822.429	25377
822.569	25206
822.709	25304
822.849	25088
822.99	25148
823.13	24996
823.27	25042
823.41	24909
823.55	24890
823.69	24992
823.83	24996
823.97	24878
824.11	24715
824.25	24585
824.389	24787
824.529	24817
824.669	24711
824.809	25027
824.949	24768
825.089	24856
825.228	24814
825.368	24589
825.508	24620
825.648	24620
825.787	24661
825.927	24814
826.067	24654
826.206	24551
826.346	24642
826.485	24486
826.625	24646
826.765	24620
826.904	24601
827.044	24213
827.183	24433
827.323	24186
827.462	24372
827.601	24323
827.741	24315
827.88	24330
828.02	24197
828.159	24273
828.298	24201
828.437	24285
828.577	24224
828.716	24414
828.855	24171
828.994	24045
829.134	23946
829.273	24076
829.412	23885
829.551	23836
829.69	23992
829.829	24068
829.968	24091
830.107	24102
830.246	24129
830.385	23878
830.524	23802
830.663	23874
830.802	23882
830.941	23619
831.08	23581
831.219	23627
831.357	23581
831.496	23836
831.635	23707
831.774	23589
831.913	23467
832.051	23433
832.19	23463
832.329	23452
832.467	23280
832.606	23235
832.744	23311
832.883	23124
833.022	23216
833.16	23231
833.299	23269
833.437	23334
833.576	23364
833.714	23334
833.852	23414
833.991	23379
834.129	23463
834.267	23406
834.406	23280
834.544	23482
834.682	23372
834.821	23368
834.959	23661
835.097	23265
835.235	23524
835.373	23311
835.511	23189
835.65	23208
835.788	23288
835.926	23052
836.064	23044
836.202	22995
836.34	23185
836.478	23265
836.615	23193
836.753	23174
836.891	23322
837.029	23227
837.167	23178
837.305	23083
837.443	23014
837.58	23029
837.718	23117
837.856	23098
837.993	23014
838.131	22896
838.269	22877
838.406	22911
838.544	22919
838.681	22710
838.819	22626
838.956	22436
839.094	22565
839.231	22573
839.369	22805
839.506	22862
839.643	22729
839.781	22557
839.918	22417
840.055	22455
840.193	22432
840.33	22440
840.467	22402
840.604	22519
840.742	22675
840.879	22337
841.016	22402
841.153	22322
841.29	22630
841.427	22489
841.564	22348
841.701	22466
841.838	22432
841.975	22322
842.112	22436
842.249	22409
842.385	22196
842.522	22474
842.659	22291
842.796	22124
842.933	22192
843.069	22211
843.206	22196
843.343	22188
843.479	22173
843.616	22074
843.752	21987
843.889	21956
844.025	22032
844.162	21922
844.298	22093
844.435	22006
844.571	21907
844.708	22006
844.844	22013
844.98	22036
845.117	22147
845.253	21892
845.389	21880
845.525	21922
845.661	21930
845.798	21694
845.934	21793
846.07	21732
846.206	21701
846.342	21789
846.478	21671
846.614	21488
846.75	21332
846.886	21473
847.022	21496
847.158	21485
847.294	21344
847.429	21545
847.565	21408
847.701	21663
847.837	21256
847.972	21062
848.108	21302
848.244	21230
848.379	21009
848.515	20986
848.65	20971
848.786	20982
848.921	21116
849.057	21009
849.192	21142
849.328	21039
849.463	21051
849.598	20887
849.734	20880
849.869	20830
850.004	20861
850.14	20857
850.275	20830
850.41	20762
850.545	20735
850.68	20754
850.815	20868
850.95	20765
851.085	20921
851.22	20849
851.355	20769
851.49	20864
851.625	20800
851.76	20849
851.895	20712
852.03	20788
852.165	20853
852.299	20868
852.434	20880
852.569	20807
852.703	20731
852.838	20861
852.973	20963
853.107	20956
853.242	20727
853.376	20670
853.511	20541
853.645	20609
853.78	20625
853.914	20663
854.048	20667
854.183	20682
854.317	20746
854.451	20807
854.585	20545
854.72	20560
854.854	20727
854.988	20476
855.122	20648
855.256	20545
855.39	20636
855.524	20636
855.658	20739
855.792	20686
855.926	20644
856.06	20708
856.194	20651
856.327	20617
856.461	20533
856.595	20564
856.729	20602
856.862	20625
856.996	20583
857.13	20693
857.263	20815
857.397	20773
857.53	20526
857.664	20629
857.797	20579
857.931	20826
858.064	20678
858.197	20777
858.331	20617
858.464	20613
858.597	20511
858.731	20617
858.864	20613
858.997	20526
859.13	20716
859.263	20697
859.396	20651
859.529	20651
859.662	20564
859.795	20598
859.928	20663
860.061	20895
860.194	20899
860.327	20613
860.46	20667
860.592	20693
860.725	20727
860.858	20693
860.99	20674
861.123	20488
861.256	20621
861.388	20609
861.521	21252
861.653	20514
861.786	20461
861.918	20457
862.05	20461
862.183	20606
862.315	20492
862.447	20556
862.58	20564
862.712	20332
862.844	20313
862.976	20446
863.108	20393
863.24	20815
863.372	20256
863.504	20358
863.636	20351
863.768	20412
863.9	20347
864.032	20195
864.164	20324
864.296	20351
864.428	20511
864.559	20499
864.691	20446
864.823	20366
864.954	20199
865.086	20347
865.217	20358
865.349	20168
865.48	20183
865.612	20305
865.743	20393
865.875	20271
866.006	20176
866.137	20187
866.269	20332
866.4	20229
866.531	20237
866.662	20210
866.793	20172
866.924	20107
867.055	20233
867.186	20210
867.317	20149
867.448	20077
867.579	20149
867.71	20153
867.841	20142
867.972	20206
868.103	20180
868.233	20248
868.364	20237
868.495	20180
868.625	20351
868.756	20530
868.886	20457
869.017	20343
869.147	20655
869.278	20644
869.408	20408
869.539	20423
869.669	20415
869.799	20412
869.929	20541
870.06	20427
870.19	20769
870.32	20705
870.45	20712
870.58	20834
870.71	20933
870.84	20842
870.97	20899
871.1	20891
871.23	21005
871.36	21096
871.489	20864
871.619	21062
871.749	20998
871.879	20929
872.008	21093
872.138	21214
872.267	21051
872.397	20910
872.526	20887
872.656	20899
872.785	20868
872.915	21074
873.044	21100
873.173	21013
873.303	21211
873.432	20937
873.561	21237
873.69	21169
873.819	21066
873.948	21116
874.077	20982
874.206	21077
874.335	20963
874.464	21104
874.593	21275
874.722	21207
874.851	21382
874.979	21241
875.108	21313
875.237	21207
875.365	21207
875.494	21192
875.623	21344
875.751	21230
875.88	21283
876.008	21469
876.136	21363
876.265	21690
876.393	21949
876.521	21720
876.65	21694
876.778	21709
876.906	21667
877.034	21545
877.162	21614
877.29	21564
877.418	21603
877.546	21595
877.674	21576
877.802	21599
877.93	21641
878.058	21667
878.185	21523
878.313	21568
878.441	21614
878.568	21481
878.696	21591
878.824	21781
878.951	21648
879.079	21728
879.206	22063
879.333	21774
879.461	21663
879.588	21766
879.715	21827
879.842	21983
879.97	21690
880.097	21378
880.224	21439
880.351	21431
880.478	21275
880.605	21378
880.732	21481
880.859	21614
880.986	21500
881.112	21359
881.239	21382
881.366	21165
881.493	21112
881.619	21096
881.746	21154
881.872	21093
881.999	21062
882.125	20971
882.252	21009
882.378	21028
882.505	21138
882.631	20906
882.757	20750
882.883	20762
883.01	20686
883.136	20629
883.262	20754
883.388	20621
883.514	20727
883.64	20750
883.766	20613
883.892	20511
884.018	20511
884.143	20667
884.269	20845
884.395	20370
884.52	20370
884.646	20400
884.772	20320
884.897	20221
885.023	20389
885.148	20518
885.274	20507
885.399	20396
885.524	20290
885.65	20454
885.775	20484
885.9	20317
886.025	20533
886.15	20442
886.275	20419
886.4	20347
886.525	20343
886.65	20294
886.775	20400
886.9	20434
887.025	20625
887.149	20393
887.274	20191
887.399	20176
887.523	20218
887.648	20111
887.773	20096
887.897	20233
888.021	20187
888.146	20096
888.27	20286
888.395	20183
888.519	20339
888.643	20248
888.767	20191
888.891	20050
889.015	19917
889.139	19925
889.263	19963
889.387	19989
889.511	20164
889.635	20183
889.759	20039
889.883	19871
890.006	19936
890.13	20001
890.254	19852
890.377	19902
890.501	19757
890.624	19677
890.748	19734
890.871	19582
890.995	19597
891.118	19525
891.241	19613
891.364	19605
891.488	19719
891.611	19575
891.734	19571
891.857	19613
891.98	19651
892.103	19582
892.226	19651
892.349	19537
892.471	19392
892.594	19438
892.717	19480
892.839	19464
892.962	19483
893.085	19525
893.207	19373
893.33	19419
893.452	19388
893.575	19655
893.697	19422
893.819	19670
893.941	19772
894.064	19647
894.186	19445
894.308	19483
894.43	19510
894.552	19582
894.674	19563
894.796	19430
894.918	19388
895.04	19540
895.161	19529
895.283	19567
895.405	19354
895.526	19438
895.648	19514
895.769	19468
895.891	19464
896.012	19578
896.134	19586
896.255	19537
896.376	19430
896.498	19415
896.619	19582
896.74	19495
896.861	19567
896.982	19830
897.103	19944
897.224	19685
897.345	19674
897.466	19727
897.587	19807
897.708	19719
897.828	19677
897.949	19647
898.07	19472
898.19	19723
898.311	19871
898.431	19674
898.552	19795
898.672	19803
898.792	19696
898.913	19742
899.033	19715
899.153	19556
899.273	19274
899.393	19472
899.513	19559
899.633	19525
899.753	19632
899.873	19369
899.993	19502
900.113	19464
900.232	19358
900.352	19438
900.472	19403
900.591	19304
900.711	19297
900.83	19301
900.95	19285
901.069	19339
901.189	19164
901.308	18985
901.427	18825
901.546	18863
901.665	18894
901.784	18973
901.904	18650
902.023	18700
902.141	18445
902.26	18361
902.379	18418
902.498	18292
902.617	18365
902.735	18407
902.854	18483
902.973	18197
903.091	17988
903.21	17999
903.328	17984
903.446	17920
903.565	17885
903.683	17828
903.801	17775
903.919	17889
904.038	17874
904.156	17718
904.274	17642
904.392	17535
904.51	17608
904.627	17619
904.745	17672
904.863	17691
904.981	17444
905.098	17372
905.216	17391
905.334	17398
905.451	17440
905.569	17193
905.686	17398
905.803	17258
905.921	16972
906.038	17246
906.155	17200
906.272	16972
906.389	16953
906.506	16873
906.623	16877
906.74	16869
906.857	16774
906.974	16748
907.091	16919
907.208	16953
907.324	16873
907.441	16763
907.557	16634
907.674	16523
907.79	16554
907.907	16489
908.023	16721
908.139	16527
908.256	16474
908.372	16424
908.488	16409
908.604	16299
908.72	16226
908.836	16344
908.952	16344
909.068	16261
909.184	16356
909.3	16303
909.415	16398
909.531	16291
909.647	16093
909.762	16006
909.878	16021
909.993	16158
910.108	16082
910.224	15987
910.339	16040
910.454	15827
910.57	15838
910.685	15785
910.8	16055
910.915	15930
911.03	15812
911.145	15743
911.259	15568
911.374	15561
911.489	15530
911.604	15542
911.718	15447
911.833	15420
911.947	15230
912.062	15302
912.176	15389
912.291	15416
912.405	15428
912.519	15572
912.633	15606
912.748	15458
912.862	15393
912.976	15100
913.09	15097
913.204	15142
913.318	15195
913.431	15260
913.545	15226
913.659	15336
913.772	15169
913.886	15028
914	14941
914.113	15055
914.226	14994
914.34	15085
914.453	14918
914.566	15005
914.68	14891
914.793	14952
914.906	14750
915.019	14514
915.132	14617
915.245	14545
915.358	14560
915.47	14598
915.583	14636
915.696	14556
915.809	14746
915.921	14655
916.034	14488
916.146	14522
916.259	14568
916.371	14610
916.483	14556
916.595	14412
916.708	14530
916.82	14419
916.932	14423
917.044	14393
917.156	14358
917.268	14294
917.38	14298
917.491	14317
917.603	14343
917.715	14404
917.826	14275
917.938	14199
918.049	14092
918.161	14172
918.272	14320
918.384	14339
918.495	14259
918.606	14107
918.717	14046
918.828	14046
918.939	14084
919.05	14043
919.161	14081
919.272	13883
919.383	13909
919.494	14065
919.604	14221
919.715	14130
919.826	13890
919.936	14035
920.047	14138
920.157	14001
920.267	14115
920.378	13993
920.488	13959
920.598	14153
920.708	14298
920.818	14172
920.928	14157
921.038	14355
921.148	14267
921.258	13993
921.368	13890
921.477	13769
921.587	13776
921.697	13655
921.806	13780
921.916	13662
922.025	13544
922.134	13487
922.244	13415
922.353	13487
922.462	13293
922.571	13297
922.68	13149
922.789	13065
922.898	13137
923.007	13000
923.116	13091
923.224	13046
923.333	13095
923.442	12993
923.55	12856
923.659	12958
923.767	13031
923.876	12802
923.984	12878
924.092	12787
924.201	12833
924.309	12833
924.417	12783
924.525	12688
924.633	12760
924.741	13499
924.849	12506
924.956	12597
925.064	12574
925.172	12490
925.279	12498
925.387	12540
925.494	12437
925.602	12616
925.709	12547
925.816	12353
925.924	12445
926.031	12623
926.138	12467
926.245	12604
926.352	12388
926.459	12486
926.566	12547
926.673	12445
926.779	12414
926.886	12311
926.993	12106
927.099	12136
927.206	12026
927.312	12034
927.419	12121
927.525	12098
927.631	12022
927.737	12041
927.843	11999
927.95	11885
928.056	11889
928.162	11893
928.267	11954
928.373	12563
928.479	12076
928.585	11783
928.69	11935
928.796	11912
928.901	11817
929.007	11634
929.112	11828
929.218	11745
929.323	11760
929.428	11630
929.533	11813
929.638	11638
929.743	11615
929.848	11665
929.953	11672
930.058	11486
930.163	11356
930.267	11395
930.372	11463
930.477	11349
930.581	11543
930.685	11398
930.79	11201
930.894	11242
930.998	11299
931.103	11292
931.207	11143
931.311	10854
931.415	10850
931.519	10717
931.623	10668
