Data from test_V78500241_229.txt Node
Date: Fri Mar 25 15:11:27 CST 2022
User: usil
Spectrometer: V785-0024
Trigger mode: 0
Integration Time (sec): 4.000000E-1
Scans to average: 1
Nonlinearity correction enabled: false
Boxcar width: 0
Storing dark spectrum: false
XAxis mode: Wavelengths
Number of Pixels in Spectrum: 1024
>>>>>Begin Spectral Data<<<<<
801.071	27755
801.214	27751
801.356	27701
801.499	27530
801.641	27382
801.783	27447
801.926	27416
802.068	27344
802.211	27287
802.353	27226
802.496	27195
802.638	26956
802.78	27009
802.923	26887
803.065	26891
803.208	26975
803.35	27093
803.492	27157
803.635	27169
803.777	27028
803.919	27150
804.061	27405
804.204	27131
804.346	27028
804.488	27001
804.63	27157
804.773	26891
804.915	26975
805.057	27104
805.199	27150
805.341	27001
805.483	27184
805.626	27150
805.768	27112
805.91	27195
806.052	27218
806.194	27135
806.336	27325
806.478	27176
806.62	27119
806.762	27374
806.904	27587
807.046	27568
807.188	27603
807.33	27637
807.472	27694
807.614	27580
807.756	27374
807.898	27477
808.04	27405
808.182	27389
808.324	27534
808.465	27405
808.607	27595
808.749	27751
808.891	27823
809.033	27979
809.174	27972
809.316	27686
809.458	27793
809.6	27622
809.741	27880
809.883	27876
810.025	28006
810.166	27979
810.308	27987
810.45	27960
810.591	27930
810.733	27800
810.875	27629
811.016	27618
811.158	27606
811.299	27671
811.441	27842
811.582	27804
811.724	27656
811.865	27690
812.007	27663
812.148	27686
812.29	27720
812.431	27823
812.573	28002
812.714	28124
812.855	28219
812.997	28299
813.138	28367
813.279	28337
813.421	28268
813.562	28131
813.703	28124
813.845	27892
813.986	27785
814.127	27485
814.268	27348
814.41	27420
814.551	27348
814.692	27481
814.833	27268
814.974	27173
815.115	27233
815.256	27222
815.397	27192
815.539	27252
815.68	27005
815.821	27024
815.962	27089
816.103	27036
816.244	27036
816.385	26921
816.526	26804
816.666	26697
816.807	26469
816.948	26746
817.089	26758
817.23	26617
817.371	26526
817.512	26549
817.653	26446
817.793	26499
817.934	26606
818.075	26587
818.216	26518
818.356	26423
818.497	26396
818.638	26161
818.778	26271
818.919	26210
819.06	26336
819.2	26282
819.341	26533
819.481	26469
819.622	26644
819.762	26800
819.903	26716
820.043	26674
820.184	26670
820.324	26640
820.465	26571
820.605	26518
820.746	26613
820.886	26332
821.026	26629
821.167	26507
821.307	26613
821.447	26324
821.588	26370
821.728	26153
821.868	26115
822.008	25993
822.149	25769
822.289	25898
822.429	25624
822.569	25586
822.709	25506
822.849	25483
822.99	25377
823.13	25377
823.27	25213
823.41	25255
823.55	25126
823.69	25164
823.83	25206
823.97	25103
824.11	24958
824.25	24951
824.389	24954
824.529	25148
824.669	24954
824.809	25072
824.949	25080
825.089	25183
825.228	25027
825.368	24829
825.508	24817
825.648	24932
825.787	24943
825.927	25012
826.067	24878
826.206	24764
826.346	24817
826.485	24954
826.625	24817
826.765	25057
826.904	24875
827.044	24574
827.183	24673
827.323	24388
827.462	24578
827.601	24582
827.741	24528
827.88	24483
828.02	24407
828.159	24448
828.298	24509
828.437	24734
828.577	24418
828.716	24730
828.855	24380
828.994	24330
829.134	24319
829.273	24174
829.412	24125
829.551	24102
829.69	24155
829.829	24380
829.968	24346
830.107	24395
830.246	24262
830.385	24114
830.524	24095
830.663	24171
830.802	23992
830.941	23729
831.08	23786
831.219	23931
831.357	23923
831.496	23954
831.635	23874
831.774	23691
831.913	23642
832.051	23630
832.19	23691
832.329	23490
832.467	23493
832.606	23516
832.744	23501
832.883	23395
833.022	23379
833.16	23501
833.299	23547
833.437	23383
833.576	23509
833.714	23562
833.852	23570
833.991	23509
834.129	23554
834.267	23558
834.406	23516
834.544	23490
834.682	23440
834.821	23547
834.959	23680
835.097	23349
835.235	23512
835.373	23414
835.511	23581
835.65	23391
835.788	23307
835.926	23254
836.064	23121
836.202	23083
836.34	23368
836.478	23486
836.615	23296
836.753	23113
836.891	23391
837.029	23337
837.167	23284
837.305	23334
837.443	23277
837.58	23204
837.718	23250
837.856	23128
837.993	23098
838.131	23200
838.269	23090
838.406	23117
838.544	23109
838.681	22873
838.819	22736
838.956	22573
839.094	22672
839.231	22725
839.369	22774
839.506	23121
839.643	22847
839.781	22596
839.918	22649
840.055	22664
840.193	22611
840.33	22516
840.467	22497
840.604	22516
840.742	22835
840.879	22519
841.016	22519
841.153	22421
841.29	22649
841.427	22474
841.564	22596
841.701	22485
841.838	22493
841.975	22485
842.112	22500
842.249	22447
842.385	22249
842.522	22432
842.659	22299
842.796	22261
842.933	22314
843.069	22120
843.206	22234
843.343	22356
843.479	22337
843.616	22185
843.752	21991
843.889	21972
844.025	22219
844.162	22032
844.298	22036
844.435	21956
844.571	22040
844.708	22093
844.844	22162
844.98	22246
845.117	22070
845.253	21941
845.389	21907
845.525	22074
845.661	21869
845.798	21747
845.934	21804
846.07	21743
846.206	21774
846.342	21892
846.478	21762
846.614	21576
846.75	21393
846.886	21519
847.022	21496
847.158	21564
847.294	21481
847.429	21538
847.565	21412
847.701	21762
847.837	21260
847.972	21222
848.108	21287
848.244	21344
848.379	21150
848.515	21055
848.65	20990
848.786	21036
848.921	21108
849.057	21051
849.192	21135
849.328	21112
849.463	21192
849.598	20948
849.734	20861
849.869	20906
850.004	20838
850.14	20967
850.275	20887
850.41	20613
850.545	20746
850.68	20758
850.815	20872
850.95	20739
851.085	20906
851.22	20750
851.355	20788
851.49	20689
851.625	20655
851.76	20739
851.895	20659
852.03	20693
852.165	20853
852.299	20880
852.434	20910
852.569	20792
852.703	20861
852.838	20712
852.973	20876
853.107	20956
853.242	20785
853.376	20651
853.511	20571
853.645	20518
853.78	20739
853.914	20613
854.048	20651
854.183	20537
854.317	20583
854.451	20735
854.585	20682
854.72	20712
854.854	20674
854.988	20499
855.122	20644
855.256	20511
855.39	20674
855.524	20663
855.658	20636
855.792	20575
855.926	20625
856.06	20648
856.194	20739
856.327	20670
856.461	20617
856.595	20541
856.729	20705
856.862	20724
856.996	20514
857.13	20609
857.263	20667
857.397	20606
857.53	20621
857.664	20659
857.797	20693
857.931	20765
858.064	20724
858.197	20746
858.331	20556
858.464	20514
858.597	20560
858.731	20514
858.864	20617
858.997	20438
859.13	20579
859.263	20518
859.396	20560
859.529	20568
859.662	20533
859.795	20530
859.928	20724
860.061	20583
860.194	20735
860.327	20724
860.46	20689
860.592	20590
860.725	20667
860.858	20632
860.99	20674
861.123	20518
861.256	20514
861.388	20469
861.521	21230
861.653	20412
861.786	20400
861.918	20431
862.05	20507
862.183	20503
862.315	20670
862.447	20587
862.58	20442
862.712	20286
862.844	20225
862.976	20298
863.108	20305
863.24	20712
863.372	20122
863.504	20305
863.636	20282
863.768	20324
863.9	20237
864.032	20282
864.164	20202
864.296	20324
864.428	20385
864.559	20343
864.691	20374
864.823	20252
864.954	20362
865.086	20221
865.217	20210
865.349	20062
865.48	20191
865.612	20225
865.743	20275
865.875	20168
866.006	20077
866.137	20191
866.269	20027
866.4	20237
866.531	20103
866.662	20138
866.793	20191
866.924	20244
867.055	20229
867.186	20168
867.317	20126
867.448	20024
867.579	20065
867.71	19970
867.841	19997
867.972	20176
868.103	20092
868.233	20183
868.364	20172
868.495	20187
868.625	20328
868.756	20438
868.886	20271
869.017	20324
869.147	20362
869.278	20457
869.408	20298
869.539	20423
869.669	20332
869.799	20358
869.929	20594
870.06	20427
870.19	20686
870.32	20625
870.45	20724
870.58	20765
870.71	20785
870.84	20811
870.97	20815
871.1	20872
871.23	20823
871.36	20986
871.489	20796
871.619	20891
871.749	21005
871.879	21013
872.008	20994
872.138	20941
872.267	21070
872.397	20845
872.526	20785
872.656	20811
872.785	20727
872.915	20914
873.044	20944
873.173	20971
873.303	21036
873.432	21055
873.561	21093
873.69	21032
873.819	21077
873.948	21036
874.077	20967
874.206	20941
874.335	20971
874.464	21032
874.593	21252
874.722	21173
874.851	21138
874.979	21264
875.108	21313
875.237	21207
875.365	21108
875.494	21230
875.623	21256
875.751	21085
875.88	21127
876.008	21370
876.136	21291
876.265	21762
876.393	21656
876.521	21603
876.65	21671
876.778	21641
876.906	21549
877.034	21534
877.162	21435
877.29	21488
877.418	21534
877.546	21625
877.674	21530
877.802	21572
877.93	21766
878.058	21682
878.185	21428
878.313	21473
878.441	21568
878.568	21568
878.696	21511
878.824	21625
878.951	21663
879.079	21603
879.206	21804
879.333	21778
879.461	21652
879.588	21618
879.715	21694
879.842	21907
879.97	21656
880.097	21424
880.224	21424
880.351	21477
880.478	21408
880.605	21374
880.732	21405
880.859	21660
880.986	21348
881.112	21477
881.239	21332
881.366	21207
881.493	21001
881.619	20956
881.746	21085
881.872	21070
881.999	20864
882.125	20933
882.252	20990
882.378	20948
882.505	20990
882.631	20861
882.757	20686
882.883	20804
883.01	20617
883.136	20644
883.262	20651
883.388	20499
883.514	20716
883.64	20629
883.766	20735
883.892	20488
884.018	20522
884.143	20708
884.269	20773
884.395	20469
884.52	20294
884.646	20324
884.772	20195
884.897	20385
885.023	20461
885.148	20408
885.274	20499
885.399	20419
885.524	20362
885.65	20374
885.775	20294
885.9	20309
886.025	20389
886.15	20377
886.275	20298
886.4	20248
886.525	20381
886.65	20298
886.775	20248
886.9	20507
887.025	20590
887.149	20298
887.274	20172
887.399	20069
887.523	20221
887.648	20164
887.773	20092
887.897	20100
888.021	20202
888.146	20005
888.27	20221
888.395	20298
888.519	20130
888.643	20142
888.767	20088
888.891	19951
889.015	19944
889.139	19955
889.263	19750
889.387	20001
889.511	20168
889.635	20016
889.759	19849
889.883	19883
890.006	19917
890.13	20107
890.254	19875
890.377	19734
890.501	19681
890.624	19514
890.748	19750
890.871	19556
890.995	19457
891.118	19411
891.241	19575
891.364	19548
891.488	19563
891.611	19525
891.734	19578
891.857	19499
891.98	19533
892.103	19567
892.226	19491
892.349	19476
892.471	19255
892.594	19419
892.717	19491
892.839	19358
892.962	19308
893.085	19445
893.207	19529
893.33	19365
893.452	19369
893.575	19510
893.697	19468
893.819	19674
893.941	19556
894.064	19677
894.186	19289
894.308	19381
894.43	19605
894.552	19540
894.674	19533
894.796	19445
894.918	19403
895.04	19354
895.161	19460
895.283	19384
895.405	19285
895.526	19308
895.648	19396
895.769	19510
895.891	19468
896.012	19411
896.134	19556
896.255	19472
896.376	19365
896.498	19445
896.619	19464
896.74	19510
896.861	19514
896.982	19830
897.103	19917
897.224	19780
897.345	19628
897.466	19548
897.587	19567
897.708	19693
897.828	19776
897.949	19499
898.07	19495
898.19	19620
898.311	19715
898.431	19594
898.552	19685
898.672	19753
898.792	19769
898.913	19620
899.033	19419
899.153	19468
899.273	19293
899.393	19282
899.513	19354
899.633	19324
899.753	19548
899.873	19259
899.993	19392
900.113	19476
900.232	19388
900.352	19308
900.472	19247
900.591	19228
900.711	19213
900.83	19247
900.95	19316
901.069	19213
901.189	19053
901.308	18920
901.427	18787
901.546	18787
901.665	18810
901.784	18753
901.904	18741
902.023	18547
902.141	18391
902.26	18330
902.379	18437
902.498	18327
902.617	18239
902.735	18338
902.854	18251
902.973	18171
903.091	17977
903.21	17992
903.328	17965
903.446	17912
903.565	17836
903.683	17691
903.801	17653
903.919	17634
904.038	17668
904.156	17604
904.274	17608
904.392	17558
904.51	17562
904.627	17512
904.745	17615
904.863	17486
904.981	17349
905.098	17132
905.216	17189
905.334	17235
905.451	17231
905.569	17269
905.686	17307
905.803	17128
905.921	16953
906.038	17147
906.155	17117
906.272	16972
906.389	16927
906.506	16858
906.623	16755
906.74	16858
906.857	16584
906.974	16668
907.091	16847
907.208	16881
907.324	16725
907.441	16713
907.557	16470
907.674	16474
907.79	16348
907.907	16500
908.023	16478
908.139	16451
908.256	16344
908.372	16333
908.488	16303
908.604	16207
908.72	16109
908.836	16207
908.952	16139
909.068	16147
909.184	16162
909.3	16112
909.415	16166
909.531	16181
909.647	15819
909.762	15743
909.878	15808
909.993	15899
910.108	15956
910.224	15850
910.339	15968
910.454	15739
910.57	15652
910.685	15561
910.8	15899
910.915	15808
911.03	15671
911.145	15523
911.259	15412
911.374	15458
911.489	15424
911.604	15294
911.718	15157
911.833	15275
911.947	15043
912.062	15020
912.176	15093
912.291	15199
912.405	15142
912.519	15317
912.633	15428
912.748	15192
912.862	15150
912.976	15032
913.09	14864
913.204	14925
913.318	14948
913.431	15020
913.545	15055
913.659	15214
913.772	14990
913.886	14838
914	14792
914.113	14994
914.226	14944
914.34	14941
914.453	14765
914.566	14937
914.68	14708
914.793	14720
914.906	14533
915.019	14522
915.132	14374
915.245	14533
915.358	14419
915.47	14427
915.583	14427
915.696	14480
915.809	14507
915.921	14648
916.034	14412
916.146	14343
916.259	14351
916.371	14450
916.483	14358
916.595	14339
916.708	14381
916.82	14278
916.932	14263
917.044	14256
917.156	14351
917.268	14077
917.38	14149
917.491	14069
917.603	14149
917.715	14271
917.826	14275
917.938	14142
918.049	13989
918.161	13993
918.272	14332
918.384	14237
918.495	14005
918.606	13932
918.717	13894
918.828	13986
918.939	13917
919.05	13860
919.161	13879
919.272	13788
919.383	13723
919.494	13894
919.604	14065
919.715	13837
919.826	13799
919.936	13830
920.047	13955
920.157	14012
920.267	14138
920.378	13913
920.488	13814
920.598	14005
920.708	14134
920.818	14096
920.928	13986
921.038	14221
921.148	14077
921.258	13681
921.368	13715
921.477	13651
921.587	13632
921.697	13472
921.806	13655
921.916	13540
922.025	13263
922.134	13209
922.244	13209
922.353	13175
922.462	13118
922.571	13152
922.68	13012
922.789	12939
922.898	13069
923.007	12913
923.116	12981
923.224	12928
923.333	12882
923.442	12791
923.55	12707
923.659	12810
923.767	12871
923.876	12654
923.984	12814
924.092	12574
924.201	12730
924.309	12692
924.417	12662
924.525	12593
924.633	12635
924.741	13346
924.849	12448
924.956	12494
925.064	12357
925.172	12323
925.279	12323
925.387	12467
925.494	12422
925.602	12460
925.709	12338
925.816	12319
925.924	12384
926.031	12410
926.138	12262
926.245	12262
926.352	12129
926.459	12376
926.566	12388
926.673	12197
926.779	12125
926.886	12129
926.993	12030
927.099	11999
927.206	11878
927.312	11901
927.419	12019
927.525	11969
927.631	11961
927.737	11809
927.843	11802
927.95	11703
928.056	11794
928.162	11836
928.267	11824
928.373	12353
928.479	11851
928.585	11600
928.69	11634
928.796	11775
928.901	11627
929.007	11528
929.112	11642
929.218	11589
929.323	11509
929.428	11486
929.533	11672
929.638	11376
929.743	11520
929.848	11509
929.953	11467
930.058	11406
930.163	11181
930.267	11212
930.372	11414
930.477	11204
930.581	11402
930.685	11299
930.79	11102
930.894	11136
930.998	11086
931.103	11201
931.207	10824
931.311	10797
931.415	10679
931.519	10558
931.623	10466
