Data from test_V78500241_2892.txt Node
Date: Fri Mar 25 15:29:59 CST 2022
User: usil
Spectrometer: V785-0024
Trigger mode: 0
Integration Time (sec): 4.000000E-1
Scans to average: 1
Nonlinearity correction enabled: false
Boxcar width: 0
Storing dark spectrum: false
XAxis mode: Wavelengths
Number of Pixels in Spectrum: 1024
>>>>>Begin Spectral Data<<<<<
801.071	27214
801.214	27116
801.356	27047
801.499	27032
801.641	26807
801.783	26800
801.926	26689
802.068	26678
802.211	26781
802.353	26674
802.496	26575
802.638	26385
802.78	26415
802.923	26324
803.065	26332
803.208	26343
803.35	26351
803.492	26602
803.635	26621
803.777	26503
803.919	26712
804.061	26960
804.204	26587
804.346	26716
804.488	26575
804.63	26613
804.773	26450
804.915	26621
805.057	26674
805.199	26682
805.341	26678
805.483	26674
805.626	26674
805.768	26674
805.91	26632
806.052	26640
806.194	26705
806.336	26701
806.478	26739
806.62	26655
806.762	26868
806.904	26994
807.046	27230
807.188	27268
807.33	27222
807.472	27203
807.614	27032
807.756	27176
807.898	26937
808.04	26826
808.182	26963
808.324	26876
808.465	26925
808.607	27192
808.749	27325
808.891	27511
809.033	27275
809.174	27386
809.316	27382
809.458	27351
809.6	27370
809.741	27443
809.883	27466
810.025	27728
810.166	27583
810.308	27648
810.45	27530
810.591	27534
810.733	27412
810.875	27199
811.016	27028
811.158	27203
811.299	27450
811.441	27389
811.582	27431
811.724	27298
811.865	27245
812.007	27157
812.148	27154
812.29	27405
812.431	27469
812.573	27667
812.714	27610
812.855	27652
812.997	27922
813.138	27998
813.279	27949
813.421	27888
813.562	27694
813.703	27675
813.845	27504
813.986	27169
814.127	27055
814.268	26994
814.41	27043
814.551	26845
814.692	26929
814.833	26940
814.974	26940
815.115	27047
815.256	26811
815.397	26845
815.539	27001
815.68	26773
815.821	26727
815.962	26777
816.103	26575
816.244	26613
816.385	26427
816.526	26571
816.666	26252
816.807	26233
816.948	26351
817.089	26343
817.23	26256
817.371	26161
817.512	26161
817.653	26195
817.793	26145
817.934	26187
818.075	26339
818.216	26221
818.356	26233
818.497	26088
818.638	25883
818.778	25887
818.919	26005
819.06	25993
819.2	26119
819.341	26301
819.481	26199
819.622	26377
819.762	26549
819.903	26453
820.043	26423
820.184	26419
820.324	26370
820.465	26423
820.605	26446
820.746	26248
820.886	26290
821.026	26240
821.167	26400
821.307	26339
821.447	26259
821.588	26065
821.728	25989
821.868	25898
822.008	25662
822.149	25693
822.289	25734
822.429	25445
822.569	25354
822.709	25392
822.849	25103
822.99	25095
823.13	25141
823.27	25110
823.41	25072
823.55	24928
823.69	25069
823.83	24939
823.97	25012
824.11	24817
824.25	24696
824.389	24814
824.529	24928
824.669	24814
824.809	24966
824.949	24932
825.089	24890
825.228	24821
825.368	24681
825.508	24597
825.648	24627
825.787	24696
825.927	24798
826.067	24730
826.206	24612
826.346	24825
826.485	24745
826.625	24582
826.765	24696
826.904	24776
827.044	24502
827.183	24544
827.323	24391
827.462	24407
827.601	24243
827.741	24304
827.88	24422
828.02	24330
828.159	24407
828.298	24395
828.437	24437
828.577	24285
828.716	24384
828.855	24258
828.994	24064
829.134	24110
829.273	24068
829.412	24018
829.551	24095
829.69	24018
829.829	24060
829.968	24205
830.107	24106
830.246	24038
830.385	23977
830.524	23939
830.663	23878
830.802	23798
830.941	23714
831.08	23581
831.219	23866
831.357	23748
831.496	23874
831.635	23729
831.774	23486
831.913	23436
832.051	23353
832.19	23448
832.329	23433
832.467	23200
832.606	23254
832.744	23273
832.883	23360
833.022	23284
833.16	23417
833.299	23395
833.437	23360
833.576	23349
833.714	23356
833.852	23455
833.991	23501
834.129	23516
834.267	23539
834.406	23311
834.544	23512
834.682	23429
834.821	23288
834.959	23383
835.097	23254
835.235	23425
835.373	23311
835.511	23315
835.65	23307
835.788	23242
835.926	23113
836.064	22987
836.202	23121
836.34	23246
836.478	23311
836.615	23117
836.753	23246
836.891	23292
837.029	23227
837.167	23143
837.305	23143
837.443	23022
837.58	23048
837.718	23124
837.856	23185
837.993	23071
838.131	23140
838.269	22953
838.406	23052
838.544	22930
838.681	22744
838.819	22660
838.956	22497
839.094	22622
839.231	22596
839.369	22687
839.506	22957
839.643	22767
839.781	22596
839.918	22485
840.055	22493
840.193	22508
840.33	22432
840.467	22485
840.604	22493
840.742	22911
840.879	22413
841.016	22466
841.153	22466
841.29	22573
841.427	22447
841.564	22478
841.701	22516
841.838	22402
841.975	22436
842.112	22462
842.249	22428
842.385	22215
842.522	22481
842.659	22417
842.796	22223
842.933	22352
843.069	22367
843.206	22226
843.343	22257
843.479	22303
843.616	22303
843.752	22051
843.889	22048
844.025	22196
844.162	21987
844.298	22124
844.435	21979
844.571	21998
844.708	21987
844.844	22291
844.98	22284
845.117	22063
845.253	21998
845.389	21819
845.525	22013
845.661	21800
845.798	21717
845.934	21816
846.07	21713
846.206	21770
846.342	21793
846.478	21709
846.614	21443
846.75	21492
846.886	21492
847.022	21450
847.158	21450
847.294	21450
847.429	21466
847.565	21492
847.701	21728
847.837	21207
847.972	21077
848.108	21272
848.244	21329
848.379	21146
848.515	21081
848.65	21020
848.786	21081
848.921	21100
849.057	21249
849.192	21207
849.328	21116
849.463	21074
849.598	21081
849.734	21062
849.869	20944
850.004	20864
850.14	20868
850.275	20883
850.41	20796
850.545	20762
850.68	20830
850.815	20906
850.95	20937
851.085	20944
851.22	20887
851.355	20967
851.49	20800
851.625	20629
851.76	20849
851.895	20811
852.03	20788
852.165	20861
852.299	20880
852.434	20826
852.569	20925
852.703	20910
852.838	20887
852.973	21074
853.107	21024
853.242	20899
853.376	20724
853.511	20708
853.645	20659
853.78	20785
853.914	20511
854.048	20697
854.183	20682
854.317	20632
854.451	20902
854.585	20712
854.72	20712
854.854	20701
854.988	20674
855.122	20769
855.256	20598
855.39	20735
855.524	20750
855.658	20636
855.792	20640
855.926	20815
856.06	20853
856.194	20693
856.327	20587
856.461	20583
856.595	20629
856.729	20712
856.862	20826
856.996	20750
857.13	20735
857.263	20929
857.397	20804
857.53	20667
857.664	20686
857.797	20689
857.931	20788
858.064	20819
858.197	20609
858.331	20663
858.464	20625
858.597	20621
858.731	20644
858.864	20674
858.997	20773
859.13	20758
859.263	20758
859.396	20792
859.529	20682
859.662	20705
859.795	20640
859.928	20644
860.061	20868
860.194	20842
860.327	20845
860.46	20598
860.592	20781
860.725	20686
860.858	20796
860.99	20670
861.123	20651
861.256	20701
861.388	20644
861.521	21408
861.653	20552
861.786	20507
861.918	20598
862.05	20560
862.183	20552
862.315	20583
862.447	20609
862.58	20598
862.712	20476
862.844	20358
862.976	20530
863.108	20469
863.24	20823
863.372	20347
863.504	20495
863.636	20412
863.768	20328
863.9	20294
864.032	20336
864.164	20347
864.296	20343
864.428	20480
864.559	20415
864.691	20419
864.823	20412
864.954	20301
865.086	20419
865.217	20450
865.349	20187
865.48	20301
865.612	20271
865.743	20393
865.875	20396
866.006	20172
866.137	20237
866.269	20225
866.4	20168
866.531	20187
866.662	20183
866.793	20275
866.924	20225
867.055	20240
867.186	20282
867.317	20267
867.448	20081
867.579	20187
867.71	20107
867.841	20122
867.972	20176
868.103	20172
868.233	20248
868.364	20202
868.495	20324
868.625	20423
868.756	20545
868.886	20393
869.017	20427
869.147	20571
869.278	20629
869.408	20377
869.539	20377
869.669	20575
869.799	20549
869.929	20545
870.06	20552
870.19	20739
870.32	20727
870.45	20792
870.58	20895
870.71	20982
870.84	20937
870.97	20845
871.1	20785
871.23	20975
871.36	21070
871.489	21001
871.619	20967
871.749	21039
871.879	21123
872.008	21241
872.138	21013
872.267	21024
872.397	21009
872.526	20941
872.656	20902
872.785	20845
872.915	21001
873.044	21264
873.173	21077
873.303	21081
873.432	21169
873.561	21180
873.69	21047
873.819	21009
873.948	21131
874.077	21062
874.206	21127
874.335	21119
874.464	21188
874.593	21226
874.722	21233
874.851	21386
874.979	21317
875.108	21359
875.237	21332
875.365	21218
875.494	21214
875.623	21496
875.751	21226
875.88	21443
876.008	21504
876.136	21515
876.265	21705
876.393	21903
876.521	21682
876.65	21869
876.778	21816
876.906	21793
877.034	21603
877.162	21595
877.29	21701
877.418	21759
877.546	21603
877.674	21720
877.802	21637
877.93	21663
878.058	21690
878.185	21557
878.313	21774
878.441	21701
878.568	21568
878.696	21568
878.824	21778
878.951	21823
879.079	21869
879.206	21991
879.333	21804
879.461	21656
879.588	21736
879.715	21903
879.842	21983
879.97	21835
880.097	21481
880.224	21580
880.351	21637
880.478	21641
880.605	21466
880.732	21511
880.859	21660
880.986	21542
881.112	21591
881.239	21439
881.366	21245
881.493	21135
881.619	21192
881.746	21116
881.872	21100
881.999	21108
882.125	20929
882.252	21066
882.378	21070
882.505	21226
882.631	21020
882.757	20849
882.883	20880
883.01	20895
883.136	20811
883.262	20693
883.388	20621
883.514	20918
883.64	20807
883.766	20648
883.892	20754
884.018	20606
884.143	20823
884.269	20785
884.395	20492
884.52	20465
884.646	20469
884.772	20332
884.897	20438
885.023	20434
885.148	20632
885.274	20617
885.399	20644
885.524	20404
885.65	20442
885.775	20480
885.9	20541
886.025	20655
886.15	20454
886.275	20465
886.4	20389
886.525	20434
886.65	20473
886.775	20385
886.9	20602
887.025	20678
887.149	20492
887.274	20214
887.399	20221
887.523	20145
887.648	20180
887.773	20065
887.897	20271
888.021	20282
888.146	20164
888.27	20240
888.395	20351
888.519	20119
888.643	20282
888.767	20229
888.891	20043
889.015	20142
889.139	20149
889.263	20039
889.387	20157
889.511	20172
889.635	20115
889.759	20027
889.883	19997
890.006	20153
890.13	20180
890.254	20035
890.377	19909
890.501	19860
890.624	19772
890.748	19864
890.871	19734
890.995	19502
891.118	19575
891.241	19616
891.364	19723
891.488	19795
891.611	19597
891.734	19616
891.857	19647
891.98	19624
892.103	19578
892.226	19586
892.349	19571
892.471	19438
892.594	19518
892.717	19578
892.839	19601
892.962	19559
893.085	19677
893.207	19472
893.33	19392
893.452	19434
893.575	19590
893.697	19533
893.819	19685
893.941	19746
894.064	19643
894.186	19548
894.308	19495
894.43	19639
894.552	19655
894.674	19723
894.796	19400
894.918	19510
895.04	19472
895.161	19594
895.283	19715
895.405	19457
895.526	19491
895.648	19464
895.769	19624
895.891	19529
896.012	19655
896.134	19552
896.255	19559
896.376	19502
896.498	19575
896.619	19651
896.74	19533
896.861	19651
896.982	19795
897.103	20031
897.224	19757
897.345	19826
897.466	19715
897.587	19791
897.708	19887
897.828	19875
897.949	19693
898.07	19601
898.19	19708
898.311	19970
898.431	19822
898.552	19776
898.672	19921
898.792	19776
898.913	19753
899.033	19578
899.153	19712
899.273	19445
899.393	19521
899.513	19571
899.633	19460
899.753	19548
899.873	19407
899.993	19521
900.113	19483
900.232	19449
900.352	19411
900.472	19331
900.591	19301
900.711	19228
900.83	19263
900.95	19476
901.069	19369
901.189	19236
901.308	19091
901.427	18875
901.546	18867
901.665	18894
901.784	18890
901.904	18814
902.023	18620
902.141	18509
902.26	18536
902.379	18426
902.498	18395
902.617	18399
902.735	18445
902.854	18350
902.973	18399
903.091	18178
903.21	18030
903.328	18041
903.446	17996
903.565	17961
903.683	17939
903.801	17752
903.919	17885
904.038	17832
904.156	17684
904.274	17802
904.392	17627
904.51	17680
904.627	17600
904.745	17615
904.863	17691
904.981	17493
905.098	17444
905.216	17349
905.334	17387
905.451	17360
905.569	17269
905.686	17421
905.803	17364
905.921	17178
906.038	17258
906.155	17204
906.272	17075
906.389	17124
906.506	16911
906.623	16987
906.74	16892
906.857	16801
906.974	16805
907.091	16984
907.208	16934
907.324	16957
907.441	16767
907.557	16668
907.674	16596
907.79	16542
907.907	16668
908.023	16645
908.139	16694
908.256	16523
908.372	16542
908.488	16489
908.604	16348
908.72	16280
908.836	16379
908.952	16291
909.068	16394
909.184	16447
909.3	16272
909.415	16402
909.531	16310
909.647	16143
909.762	16063
909.878	15926
909.993	16029
910.108	15945
910.224	15998
910.339	15972
910.454	15926
910.57	15899
910.685	15800
910.8	16048
910.915	15915
911.03	15793
911.145	15679
911.259	15660
911.374	15625
911.489	15603
911.604	15447
911.718	15435
911.833	15405
911.947	15389
912.062	15279
912.176	15473
912.291	15405
912.405	15443
912.519	15622
912.633	15492
912.748	15359
912.862	15416
912.976	15268
913.09	15188
913.204	15233
913.318	15294
913.431	15226
913.545	15359
913.659	15294
913.772	15165
913.886	15131
914	14994
914.113	15062
914.226	15032
914.34	15032
914.453	14982
914.566	15032
914.68	14914
914.793	14914
914.906	14762
915.019	14606
915.132	14568
915.245	14629
915.358	14663
915.47	14674
915.583	14659
915.696	14746
915.809	14823
915.921	14773
916.034	14663
916.146	14526
916.259	14590
916.371	14701
916.483	14621
916.595	14423
916.708	14446
916.82	14621
916.932	14461
917.044	14396
917.156	14511
917.268	14309
917.38	14431
917.491	14309
917.603	14305
917.715	14434
917.826	14438
917.938	14237
918.049	14164
918.161	14309
918.272	14454
918.384	14408
918.495	14317
918.606	14123
918.717	14157
918.828	14225
918.939	14161
919.05	13989
919.161	14123
919.272	13807
919.383	13928
919.494	14153
919.604	14210
919.715	14046
919.826	14031
919.936	14039
920.047	14161
920.157	14084
920.267	14210
920.378	14058
920.488	13974
920.598	14225
920.708	14328
920.818	14183
920.928	14100
921.038	14431
921.148	14244
921.258	13989
921.368	13986
921.477	13871
921.587	13765
921.697	13677
921.806	13765
921.916	13651
922.025	13521
922.134	13441
922.244	13381
922.353	13578
922.462	13396
922.571	13278
922.68	13190
922.789	13133
922.898	13194
923.007	13091
923.116	13168
923.224	13080
923.333	13122
923.442	12932
923.55	12951
923.659	13038
923.767	13004
923.876	12837
923.984	12939
924.092	12837
924.201	12932
924.309	12875
924.417	12848
924.525	12833
924.633	12875
924.741	13689
924.849	12604
924.956	12772
925.064	12563
925.172	12498
925.279	12544
925.387	12532
925.494	12551
925.602	12646
925.709	12639
925.816	12433
925.924	12528
926.031	12547
926.138	12448
926.245	12521
926.352	12422
926.459	12642
926.566	12620
926.673	12433
926.779	12319
926.886	12285
926.993	12155
927.099	12148
927.206	12125
927.312	12148
927.419	12095
927.525	12190
927.631	12175
927.737	11988
927.843	11893
927.95	11870
928.056	11996
928.162	11958
928.267	12041
928.373	12646
928.479	12087
928.585	11714
928.69	11935
928.796	11912
928.901	11817
929.007	11699
929.112	11779
929.218	11771
929.323	11737
929.428	11710
929.533	11718
929.638	11547
929.743	11691
929.848	11608
929.953	11649
930.058	11440
930.163	11326
930.267	11410
930.372	11528
930.477	11330
930.581	11528
930.685	11421
930.79	11143
930.894	11166
930.998	11239
931.103	11410
931.207	11052
931.311	10991
931.415	10904
931.519	10649
931.623	10736
