Data from test_V78500241_3369.txt Node
Date: Fri Mar 25 15:33:19 CST 2022
User: usil
Spectrometer: V785-0024
Trigger mode: 0
Integration Time (sec): 4.000000E-1
Scans to average: 1
Nonlinearity correction enabled: false
Boxcar width: 0
Storing dark spectrum: false
XAxis mode: Wavelengths
Number of Pixels in Spectrum: 1024
>>>>>Begin Spectral Data<<<<<
801.071	27123
801.214	27112
801.356	27032
801.499	26857
801.641	26629
801.783	26830
801.926	26838
802.068	26735
802.211	26644
802.353	26682
802.496	26594
802.638	26549
802.78	26339
802.923	26282
803.065	26145
803.208	26225
803.35	26332
803.492	26587
803.635	26640
803.777	26366
803.919	26556
804.061	26929
804.204	26579
804.346	26514
804.488	26305
804.63	26465
804.773	26431
804.915	26507
805.057	26552
805.199	26393
805.341	26552
805.483	26590
805.626	26678
805.768	26594
805.91	26541
806.052	26621
806.194	26602
806.336	26689
806.478	26594
806.62	26735
806.762	26663
806.904	26712
807.046	27070
807.188	27100
807.33	26986
807.472	27032
807.614	26842
807.756	26975
807.898	26754
808.04	26853
808.182	26971
808.324	26872
808.465	26910
808.607	27047
808.749	27127
808.891	27348
809.033	27393
809.174	27195
809.316	27214
809.458	27165
809.6	27165
809.741	27256
809.883	27283
810.025	27424
810.166	27374
810.308	27504
810.45	27420
810.591	27363
810.733	27313
810.875	27146
811.016	27119
811.158	27089
811.299	27306
811.441	27412
811.582	27275
811.724	27275
811.865	27218
812.007	27154
812.148	27123
812.29	27310
812.431	27264
812.573	27557
812.714	27549
812.855	27614
812.997	27842
813.138	27983
813.279	27869
813.421	27770
813.562	27553
813.703	27572
813.845	27454
813.986	27157
814.127	27112
814.268	26819
814.41	26864
814.551	26674
814.692	26994
814.833	26705
814.974	26712
815.115	26830
815.256	26712
815.397	26670
815.539	26788
815.68	26659
815.821	26442
815.962	26743
816.103	26640
816.244	26568
816.385	26332
816.526	26457
816.666	26237
816.807	26210
816.948	26062
817.089	26267
817.23	26115
817.371	26214
817.512	26046
817.653	26138
817.793	26027
817.934	26122
818.075	26100
818.216	26149
818.356	25978
818.497	25864
818.638	25833
818.778	25849
818.919	25925
819.06	26008
819.2	25917
819.341	26046
819.481	26134
819.622	26176
819.762	26533
819.903	26214
820.043	26469
820.184	26187
820.324	26134
820.465	26210
820.605	26240
820.746	26164
820.886	26103
821.026	26142
821.167	26130
821.307	26206
821.447	26191
821.588	25993
821.728	25944
821.868	25685
822.008	25548
822.149	25563
822.289	25491
822.429	25263
822.569	25304
822.709	25320
822.849	25008
822.99	24977
823.13	24954
823.27	24981
823.41	24897
823.55	24760
823.69	24981
823.83	24924
823.97	24806
824.11	24658
824.25	24707
824.389	24700
824.529	24821
824.669	24684
824.809	24810
824.949	24829
825.089	24844
825.228	24741
825.368	24616
825.508	24502
825.648	24532
825.787	24604
825.927	24650
826.067	24445
826.206	24498
826.346	24627
826.485	24528
826.625	24681
826.765	24589
826.904	24525
827.044	24464
827.183	24300
827.323	24220
827.462	24334
827.601	24346
827.741	24330
827.88	24243
828.02	24125
828.159	24266
828.298	24441
828.437	24376
828.577	24133
828.716	24296
828.855	24144
828.994	24095
829.134	24034
829.273	24129
829.412	23813
829.551	23893
829.69	23969
829.829	24068
829.968	24022
830.107	24110
830.246	24011
830.385	24022
830.524	23999
830.663	23897
830.802	23707
830.941	23668
831.08	23653
831.219	23745
831.357	23714
831.496	23954
831.635	23726
831.774	23558
831.913	23467
832.051	23288
832.19	23231
832.329	23433
832.467	23242
832.606	23193
832.744	23208
832.883	23284
833.022	23250
833.16	23280
833.299	23341
833.437	23341
833.576	23417
833.714	23330
833.852	23452
833.991	23299
834.129	23505
834.267	23402
834.406	23337
834.544	23524
834.682	23288
834.821	23223
834.959	23501
835.097	23353
835.235	23486
835.373	23482
835.511	23360
835.65	23265
835.788	23296
835.926	23212
836.064	22862
836.202	22980
836.34	23162
836.478	23318
836.615	23162
836.753	23235
836.891	23311
837.029	23204
837.167	23235
837.305	23159
837.443	23083
837.58	23109
837.718	23151
837.856	23018
837.993	23041
838.131	23159
838.269	22984
838.406	22934
838.544	23025
838.681	22748
838.819	22733
838.956	22527
839.094	22584
839.231	22641
839.369	22740
839.506	22980
839.643	22782
839.781	22519
839.918	22424
840.055	22527
840.193	22580
840.33	22451
840.467	22424
840.604	22531
840.742	22786
840.879	22367
841.016	22481
841.153	22394
841.29	22557
841.427	22447
841.564	22493
841.701	22645
841.838	22375
841.975	22356
842.112	22402
842.249	22280
842.385	22188
842.522	22504
842.659	22344
842.796	22131
842.933	22196
843.069	22143
843.206	22310
843.343	22234
843.479	22238
843.616	22249
843.752	21934
843.889	22021
844.025	22158
844.162	21979
844.298	22131
844.435	22048
844.571	21934
844.708	22128
844.844	22234
844.98	22055
845.117	22093
845.253	22021
845.389	21880
845.525	21915
845.661	21964
845.798	21637
845.934	21800
846.07	21686
846.206	21865
846.342	21846
846.478	21751
846.614	21587
846.75	21507
846.886	21450
847.022	21534
847.158	21477
847.294	21553
847.429	21538
847.565	21401
847.701	21751
847.837	21199
847.972	21241
848.108	21329
848.244	21393
848.379	21146
848.515	21085
848.65	21112
848.786	21062
848.921	21119
849.057	21237
849.192	21150
849.328	21146
849.463	21024
849.598	21020
849.734	21051
849.869	20864
850.004	20887
850.14	20902
850.275	20857
850.41	20750
850.545	20823
850.68	20765
850.815	20864
850.95	20845
851.085	20990
851.22	20971
851.355	20830
851.49	20906
851.625	20880
851.76	20872
851.895	20830
852.03	20762
852.165	20800
852.299	20826
852.434	21013
852.569	20861
852.703	20937
852.838	20830
852.973	20979
853.107	20948
853.242	20777
853.376	20625
853.511	20526
853.645	20667
853.78	20872
853.914	20621
854.048	20659
854.183	20636
854.317	20648
854.451	20876
854.585	20697
854.72	20678
854.854	20777
854.988	20602
855.122	20701
855.256	20560
855.39	20617
855.524	20708
855.658	20670
855.792	20678
855.926	20568
856.06	20712
856.194	20705
856.327	20727
856.461	20629
856.595	20674
856.729	20686
856.862	20705
856.996	20724
857.13	20758
857.263	20769
857.397	20887
857.53	20617
857.664	20735
857.797	20754
857.931	20800
858.064	20708
858.197	20762
858.331	20693
858.464	20590
858.597	20606
858.731	20682
858.864	20632
858.997	20678
859.13	20724
859.263	20670
859.396	20777
859.529	20609
859.662	20632
859.795	20598
859.928	20777
860.061	20781
860.194	20849
860.327	20739
860.46	20724
860.592	20769
860.725	20823
860.858	20838
860.99	20659
861.123	20495
861.256	20640
861.388	20651
861.521	21450
861.653	20526
861.786	20423
861.918	20423
862.05	20621
862.183	20575
862.315	20655
862.447	20765
862.58	20549
862.712	20503
862.844	20503
862.976	20393
863.108	20408
863.24	20686
863.372	20206
863.504	20473
863.636	20393
863.768	20400
863.9	20309
864.032	20423
864.164	20343
864.296	20423
864.428	20450
864.559	20503
864.691	20431
864.823	20290
864.954	20332
865.086	20328
865.217	20358
865.349	20263
865.48	20221
865.612	20271
865.743	20522
865.875	20355
866.006	20336
866.137	20317
866.269	20286
866.4	20271
866.531	20339
866.662	20252
866.793	20263
866.924	20229
867.055	20377
867.186	20339
867.317	20225
867.448	20199
867.579	20187
867.71	20164
867.841	20298
867.972	20298
868.103	20298
868.233	20263
868.364	20187
868.495	20339
868.625	20473
868.756	20632
868.886	20404
869.017	20408
869.147	20636
869.278	20655
869.408	20511
869.539	20461
869.669	20667
869.799	20514
869.929	20678
870.06	20609
870.19	20800
870.32	20765
870.45	20857
870.58	20891
870.71	21119
870.84	20956
870.97	20994
871.1	20937
871.23	21096
871.36	21104
871.489	20990
871.619	21077
871.749	20994
871.879	21085
872.008	21230
872.138	21233
872.267	21009
872.397	20963
872.526	21017
872.656	21001
872.785	20929
872.915	21169
873.044	21233
873.173	21119
873.303	21093
873.432	21283
873.561	21310
873.69	21214
873.819	21161
873.948	21112
874.077	21135
874.206	21058
874.335	21135
874.464	21233
874.593	21408
874.722	21249
874.851	21378
874.979	21310
875.108	21443
875.237	21306
875.365	21329
875.494	21317
875.623	21329
875.751	21401
875.88	21454
876.008	21462
876.136	21545
876.265	21835
876.393	21854
876.521	21842
876.65	21713
876.778	21732
876.906	21762
877.034	21694
877.162	21816
877.29	21572
877.418	21606
877.546	21736
877.674	21671
877.802	21823
877.93	21694
878.058	21713
878.185	21572
878.313	21690
878.441	21785
878.568	21504
878.696	21736
878.824	21698
878.951	21770
879.079	21880
879.206	22032
879.333	21804
879.461	21781
879.588	21846
879.715	21888
879.842	21903
879.97	21736
880.097	21568
880.224	21458
880.351	21610
880.478	21618
880.605	21526
880.732	21454
880.859	21789
880.986	21656
881.112	21591
881.239	21405
881.366	21294
881.493	21252
881.619	21176
881.746	21195
881.872	21108
881.999	21077
882.125	20967
882.252	21127
882.378	21089
882.505	21188
882.631	21013
882.757	20975
882.883	20872
883.01	20880
883.136	20705
883.262	20712
883.388	20663
883.514	20933
883.64	20868
883.766	20750
883.892	20682
884.018	20636
884.143	20701
884.269	20750
884.395	20480
884.52	20465
884.646	20465
884.772	20450
884.897	20522
885.023	20522
885.148	20587
885.274	20564
885.399	20549
885.524	20541
885.65	20503
885.775	20461
885.9	20602
886.025	20609
886.15	20590
886.275	20415
886.4	20454
886.525	20499
886.65	20476
886.775	20309
886.9	20602
887.025	20587
887.149	20408
887.274	20336
887.399	20218
887.523	20248
887.648	20218
887.773	20043
887.897	20252
888.021	20294
888.146	20267
888.27	20286
888.395	20286
888.519	20286
888.643	20320
888.767	20298
888.891	20225
889.015	20180
889.139	20084
889.263	19951
889.387	20199
889.511	20267
889.635	20142
889.759	20073
889.883	20122
890.006	20111
890.13	20183
890.254	19989
890.377	20039
890.501	19852
890.624	19841
890.748	19967
890.871	19780
890.995	19483
891.118	19529
891.241	19734
891.364	19677
891.488	19731
891.611	19628
891.734	19734
891.857	19704
891.98	19685
892.103	19677
892.226	19674
892.349	19597
892.471	19430
892.594	19601
892.717	19567
892.839	19510
892.962	19544
893.085	19578
893.207	19635
893.33	19369
893.452	19468
893.575	19563
893.697	19400
893.819	19719
893.941	19833
894.064	19685
894.186	19483
894.308	19468
894.43	19601
894.552	19750
894.674	19586
894.796	19468
894.918	19571
895.04	19544
895.161	19613
895.283	19559
895.405	19464
895.526	19544
895.648	19521
895.769	19613
895.891	19578
896.012	19586
896.134	19578
896.255	19586
896.376	19529
896.498	19502
896.619	19571
896.74	19616
896.861	19601
896.982	19830
897.103	20081
897.224	19830
897.345	19776
897.466	19597
897.587	19799
897.708	19871
897.828	19784
897.949	19727
898.07	19605
898.19	19681
898.311	19849
898.431	19761
898.552	19898
898.672	19917
898.792	19868
898.913	19700
899.033	19776
899.153	19666
899.273	19518
899.393	19597
899.513	19582
899.633	19597
899.753	19613
899.873	19449
899.993	19571
900.113	19533
900.232	19571
900.352	19563
900.472	19381
900.591	19274
900.711	19293
900.83	19263
900.95	19499
901.069	19480
901.189	19225
901.308	18871
901.427	18833
901.546	18977
901.665	18996
901.784	18916
901.904	18787
902.023	18578
902.141	18566
902.26	18395
902.379	18608
902.498	18464
902.617	18361
902.735	18445
902.854	18334
902.973	18247
903.091	17992
903.21	18076
903.328	18102
903.446	17973
903.565	17870
903.683	18022
903.801	17836
903.919	17832
904.038	17802
904.156	17604
904.274	17794
904.392	17634
904.51	17729
904.627	17661
904.745	17710
904.863	17756
904.981	17490
905.098	17402
905.216	17444
905.334	17402
905.451	17303
905.569	17318
905.686	17452
905.803	17395
905.921	17212
906.038	17292
906.155	17151
906.272	16991
906.389	17090
906.506	16911
906.623	16900
906.74	16976
906.857	16786
906.974	16793
907.091	16957
907.208	17098
907.324	16831
907.441	16831
907.557	16634
907.674	16588
907.79	16618
907.907	16656
908.023	16683
908.139	16645
908.256	16584
908.372	16634
908.488	16558
908.604	16402
908.72	16360
908.836	16386
908.952	16268
909.068	16341
909.184	16402
909.3	16318
909.415	16413
909.531	16242
909.647	16162
909.762	16078
909.878	16036
909.993	16116
910.108	16139
910.224	15956
910.339	16017
910.454	15956
910.57	15831
910.685	15823
910.8	16124
910.915	16078
911.03	15918
911.145	15656
911.259	15637
911.374	15660
911.489	15675
911.604	15557
911.718	15325
911.833	15420
911.947	15294
912.062	15222
912.176	15408
912.291	15507
912.405	15519
912.519	15553
912.633	15633
912.748	15488
912.862	15389
912.976	15233
913.09	15230
913.204	15214
913.318	15275
913.431	15291
913.545	15252
913.659	15374
913.772	15241
913.886	15097
914	14994
914.113	15123
914.226	15279
914.34	15112
914.453	14979
914.566	15123
914.68	14956
914.793	14857
914.906	14701
915.019	14689
915.132	14602
915.245	14594
915.358	14769
915.47	14598
915.583	14739
915.696	14693
915.809	14769
915.921	14800
916.034	14621
916.146	14522
916.259	14568
916.371	14663
916.483	14583
916.595	14651
916.708	14484
916.82	14461
916.932	14488
917.044	14495
917.156	14393
917.268	14400
917.38	14404
917.491	14237
917.603	14370
917.715	14374
917.826	14522
917.938	14278
918.049	14214
918.161	14362
918.272	14404
918.384	14396
918.495	14328
918.606	14103
918.717	14054
918.828	14199
918.939	14077
919.05	14084
919.161	14134
919.272	13963
919.383	13974
919.494	14176
919.604	14328
919.715	14176
919.826	13936
919.936	14107
920.047	14103
920.157	14084
920.267	14313
920.378	14161
920.488	14001
920.598	14317
920.708	14332
920.818	14202
920.928	14218
921.038	14412
921.148	14313
921.258	13932
921.368	13925
921.477	13803
921.587	13879
921.697	13738
921.806	13883
921.916	13715
922.025	13537
922.134	13464
922.244	13384
922.353	13480
922.462	13415
922.571	13285
922.68	13175
922.789	13107
922.898	13183
923.007	13065
923.116	13149
923.224	13122
923.333	13076
923.442	12977
923.55	12935
923.659	12977
923.767	12958
923.876	12901
923.984	12970
924.092	12787
924.201	12859
924.309	12852
924.417	12886
924.525	12779
924.633	12852
924.741	13689
924.849	12620
924.956	12772
925.064	12570
925.172	12559
925.279	12555
925.387	12627
925.494	12551
925.602	12639
925.709	12517
925.816	12426
925.924	12574
926.031	12578
926.138	12479
926.245	12559
926.352	12471
926.459	12639
926.566	12559
926.673	12395
926.779	12365
926.886	12262
926.993	12254
927.099	12182
927.206	12091
927.312	12041
927.419	12167
927.525	12114
927.631	12224
927.737	12064
927.843	12011
927.95	11874
928.056	11973
928.162	11961
928.267	12060
928.373	12528
928.479	12117
928.585	11783
928.69	11977
928.796	11923
928.901	11813
929.007	11646
929.112	11893
929.218	11874
929.323	11790
929.428	11729
929.533	11847
929.638	11665
929.743	11646
929.848	11680
929.953	11638
930.058	11581
930.163	11406
930.267	11387
930.372	11592
930.477	11337
930.581	11627
930.685	11414
930.79	11292
930.894	11265
930.998	11250
931.103	11471
931.207	11079
931.311	10976
931.415	10904
931.519	10641
931.623	10721
