Data from test_V78500241_926.txt Node
Date: Fri Mar 25 15:16:18 CST 2022
User: usil
Spectrometer: V785-0024
Trigger mode: 0
Integration Time (sec): 4.000000E-1
Scans to average: 1
Nonlinearity correction enabled: false
Boxcar width: 0
Storing dark spectrum: false
XAxis mode: Wavelengths
Number of Pixels in Spectrum: 1024
>>>>>Begin Spectral Data<<<<<
801.071	27968
801.214	27899
801.356	27819
801.499	27694
801.641	27519
801.783	27675
801.926	27652
802.068	27511
802.211	27462
802.353	27420
802.496	27294
802.638	27291
802.78	27161
802.923	27226
803.065	27249
803.208	27176
803.35	27268
803.492	27329
803.635	27382
803.777	27291
803.919	27591
804.061	27603
804.204	27431
804.346	27355
804.488	27180
804.63	27283
804.773	27192
804.915	27504
805.057	27500
805.199	27507
805.341	27591
805.483	27599
805.626	27473
805.768	27401
805.91	27473
806.052	27618
806.194	27694
806.336	27709
806.478	27682
806.62	27545
806.762	27568
806.904	27869
807.046	28128
807.188	27960
807.33	27956
807.472	28097
807.614	27926
807.756	27956
807.898	28010
808.04	27819
808.182	27755
808.324	27998
808.465	27998
808.607	28010
808.749	28154
808.891	28314
809.033	28272
809.174	28204
809.316	27945
809.458	28253
809.6	28166
809.741	28314
809.883	28428
810.025	28500
810.166	28417
810.308	28580
810.45	28421
810.591	28363
810.733	28188
810.875	28234
811.016	28272
811.158	28044
811.299	28246
811.441	28363
811.582	28333
811.724	28181
811.865	28181
812.007	28181
812.148	28124
812.29	28101
812.431	28287
812.573	28550
812.714	28584
812.855	28713
812.997	28809
813.138	29033
813.279	28877
813.421	28675
813.562	28778
813.703	28474
813.845	28588
813.986	28204
814.127	28036
814.268	27873
814.41	27918
814.551	27930
814.692	28010
814.833	27861
814.974	27842
815.115	27884
815.256	27747
815.397	27747
815.539	27918
815.68	27732
815.821	27583
815.962	27778
816.103	27656
816.244	27606
816.385	27473
816.526	27561
816.666	27412
816.807	27142
816.948	27340
817.089	27325
817.23	27165
817.371	27169
817.512	27142
817.653	27142
817.793	27176
817.934	27108
818.075	27245
818.216	27291
818.356	27211
818.497	27055
818.638	27028
818.778	26994
818.919	26956
819.06	27085
819.2	26982
819.341	27142
819.481	27272
819.622	27283
819.762	27644
819.903	27542
820.043	27386
820.184	27351
820.324	27306
820.465	27519
820.605	27260
820.746	27389
820.886	27195
821.026	27355
821.167	27386
821.307	27397
821.447	27336
821.588	27249
821.728	27150
821.868	26842
822.008	26708
822.149	26571
822.289	26648
822.429	26453
822.569	26461
822.709	26404
822.849	26202
822.99	26164
823.13	26164
823.27	26157
823.41	25989
823.55	26035
823.69	26035
823.83	25951
823.97	26005
824.11	25879
824.25	25746
824.389	25890
824.529	25822
824.669	25879
824.809	26062
824.949	25913
825.089	25959
825.228	25906
825.368	25795
825.508	25731
825.648	25742
825.787	25822
825.927	25902
826.067	25719
826.206	25723
826.346	25734
826.485	25639
826.625	25529
826.765	25833
826.904	25693
827.044	25552
827.183	25514
827.323	25468
827.462	25510
827.601	25441
827.741	25472
827.88	25430
828.02	25274
828.159	25422
828.298	25537
828.437	25499
828.577	25327
828.716	25487
828.855	25434
828.994	25209
829.134	25103
829.273	25069
829.412	25019
829.551	25088
829.69	25099
829.829	25168
829.968	25251
830.107	25259
830.246	25259
830.385	25057
830.524	25145
830.663	24966
830.802	24897
830.941	24635
831.08	24787
831.219	24837
831.357	24741
831.496	25088
831.635	24764
831.774	24730
831.913	24532
832.051	24486
832.19	24536
832.329	24597
832.467	24426
832.606	24407
832.744	24391
832.883	24304
833.022	24388
833.16	24388
833.299	24494
833.437	24464
833.576	24677
833.714	24566
833.852	24536
833.991	24490
834.129	24745
834.267	24555
834.406	24380
834.544	24604
834.682	24483
834.821	24490
834.959	24665
835.097	24563
835.235	24521
835.373	24467
835.511	24391
835.65	24372
835.788	24372
835.926	24365
836.064	24159
836.202	24197
836.34	24353
836.478	24429
836.615	24388
836.753	24296
836.891	24376
837.029	24365
837.167	24201
837.305	24319
837.443	24125
837.58	24155
837.718	24201
837.856	24194
837.993	24079
838.131	24026
838.269	23935
838.406	24030
838.544	23904
838.681	23790
838.819	23668
838.956	23699
839.094	23611
839.231	23646
839.369	23809
839.506	24125
839.643	23920
839.781	23634
839.918	23665
840.055	23558
840.193	23611
840.33	23505
840.467	23505
840.604	23463
840.742	23965
840.879	23356
841.016	23539
841.153	23486
841.29	23615
841.427	23604
841.564	23627
841.701	23551
841.838	23512
841.975	23395
842.112	23547
842.249	23341
842.385	23334
842.522	23535
842.659	23425
842.796	23318
842.933	23280
843.069	23242
843.206	23235
843.343	23360
843.479	23334
843.616	23273
843.752	23261
843.889	23193
844.025	23216
844.162	23060
844.298	23159
844.435	23132
844.571	23018
844.708	23018
844.844	23212
844.98	23223
845.117	23239
845.253	23189
845.389	22877
845.525	23132
845.661	22972
845.798	22698
845.934	22809
846.07	22767
846.206	22801
846.342	23010
846.478	22733
846.614	22565
846.75	22493
846.886	22432
847.022	22554
847.158	22527
847.294	22508
847.429	22607
847.565	22618
847.701	22778
847.837	22402
847.972	22265
848.108	22299
848.244	22295
848.379	22261
848.515	22135
848.65	21975
848.786	22131
848.921	22181
849.057	22249
849.192	22078
849.328	22265
849.463	22112
849.598	22181
849.734	22051
849.869	22063
850.004	21884
850.14	21941
850.275	22048
850.41	21922
850.545	21838
850.68	21869
850.815	21827
850.95	21751
851.085	22006
851.22	22017
851.355	21964
851.49	21918
851.625	21781
851.76	21911
851.895	21736
852.03	21808
852.165	21869
852.299	21873
852.434	21956
852.569	22002
852.703	21812
852.838	21937
852.973	22006
853.107	21975
853.242	21835
853.376	21667
853.511	21614
853.645	21610
853.78	21854
853.914	21755
854.048	21637
854.183	21637
854.317	21717
854.451	21869
854.585	21701
854.72	21717
854.854	21850
854.988	21637
855.122	21789
855.256	21694
855.39	21686
855.524	21838
855.658	21739
855.792	21835
855.926	21656
856.06	21800
856.194	21759
856.327	21713
856.461	21759
856.595	21625
856.729	21667
856.862	21823
856.996	21728
857.13	21751
857.263	21724
857.397	21846
857.53	21743
857.664	21835
857.797	21804
857.931	21861
858.064	21880
858.197	21808
858.331	21770
858.464	21633
858.597	21656
858.731	21724
858.864	21637
858.997	21694
859.13	21762
859.263	21648
859.396	21831
859.529	21606
859.662	21759
859.795	21629
859.928	21759
860.061	21895
860.194	21838
860.327	21850
860.46	21762
860.592	21789
860.725	21937
860.858	21846
860.99	21698
861.123	21572
861.256	21671
861.388	21717
861.521	22459
861.653	21713
861.786	21374
861.918	21500
862.05	21587
862.183	21701
862.315	21713
862.447	21610
862.58	21622
862.712	21469
862.844	21344
862.976	21561
863.108	21526
863.24	21774
863.372	21344
863.504	21443
863.636	21408
863.768	21511
863.9	21481
864.032	21447
864.164	21538
864.296	21523
864.428	21557
864.559	21431
864.691	21534
864.823	21382
864.954	21443
865.086	21454
865.217	21340
865.349	21184
865.48	21386
865.612	21325
865.743	21428
865.875	21496
866.006	21256
866.137	21291
866.269	21211
866.4	21214
866.531	21211
866.662	21245
866.793	21241
866.924	21142
867.055	21256
867.186	21199
867.317	21142
867.448	21173
867.579	21245
867.71	21119
867.841	21199
867.972	21226
868.103	21279
868.233	21176
868.364	21188
868.495	21340
868.625	21435
868.756	21637
868.886	21420
869.017	21412
869.147	21568
869.278	21553
869.408	21496
869.539	21485
869.669	21629
869.799	21386
869.929	21553
870.06	21572
870.19	21888
870.32	21732
870.45	21789
870.58	21915
870.71	21880
870.84	21979
870.97	21835
871.1	21854
871.23	22120
871.36	22044
871.489	22002
871.619	21964
871.749	22101
871.879	22086
872.008	22211
872.138	22063
872.267	22166
872.397	21998
872.526	21941
872.656	21842
872.785	21975
872.915	22131
873.044	22177
873.173	22120
873.303	22124
873.432	22185
873.561	22230
873.69	22173
873.819	22078
873.948	22226
874.077	22090
874.206	22101
874.335	22063
874.464	22139
874.593	22226
874.722	22143
874.851	22382
874.979	22371
875.108	22417
875.237	22272
875.365	22257
875.494	22284
875.623	22363
875.751	22234
875.88	22261
876.008	22447
876.136	22409
876.265	22713
876.393	22809
876.521	22774
876.65	22904
876.778	22672
876.906	22660
877.034	22641
877.162	22580
877.29	22706
877.418	22740
877.546	22641
877.674	22687
877.802	22592
877.93	22653
878.058	22698
878.185	22577
878.313	22573
878.441	22729
878.568	22561
878.696	22584
878.824	22706
878.951	22771
879.079	22782
879.206	22862
879.333	22759
879.461	22729
879.588	22634
879.715	22786
879.842	23003
879.97	22786
880.097	22493
880.224	22478
880.351	22493
880.478	22489
880.605	22493
880.732	22459
880.859	22698
880.986	22474
881.112	22519
881.239	22337
881.366	22226
881.493	22086
881.619	22055
881.746	22021
881.872	22063
881.999	22002
882.125	21945
882.252	22086
882.378	22051
882.505	22051
882.631	21979
882.757	21686
882.883	21892
883.01	21835
883.136	21724
883.262	21599
883.388	21568
883.514	21774
883.64	21922
883.766	21774
883.892	21374
884.018	21496
884.143	21759
884.269	21686
884.395	21443
884.52	21382
884.646	21355
884.772	21363
884.897	21268
885.023	21496
885.148	21454
885.274	21469
885.399	21568
885.524	21344
885.65	21405
885.775	21439
885.9	21359
886.025	21481
886.15	21485
886.275	21306
886.4	21310
886.525	21370
886.65	21249
886.775	21268
886.9	21507
887.025	21587
887.149	21454
887.274	21317
887.399	21020
887.523	21123
887.648	21157
887.773	21157
887.897	21184
888.021	21188
888.146	21123
888.27	21226
888.395	21203
888.519	21275
888.643	21146
888.767	21260
888.891	21104
889.015	21032
889.139	21119
889.263	20914
889.387	21066
889.511	21192
889.635	21142
889.759	20887
889.883	20960
890.006	20975
890.13	21043
890.254	21005
890.377	20826
890.501	20697
890.624	20667
890.748	20826
890.871	20602
890.995	20590
891.118	20564
891.241	20503
891.364	20507
891.488	20663
891.611	20648
891.734	20655
891.857	20579
891.98	20533
892.103	20556
892.226	20488
892.349	20476
892.471	20320
892.594	20454
892.717	20480
892.839	20396
892.962	20583
893.085	20484
893.207	20461
893.33	20332
893.452	20446
893.575	20579
893.697	20362
893.819	20537
893.941	20629
894.064	20613
894.186	20389
894.308	20396
894.43	20434
894.552	20560
894.674	20526
894.796	20332
894.918	20400
895.04	20442
895.161	20427
895.283	20579
895.405	20476
895.526	20442
895.648	20419
895.769	20457
895.891	20408
896.012	20492
896.134	20412
896.255	20457
896.376	20370
896.498	20469
896.619	20484
896.74	20533
896.861	20518
896.982	20804
897.103	20815
897.224	20731
897.345	20716
897.466	20632
897.587	20663
897.708	20762
897.828	20541
897.949	20659
898.07	20423
898.19	20473
898.311	20697
898.431	20587
898.552	20651
898.672	20636
898.792	20632
898.913	20629
899.033	20617
899.153	20412
899.273	20286
899.393	20381
899.513	20465
899.633	20454
899.753	20362
899.873	20256
899.993	20457
900.113	20214
900.232	20298
900.352	20263
900.472	20122
900.591	20096
900.711	20271
900.83	20069
900.95	20191
901.069	20294
901.189	20062
901.308	19761
901.427	19765
901.546	19769
901.665	19856
901.784	19670
901.904	19639
902.023	19464
902.141	19251
902.26	19339
902.379	19400
902.498	19141
902.617	19244
902.735	19343
902.854	19183
902.973	19263
903.091	19019
903.21	18897
903.328	18814
903.446	18882
903.565	18738
903.683	18783
903.801	18684
903.919	18604
904.038	18658
904.156	18532
904.274	18525
904.392	18437
904.51	18388
904.627	18509
904.745	18494
904.863	18509
904.981	18251
905.098	18129
905.216	18114
905.334	18277
905.451	18144
905.569	18174
905.686	18209
905.803	18213
905.921	17885
906.038	18026
906.155	17973
906.272	17824
906.389	17897
906.506	17737
906.623	17596
906.74	17760
906.857	17615
906.974	17611
907.091	17699
907.208	17760
907.324	17642
907.441	17714
907.557	17406
907.674	17471
907.79	17379
907.907	17402
908.023	17372
908.139	17383
908.256	17318
908.372	17223
908.488	17223
908.604	17178
908.72	17086
908.836	17102
908.952	17140
909.068	17094
909.184	17181
909.3	17121
909.415	17227
909.531	17086
909.647	16889
909.762	16934
909.878	16843
909.993	16805
910.108	16809
910.224	16778
910.339	16900
910.454	16706
910.57	16721
910.685	16550
910.8	16793
910.915	16653
911.03	16672
911.145	16417
911.259	16519
911.374	16459
911.489	16325
911.604	16280
911.718	16169
911.833	16086
911.947	16090
912.062	16021
912.176	16143
912.291	16086
912.405	16173
912.519	16318
912.633	16329
912.748	16204
912.862	16120
912.976	15998
913.09	15903
913.204	15876
913.318	16036
913.431	15987
913.545	16135
913.659	16013
913.772	15793
913.886	15850
914	15774
914.113	15915
914.226	15911
914.34	15857
914.453	15717
914.566	15762
914.68	15603
914.793	15599
914.906	15416
915.019	15302
915.132	15230
915.245	15424
915.358	15439
915.47	15321
915.583	15321
915.696	15389
915.809	15348
915.921	15663
916.034	15348
916.146	15154
916.259	15287
916.371	15389
916.483	15291
916.595	15123
916.708	15123
916.82	15188
916.932	15154
917.044	15074
917.156	15127
917.268	14960
917.38	15051
917.491	15013
917.603	14960
917.715	15028
917.826	15176
917.938	14952
918.049	14857
918.161	14895
918.272	14941
918.384	15024
918.495	14910
918.606	14788
918.717	14731
918.828	14902
918.939	14716
919.05	14648
919.161	14716
919.272	14526
919.383	14594
919.494	14727
919.604	14921
919.715	14712
919.826	14590
919.936	14769
920.047	14785
920.157	14708
920.267	14864
920.378	14804
920.488	14621
920.598	14891
920.708	15009
920.818	14891
920.928	14849
921.038	15028
921.148	14952
921.258	14697
921.368	14583
921.477	14488
921.587	14450
921.697	14374
921.806	14423
921.916	14343
922.025	14164
922.134	14103
922.244	14096
922.353	14088
922.462	13837
922.571	13887
922.68	13776
922.789	13624
922.898	13723
923.007	13734
923.116	13753
923.224	13807
923.333	13769
923.442	13586
923.55	13525
923.659	13552
923.767	13575
923.876	13552
923.984	13518
924.092	13491
924.201	13480
924.309	13594
924.417	13438
924.525	13346
924.633	13411
924.741	14263
924.849	13084
924.956	13308
925.064	13126
925.172	13179
925.279	13069
925.387	13240
925.494	13118
925.602	13335
925.709	13187
925.816	13034
925.924	13137
926.031	13209
926.138	13027
926.245	13129
926.352	12996
926.459	13168
926.566	13190
926.673	12947
926.779	12890
926.886	12981
926.993	12608
927.099	12738
927.206	12692
927.312	12608
927.419	12711
927.525	12753
927.631	12692
927.737	12646
927.843	12456
927.95	12486
928.056	12559
928.162	12525
928.267	12555
928.373	13187
928.479	12654
928.585	12315
928.69	12506
928.796	12372
928.901	12410
929.007	12330
929.112	12315
929.218	12361
929.323	12171
929.428	12186
929.533	12353
929.638	12148
929.743	12239
929.848	12205
929.953	12258
930.058	12133
930.163	11901
930.267	11999
930.372	12083
930.477	11855
930.581	12083
930.685	11897
930.79	11901
930.894	11760
930.998	11832
931.103	11965
931.207	11558
931.311	11391
931.415	11261
931.519	11254
931.623	11109
