Data from test_V78500241_2568.txt Node
Date: Fri Mar 25 15:27:44 CST 2022
User: usil
Spectrometer: V785-0024
Trigger mode: 0
Integration Time (sec): 4.000000E-1
Scans to average: 1
Nonlinearity correction enabled: false
Boxcar width: 0
Storing dark spectrum: false
XAxis mode: Wavelengths
Number of Pixels in Spectrum: 1024
>>>>>Begin Spectral Data<<<<<
801.071	27298
801.214	27180
801.356	26998
801.499	26963
801.641	26853
801.783	26815
801.926	26845
802.068	26834
802.211	26743
802.353	26625
802.496	26571
802.638	26568
802.78	26511
802.923	26358
803.065	26503
803.208	26503
803.35	26590
803.492	26575
803.635	26522
803.777	26568
803.919	26606
804.061	26998
804.204	26682
804.346	26682
804.488	26518
804.63	26674
804.773	26594
804.915	26674
805.057	26765
805.199	26686
805.341	26674
805.483	26826
805.626	26891
805.768	26697
805.91	26769
806.052	26819
806.194	26583
806.336	26861
806.478	26670
806.62	26883
806.762	26807
806.904	27062
807.046	27321
807.188	27112
807.33	27154
807.472	27211
807.614	27093
807.756	27116
807.898	26872
808.04	26940
808.182	26876
808.324	27036
808.465	27051
808.607	27138
808.749	27344
808.891	27420
809.033	27511
809.174	27321
809.316	27382
809.458	27511
809.6	27302
809.741	27416
809.883	27526
810.025	27606
810.166	27564
810.308	27591
810.45	27656
810.591	27545
810.733	27367
810.875	27348
811.016	27222
811.158	27325
811.299	27545
811.441	27492
811.582	27656
811.724	27519
811.865	27306
812.007	27313
812.148	27279
812.29	27321
812.431	27405
812.573	27633
812.714	27694
812.855	27720
812.997	27880
813.138	28097
813.279	27960
813.421	27709
813.562	27800
813.703	27603
813.845	27420
813.986	27363
814.127	27150
814.268	27104
814.41	27176
814.551	26960
814.692	27009
814.833	26876
814.974	27020
815.115	27032
815.256	26895
815.397	26872
815.539	26914
815.68	26724
815.821	26785
815.962	26762
816.103	26830
816.244	26541
816.385	26758
816.526	26453
816.666	26484
816.807	26043
816.948	26286
817.089	26564
817.23	26294
817.371	26313
817.512	26271
817.653	26149
817.793	26168
817.934	26237
818.075	26453
818.216	26294
818.356	26240
818.497	26138
818.638	25936
818.778	26088
818.919	25902
819.06	26153
819.2	26183
819.341	26301
819.481	26343
819.622	26427
819.762	26644
819.903	26461
820.043	26488
820.184	26301
820.324	26453
820.465	26374
820.605	26492
820.746	26263
820.886	26362
821.026	26214
821.167	26400
821.307	26453
821.447	26271
821.588	26096
821.728	25963
821.868	25993
822.008	25772
822.149	25803
822.289	25674
822.429	25400
822.569	25327
822.709	25499
822.849	25308
822.99	25263
823.13	25274
823.27	25122
823.41	25042
823.55	25031
823.69	25061
823.83	25069
823.97	25118
824.11	24920
824.25	24882
824.389	24897
824.529	25065
824.669	24920
824.809	24962
824.949	25027
825.089	24943
825.228	24992
825.368	24730
825.508	24623
825.648	24726
825.787	24821
825.927	24779
826.067	24745
826.206	24787
826.346	24886
826.485	24909
826.625	24719
826.765	24932
826.904	24856
827.044	24612
827.183	24437
827.323	24479
827.462	24604
827.601	24277
827.741	24532
827.88	24509
828.02	24300
828.159	24566
828.298	24559
828.437	24555
828.577	24365
828.716	24616
828.855	24353
828.994	24182
829.134	24136
829.273	24319
829.412	24216
829.551	24083
829.69	24155
829.829	24144
829.968	24369
830.107	24247
830.246	24190
830.385	24178
830.524	23961
830.663	23969
830.802	23843
830.941	23901
831.08	23843
831.219	23866
831.357	23863
831.496	24034
831.635	23771
831.774	23752
831.913	23577
832.051	23589
832.19	23566
832.329	23649
832.467	23611
832.606	23490
832.744	23467
832.883	23562
833.022	23345
833.16	23448
833.299	23425
833.437	23562
833.576	23482
833.714	23562
833.852	23619
833.991	23589
834.129	23779
834.267	23528
834.406	23615
834.544	23771
834.682	23452
834.821	23585
834.959	23687
835.097	23482
835.235	23611
835.373	23455
835.511	23627
835.65	23440
835.788	23490
835.926	23178
836.064	23140
836.202	23178
836.34	23482
836.478	23372
836.615	23318
836.753	23296
836.891	23452
837.029	23383
837.167	23265
837.305	23246
837.443	23250
837.58	23311
837.718	23368
837.856	23311
837.993	23174
838.131	23292
838.269	23227
838.406	23208
838.544	23098
838.681	22957
838.819	22949
838.956	22679
839.094	22771
839.231	22816
839.369	23003
839.506	23117
839.643	22927
839.781	22744
839.918	22748
840.055	22744
840.193	22710
840.33	22592
840.467	22672
840.604	22733
840.742	22911
840.879	22554
841.016	22694
841.153	22466
841.29	22710
841.427	22634
841.564	22713
841.701	22710
841.838	22618
841.975	22611
842.112	22630
842.249	22436
842.385	22550
842.522	22637
842.659	22599
842.796	22455
842.933	22489
843.069	22314
843.206	22329
843.343	22443
843.479	22455
843.616	22440
843.752	22295
843.889	22158
844.025	22413
844.162	22223
844.298	22367
844.435	22131
844.571	22234
844.708	22257
844.844	22310
844.98	22337
845.117	22318
845.253	22230
845.389	22131
845.525	22029
845.661	21941
845.798	21972
845.934	21975
846.07	21751
846.206	21816
846.342	22032
846.478	21888
846.614	21747
846.75	21629
846.886	21705
847.022	21785
847.158	21686
847.294	21568
847.429	21690
847.565	21724
847.701	21934
847.837	21416
847.972	21370
848.108	21504
848.244	21332
848.379	21313
848.515	21245
848.65	21329
848.786	21222
848.921	21332
849.057	21408
849.192	21367
849.328	21306
849.463	21317
849.598	21336
849.734	21211
849.869	21131
850.004	20994
850.14	21085
850.275	20994
850.41	21123
850.545	21005
850.68	20925
850.815	21077
850.95	21127
851.085	21245
851.22	21077
851.355	21055
851.49	21028
851.625	21009
851.76	21043
851.895	20921
852.03	20971
852.165	21085
852.299	21028
852.434	21127
852.569	21093
852.703	21047
852.838	21165
852.973	21077
853.107	21112
853.242	20986
853.376	20880
853.511	20861
853.645	20823
853.78	20910
853.914	20895
854.048	20819
854.183	20796
854.317	20937
854.451	20872
854.585	20899
854.72	20830
854.854	20823
854.988	20842
855.122	20883
855.256	20712
855.39	20849
855.524	20830
855.658	20941
855.792	20864
855.926	20838
856.06	20982
856.194	20952
856.327	20918
856.461	20712
856.595	20762
856.729	20804
856.862	20982
856.996	20758
857.13	20918
857.263	20842
857.397	21001
857.53	20952
857.664	20819
857.797	20872
857.931	21024
858.064	20982
858.197	21074
858.331	20872
858.464	20876
858.597	20830
858.731	20727
858.864	20891
858.997	20823
859.13	20971
859.263	20868
859.396	20952
859.529	20918
859.662	20849
859.795	20800
859.928	20929
860.061	21074
860.194	21096
860.327	20845
860.46	20834
860.592	20998
860.725	21077
860.858	20986
860.99	20876
861.123	20777
861.256	20811
861.388	20929
861.521	21553
861.653	20682
861.786	20575
861.918	20667
862.05	20804
862.183	20864
862.315	20754
862.447	20891
862.58	20788
862.712	20602
862.844	20579
862.976	20769
863.108	20644
863.24	21001
863.372	20545
863.504	20606
863.636	20541
863.768	20579
863.9	20514
864.032	20431
864.164	20465
864.296	20587
864.428	20754
864.559	20648
864.691	20670
864.823	20609
864.954	20533
865.086	20644
865.217	20438
865.349	20457
865.48	20587
865.612	20400
865.743	20552
865.875	20473
866.006	20438
866.137	20442
866.269	20469
866.4	20476
866.531	20454
866.662	20366
866.793	20446
866.924	20412
867.055	20328
867.186	20450
867.317	20457
867.448	20278
867.579	20396
867.71	20377
867.841	20343
867.972	20434
868.103	20404
868.233	20450
868.364	20313
868.495	20473
868.625	20655
868.756	20781
868.886	20556
869.017	20663
869.147	20868
869.278	20712
869.408	20632
869.539	20727
869.669	20682
869.799	20754
869.929	20807
870.06	20750
870.19	20975
870.32	20899
870.45	21066
870.58	20960
870.71	21268
870.84	21226
870.97	21074
871.1	21119
871.23	21138
871.36	21211
871.489	21211
871.619	21203
871.749	21252
871.879	21317
872.008	21507
872.138	21211
872.267	21348
872.397	21085
872.526	21074
872.656	21039
872.785	21256
872.915	21294
873.044	21332
873.173	21249
873.303	21279
873.432	21291
873.561	21367
873.69	21321
873.819	21268
873.948	21408
874.077	21272
874.206	21329
874.335	21207
874.464	21355
874.593	21542
874.722	21504
874.851	21526
874.979	21435
875.108	21511
875.237	21488
875.365	21428
875.494	21515
875.623	21504
875.751	21412
875.88	21526
876.008	21743
876.136	21671
876.265	21884
876.393	22002
876.521	22051
876.65	22048
876.778	22017
876.906	21899
877.034	21770
877.162	21922
877.29	21884
877.418	21869
877.546	22025
877.674	21911
877.802	21823
877.93	21850
878.058	21865
878.185	21747
878.313	21835
878.441	21808
878.568	21732
878.696	21797
878.824	21949
878.951	21956
879.079	22067
879.206	22131
879.333	22067
879.461	21915
879.588	22078
879.715	22131
879.842	22226
879.97	21895
880.097	21850
880.224	21739
880.351	21869
880.478	21701
880.605	21629
880.732	21804
880.859	22048
880.986	21675
881.112	21724
881.239	21542
881.366	21458
881.493	21393
881.619	21344
881.746	21310
881.872	21336
881.999	21230
882.125	21127
882.252	21233
882.378	21260
882.505	21401
882.631	21241
882.757	20979
882.883	21028
883.01	21013
883.136	20925
883.262	20918
883.388	20971
883.514	20876
883.64	21013
883.766	20895
883.892	20785
884.018	20845
884.143	20975
884.269	21093
884.395	20785
884.52	20571
884.646	20720
884.772	20579
884.897	20609
885.023	20659
885.148	20598
885.274	20842
885.399	20708
885.524	20625
885.65	20617
885.775	20606
885.9	20625
886.025	20834
886.15	20724
886.275	20598
886.4	20587
886.525	20693
886.65	20552
886.775	20530
886.9	20811
887.025	20914
887.149	20568
887.274	20507
887.399	20381
887.523	20362
887.648	20381
887.773	20324
887.897	20507
888.021	20419
888.146	20256
888.27	20545
888.395	20454
888.519	20511
888.643	20381
888.767	20480
888.891	20351
889.015	20130
889.139	20366
889.263	20126
889.387	20328
889.511	20374
889.635	20355
889.759	20176
889.883	20237
890.006	20206
890.13	20267
890.254	20054
890.377	20016
890.501	20016
890.624	19986
890.748	20073
890.871	19947
890.995	19833
891.118	19689
891.241	19826
891.364	19788
891.488	19875
891.611	19780
891.734	19921
891.857	19898
891.98	19795
892.103	19875
892.226	19791
892.349	19677
892.471	19491
892.594	19582
892.717	19704
892.839	19681
892.962	19681
893.085	19681
893.207	19769
893.33	19590
893.452	19609
893.575	19757
893.697	19696
893.819	19936
893.941	19864
894.064	19814
894.186	19578
894.308	19712
894.43	19852
894.552	19871
894.674	19696
894.796	19544
894.918	19731
895.04	19712
895.161	19807
895.283	19868
895.405	19655
895.526	19693
895.648	19502
895.769	19780
895.891	19723
896.012	19822
896.134	19734
896.255	19708
896.376	19704
896.498	19685
896.619	19803
896.74	19620
896.861	19753
896.982	20077
897.103	20237
897.224	19921
897.345	20031
897.466	19921
897.587	19803
897.708	19887
897.828	19936
897.949	19879
898.07	19689
898.19	19898
898.311	20031
898.431	19868
898.552	19970
898.672	19849
898.792	20065
898.913	19807
899.033	19826
899.153	19769
899.273	19635
899.393	19674
899.513	19795
899.633	19753
899.753	19784
899.873	19575
899.993	19712
900.113	19685
900.232	19666
900.352	19620
900.472	19483
900.591	19422
900.711	19552
900.83	19343
900.95	19525
901.069	19476
901.189	19324
901.308	19164
901.427	19069
901.546	18935
901.665	19046
901.784	19122
901.904	18932
902.023	18913
902.141	18566
902.26	18559
902.379	18798
902.498	18570
902.617	18509
902.735	18570
902.854	18471
902.973	18490
903.091	18125
903.21	18213
903.328	18194
903.446	18106
903.565	18064
903.683	18110
903.801	17916
903.919	17996
904.038	18049
904.156	17802
904.274	17885
904.392	17901
904.51	17809
904.627	17809
904.745	17923
904.863	17889
904.981	17726
905.098	17562
905.216	17459
905.334	17509
905.451	17573
905.569	17497
905.686	17604
905.803	17516
905.921	17220
906.038	17387
906.155	17379
906.272	17246
906.389	17261
906.506	17025
906.623	17128
906.74	16976
906.857	16885
906.974	16919
907.091	17029
907.208	17204
907.324	17041
907.441	16812
907.557	16733
907.674	16771
907.79	16664
907.907	16771
908.023	16801
908.139	16763
908.256	16694
908.372	16611
908.488	16645
908.604	16497
908.72	16371
908.836	16432
908.952	16481
909.068	16542
909.184	16588
909.3	16443
909.415	16440
909.531	16508
909.647	16173
909.762	16116
909.878	16059
909.993	16177
910.108	16261
910.224	16147
910.339	16166
910.454	16006
910.57	15956
910.685	15899
910.8	16169
910.915	16097
911.03	15903
911.145	15892
911.259	15816
911.374	15835
911.489	15671
911.604	15663
911.718	15591
911.833	15606
911.947	15473
912.062	15466
912.176	15557
912.291	15629
912.405	15568
912.519	15694
912.633	15633
912.748	15557
912.862	15454
912.976	15325
913.09	15370
913.204	15329
913.318	15481
913.431	15408
913.545	15401
913.659	15454
913.772	15237
913.886	15230
914	15173
914.113	15207
914.226	15249
914.34	15237
914.453	15100
914.566	15249
914.68	15070
914.793	15108
914.906	14891
915.019	14800
915.132	14693
915.245	14750
915.358	14887
915.47	14769
915.583	14807
915.696	14796
915.809	14842
915.921	14944
916.034	14785
916.146	14731
916.259	14720
916.371	14762
916.483	14807
916.595	14545
916.708	14625
916.82	14564
916.932	14549
917.044	14613
917.156	14404
917.268	14461
917.38	14419
917.491	14419
917.603	14450
917.715	14518
917.826	14507
917.938	14324
918.049	14206
918.161	14415
918.272	14522
918.384	14571
918.495	14415
918.606	14256
918.717	14142
918.828	14305
918.939	14313
919.05	14024
919.161	14157
919.272	14020
919.383	14062
919.494	14301
919.604	14457
919.715	14210
919.826	14164
919.936	14088
920.047	14206
920.157	14187
920.267	14309
920.378	14214
920.488	14107
920.598	14339
920.708	14606
920.818	14408
920.928	14267
921.038	14503
921.148	14431
921.258	14282
921.368	14084
921.477	13989
921.587	13852
921.697	13837
921.806	13921
921.916	13715
922.025	13636
922.134	13639
922.244	13525
922.353	13586
922.462	13495
922.571	13392
922.68	13377
922.789	13221
922.898	13251
923.007	13198
923.116	13247
923.224	13327
923.333	13293
923.442	13137
923.55	13046
923.659	13110
923.767	13198
923.876	13103
923.984	13118
924.092	13114
924.201	12985
924.309	13008
924.417	12996
924.525	12951
924.633	12867
924.741	13841
924.849	12776
924.956	12867
925.064	12795
925.172	12681
925.279	12703
925.387	12764
925.494	12677
925.602	12840
925.709	12715
925.816	12555
925.924	12662
926.031	12757
926.138	12612
926.245	12635
926.352	12532
926.459	12715
926.566	12688
926.673	12544
926.779	12502
926.886	12414
926.993	12388
927.099	12372
927.206	12182
927.312	12330
927.419	12292
927.525	12311
927.631	12262
927.737	12148
927.843	12148
927.95	11999
928.056	12015
928.162	12190
928.267	12182
928.373	12700
928.479	12201
928.585	11954
928.69	12064
928.796	12140
928.901	11984
929.007	11843
929.112	11870
929.218	11927
929.323	11916
929.428	11843
929.533	11908
929.638	11745
929.743	11786
929.848	11802
929.953	11752
930.058	11661
930.163	11577
930.267	11585
930.372	11570
930.477	11535
930.581	11710
930.685	11596
930.79	11322
930.894	11433
930.998	11490
931.103	11512
931.207	11159
931.311	11071
931.415	11014
931.519	10797
931.623	10793
