Data from test_V78500241_2680.txt Node
Date: Fri Mar 25 15:28:31 CST 2022
User: usil
Spectrometer: V785-0024
Trigger mode: 0
Integration Time (sec): 4.000000E-1
Scans to average: 1
Nonlinearity correction enabled: false
Boxcar width: 0
Storing dark spectrum: false
XAxis mode: Wavelengths
Number of Pixels in Spectrum: 1024
>>>>>Begin Spectral Data<<<<<
801.071	27070
801.214	26914
801.356	26785
801.499	26792
801.641	26514
801.783	26571
801.926	26609
802.068	26640
802.211	26514
802.353	26313
802.496	26176
802.638	26244
802.78	26225
802.923	26149
803.065	26153
803.208	26145
803.35	26305
803.492	26377
803.635	26457
803.777	26210
803.919	26400
804.061	26716
804.204	26492
804.346	26218
804.488	26389
804.63	26526
804.773	26183
804.915	26457
805.057	26575
805.199	26423
805.341	26347
805.483	26400
805.626	26457
805.768	26305
805.91	26514
806.052	26419
806.194	26347
806.336	26648
806.478	26473
806.62	26393
806.762	26606
806.904	26739
807.046	26982
807.188	27081
807.33	26857
807.472	27001
807.614	26868
807.756	26777
807.898	26674
808.04	26712
808.182	26667
808.324	26895
808.465	26842
808.607	26823
808.749	26963
808.891	27268
809.033	27112
809.174	27058
809.316	27005
809.458	26994
809.6	26990
809.741	27237
809.883	27180
810.025	27298
810.166	27481
810.308	27374
810.45	27298
810.591	27188
810.733	27085
810.875	26982
811.016	26819
811.158	27062
811.299	27131
811.441	27207
811.582	27108
811.724	27131
811.865	27093
812.007	27055
812.148	27062
812.29	27043
812.431	27135
812.573	27291
812.714	27462
812.855	27557
812.997	27755
813.138	27747
813.279	27652
813.421	27641
813.562	27507
813.703	27203
813.845	27287
813.986	26864
814.127	26933
814.268	26716
814.41	26667
814.551	26594
814.692	26834
814.833	26659
814.974	26602
815.115	26686
815.256	26598
815.397	26568
815.539	26560
815.68	26374
815.821	26336
815.962	26404
816.103	26617
816.244	26294
816.385	26191
816.526	26221
816.666	26103
816.807	25989
816.948	25963
817.089	26065
817.23	26111
817.371	26016
817.512	25909
817.653	25890
817.793	25761
817.934	25887
818.075	25906
818.216	25970
818.356	25902
818.497	25898
818.638	25658
818.778	25601
818.919	25715
819.06	25738
819.2	26039
819.341	26039
819.481	25871
819.622	25982
819.762	26229
819.903	26077
820.043	26149
820.184	25986
820.324	26058
820.465	26157
820.605	25947
820.746	25989
820.886	25906
821.026	26084
821.167	25951
821.307	26119
821.447	25944
821.588	25837
821.728	25791
821.868	25597
822.008	25362
822.149	25392
822.289	25293
822.429	25076
822.569	24996
822.709	25103
822.849	24996
822.99	25072
823.13	24825
823.27	24962
823.41	24650
823.55	24711
823.69	24802
823.83	24821
823.97	24787
824.11	24490
824.25	24494
824.389	24608
824.529	24601
824.669	24483
824.809	24779
824.949	24593
825.089	24639
825.228	24593
825.368	24403
825.508	24445
825.648	24528
825.787	24494
825.927	24441
826.067	24353
826.206	24445
826.346	24330
826.485	24521
826.625	24490
826.765	24505
826.904	24475
827.044	24197
827.183	24327
827.323	24114
827.462	24171
827.601	24114
827.741	24129
827.88	24102
828.02	24121
828.159	24205
828.298	24167
828.437	24197
828.577	24083
828.716	24220
828.855	23969
828.994	23840
829.134	23764
829.273	23836
829.412	23809
829.551	23718
829.69	23889
829.829	23847
829.968	23851
830.107	23805
830.246	23882
830.385	23790
830.524	23832
830.663	23805
830.802	23611
830.941	23623
831.08	23474
831.219	23623
831.357	23474
831.496	23649
831.635	23414
831.774	23269
831.913	23395
832.051	23178
832.19	23280
832.329	23166
832.467	23227
832.606	23098
832.744	23086
832.883	23216
833.022	23064
833.16	23212
833.299	23174
833.437	23128
833.576	23311
833.714	23353
833.852	23258
833.991	23220
834.129	23299
834.267	23227
834.406	23322
834.544	23269
834.682	23185
834.821	23006
834.959	23395
835.097	23280
835.235	23102
835.373	23235
835.511	23102
835.65	22999
835.788	23044
835.926	23029
836.064	22892
836.202	22976
836.34	22987
836.478	23151
836.615	23022
836.753	22885
836.891	23128
837.029	23147
837.167	23086
837.305	23003
837.443	22927
837.58	22949
837.718	23086
837.856	22790
837.993	22934
838.131	22866
838.269	22835
838.406	22862
838.544	22793
838.681	22535
838.819	22508
838.956	22394
839.094	22470
839.231	22459
839.369	22413
839.506	22873
839.643	22672
839.781	22382
839.918	22360
840.055	22310
840.193	22299
840.33	22166
840.467	22310
840.604	22405
840.742	22561
840.879	22120
841.016	22325
841.153	22207
841.29	22428
841.427	22322
841.564	22409
841.701	22375
841.838	22101
841.975	22166
842.112	22246
842.249	22169
842.385	22287
842.522	22238
842.659	22158
842.796	22044
842.933	22097
843.069	22025
843.206	22070
843.343	22032
843.479	21998
843.616	21975
843.752	21808
843.889	21724
844.025	21975
844.162	21819
844.298	21934
844.435	21846
844.571	21789
844.708	21937
844.844	22017
844.98	22139
845.117	22021
845.253	21774
845.389	21778
845.525	21789
845.661	21663
845.798	21568
845.934	21739
846.07	21500
846.206	21603
846.342	21812
846.478	21561
846.614	21374
846.75	21283
846.886	21260
847.022	21386
847.158	21469
847.294	21325
847.429	21412
847.565	21363
847.701	21561
847.837	21108
847.972	21055
848.108	21165
848.244	21173
848.379	20963
848.515	20857
848.65	21024
848.786	20944
848.921	20906
849.057	21039
849.192	20941
849.328	20956
849.463	20944
849.598	20830
849.734	20857
849.869	20792
850.004	20705
850.14	20724
850.275	20701
850.41	20648
850.545	20701
850.68	20617
850.815	20621
850.95	20655
851.085	20918
851.22	20800
851.355	20743
851.49	20716
851.625	20758
851.76	20659
851.895	20545
852.03	20678
852.165	20674
852.299	20735
852.434	20727
852.569	20746
852.703	20621
852.838	20678
852.973	20830
853.107	20868
853.242	20545
853.376	20526
853.511	20400
853.645	20503
853.78	20617
853.914	20545
854.048	20469
854.183	20511
854.317	20514
854.451	20613
854.585	20518
854.72	20571
854.854	20495
854.988	20442
855.122	20560
855.256	20389
855.39	20492
855.524	20587
855.658	20492
855.792	20568
855.926	20670
856.06	20457
856.194	20686
856.327	20503
856.461	20480
856.595	20339
856.729	20552
856.862	20678
856.996	20511
857.13	20568
857.263	20503
857.397	20689
857.53	20518
857.664	20552
857.797	20541
857.931	20689
858.064	20598
858.197	20568
858.331	20419
858.464	20377
858.597	20400
858.731	20503
858.864	20503
858.997	20389
859.13	20457
859.263	20541
859.396	20598
859.529	20484
859.662	20526
859.795	20575
859.928	20495
860.061	20674
860.194	20632
860.327	20549
860.46	20446
860.592	20640
860.725	20667
860.858	20617
860.99	20492
861.123	20427
861.256	20545
861.388	20415
861.521	21397
861.653	20377
861.786	20423
861.918	20385
862.05	20518
862.183	20362
862.315	20545
862.447	20503
862.58	20336
862.712	20172
862.844	20271
862.976	20332
863.108	20290
863.24	20746
863.372	20126
863.504	20183
863.636	20237
863.768	20122
863.9	20210
864.032	20176
864.164	20134
864.296	20195
864.428	20313
864.559	20294
864.691	20343
864.823	20271
864.954	20256
865.086	20225
865.217	20202
865.349	20043
865.48	20096
865.612	20122
865.743	20301
865.875	20138
866.006	20077
866.137	20077
866.269	20081
866.4	20119
866.531	19936
866.662	20069
866.793	19978
866.924	20062
867.055	20077
867.186	20050
867.317	19982
867.448	19890
867.579	20046
867.71	20031
867.841	20012
867.972	19986
868.103	19989
868.233	20161
868.364	20126
868.495	20206
868.625	20320
868.756	20419
868.886	20271
869.017	20233
869.147	20492
869.278	20374
869.408	20252
869.539	20351
869.669	20393
869.799	20355
869.929	20381
870.06	20332
870.19	20549
870.32	20568
870.45	20659
870.58	20724
870.71	20785
870.84	20750
870.97	20739
871.1	20804
871.23	20929
871.36	20906
871.489	20899
871.619	20883
871.749	20906
871.879	20899
872.008	21093
872.138	20952
872.267	20986
872.397	20750
872.526	20750
872.656	20800
872.785	20697
872.915	20925
873.044	20979
873.173	20998
873.303	20979
873.432	21058
873.561	21001
873.69	20944
873.819	20986
873.948	21036
874.077	20914
874.206	20872
874.335	20986
874.464	21024
874.593	21230
874.722	21096
874.851	21176
874.979	21165
875.108	21249
875.237	21074
875.365	21150
875.494	21074
875.623	21146
875.751	21279
875.88	21279
876.008	21317
876.136	21351
876.265	21644
876.393	21595
876.521	21595
876.65	21603
876.778	21587
876.906	21583
877.034	21542
877.162	21629
877.29	21504
877.418	21485
877.546	21507
877.674	21610
877.802	21538
877.93	21523
878.058	21500
878.185	21393
878.313	21542
878.441	21431
878.568	21367
878.696	21477
878.824	21515
878.951	21652
879.079	21713
879.206	21713
879.333	21682
879.461	21542
879.588	21713
879.715	21660
879.842	21778
879.97	21606
880.097	21344
880.224	21355
880.351	21397
880.478	21443
880.605	21298
880.732	21348
880.859	21606
880.986	21302
881.112	21389
881.239	21275
881.366	21039
881.493	21036
881.619	21028
881.746	20990
881.872	20906
881.999	20868
882.125	20994
882.252	20967
882.378	21047
882.505	21001
882.631	20861
882.757	20670
882.883	20762
883.01	20724
883.136	20602
883.262	20381
883.388	20492
883.514	20651
883.64	20697
883.766	20549
883.892	20495
884.018	20377
884.143	20648
884.269	20758
884.395	20408
884.52	20313
884.646	20313
884.772	20161
884.897	20202
885.023	20301
885.148	20298
885.274	20419
885.399	20298
885.524	20419
885.65	20282
885.775	20381
885.9	20275
886.025	20298
886.15	20339
886.275	20320
886.4	20202
886.525	20317
886.65	20336
886.775	20119
886.9	20526
887.025	20476
887.149	20214
887.274	20054
887.399	20100
887.523	20039
887.648	20020
887.773	20062
887.897	20077
888.021	20062
888.146	19947
888.27	20050
888.395	20138
888.519	20180
888.643	20103
888.767	20043
888.891	20001
889.015	19879
889.139	19986
889.263	19780
889.387	19928
889.511	20130
889.635	20172
889.759	19940
889.883	19871
890.006	19856
890.13	19986
890.254	19830
890.377	19750
890.501	19635
890.624	19742
890.748	19742
890.871	19578
890.995	19514
891.118	19400
891.241	19441
891.364	19559
891.488	19594
891.611	19453
891.734	19559
891.857	19514
891.98	19578
892.103	19540
892.226	19605
892.349	19381
892.471	19331
892.594	19362
892.717	19453
892.839	19441
892.962	19396
893.085	19449
893.207	19373
893.33	19419
893.452	19259
893.575	19525
893.697	19381
893.819	19609
893.941	19575
894.064	19445
894.186	19384
894.308	19327
894.43	19525
894.552	19472
894.674	19426
894.796	19270
894.918	19289
895.04	19354
895.161	19468
895.283	19430
895.405	19369
895.526	19304
895.648	19365
895.769	19514
895.891	19468
896.012	19422
896.134	19502
896.255	19411
896.376	19202
896.498	19339
896.619	19457
896.74	19510
896.861	19472
896.982	19708
897.103	19852
897.224	19670
897.345	19674
897.466	19613
897.587	19601
897.708	19658
897.828	19655
897.949	19639
898.07	19453
898.19	19620
898.311	19719
898.431	19578
898.552	19643
898.672	19769
898.792	19715
898.913	19635
899.033	19556
899.153	19354
899.273	19320
899.393	19381
899.513	19521
899.633	19396
899.753	19396
899.873	19373
899.993	19438
900.113	19419
900.232	19350
900.352	19282
900.472	19190
900.591	19171
900.711	19225
900.83	19228
900.95	19232
901.069	19228
901.189	19107
901.308	18897
901.427	18734
901.546	18753
901.665	18703
901.784	18768
901.904	18502
902.023	18715
902.141	18376
902.26	18357
902.379	18528
902.498	18273
902.617	18327
902.735	18350
902.854	18327
902.973	18247
903.091	17984
903.21	18022
903.328	17954
903.446	17851
903.565	17790
903.683	17863
903.801	17600
903.919	17817
904.038	17604
904.156	17619
904.274	17646
904.392	17429
904.51	17493
904.627	17524
904.745	17585
904.863	17623
904.981	17402
905.098	17299
905.216	17277
905.334	17254
905.451	17143
905.569	17086
905.686	17250
905.803	17086
905.921	17086
906.038	17151
906.155	17064
906.272	16885
906.389	17064
906.506	16694
906.623	16767
906.74	16748
906.857	16622
906.974	16645
907.091	16793
907.208	16938
907.324	16759
907.441	16774
907.557	16455
907.674	16443
907.79	16398
907.907	16523
908.023	16447
908.139	16478
908.256	16459
908.372	16413
908.488	16333
908.604	16272
908.72	16188
908.836	16234
908.952	16242
909.068	16261
909.184	16360
909.3	16116
909.415	16257
909.531	16185
909.647	15956
909.762	15972
909.878	15941
909.993	16048
910.108	15911
910.224	15983
910.339	15873
910.454	15774
910.57	15728
910.685	15667
910.8	15972
910.915	15812
911.03	15743
911.145	15606
911.259	15515
911.374	15507
911.489	15447
911.604	15359
911.718	15351
911.833	15306
911.947	15329
912.062	15180
912.176	15336
912.291	15340
912.405	15340
912.519	15488
912.633	15538
912.748	15329
912.862	15340
912.976	15199
913.09	15017
913.204	15077
913.318	15127
913.431	15192
913.545	15173
913.659	15218
913.772	15093
913.886	15043
914	14944
914.113	15039
914.226	15070
914.34	14925
914.453	14819
914.566	14990
914.68	14834
914.793	14708
914.906	14651
915.019	14552
915.132	14541
915.245	14545
915.358	14545
915.47	14549
915.583	14450
915.696	14545
915.809	14727
915.921	14617
916.034	14522
916.146	14320
916.259	14431
916.371	14526
916.483	14450
916.595	14476
916.708	14389
916.82	14374
916.932	14473
917.044	14374
917.156	14385
917.268	14142
917.38	14149
917.491	14195
917.603	14282
917.715	14275
917.826	14362
917.938	14149
918.049	14092
918.161	14202
918.272	14332
918.384	14267
918.495	14259
918.606	14069
918.717	13955
918.828	14065
918.939	13982
919.05	13944
919.161	13936
919.272	13811
919.383	13845
919.494	13963
919.604	14191
919.715	14043
919.826	13879
919.936	13898
920.047	14077
920.157	14016
920.267	14031
920.378	14027
920.488	13967
920.598	14054
920.708	14229
920.818	14176
920.928	14012
921.038	14218
921.148	14157
921.258	13959
921.368	13753
921.477	13746
921.587	13769
921.697	13529
921.806	13727
921.916	13571
922.025	13400
922.134	13434
922.244	13289
922.353	13369
922.462	13331
922.571	13160
922.68	13091
922.789	12989
922.898	13168
923.007	13019
923.116	12996
923.224	13053
923.333	13129
923.442	12825
923.55	12890
923.659	12856
923.767	12935
923.876	12791
923.984	12886
924.092	12760
924.201	12776
924.309	12776
924.417	12768
924.525	12635
924.633	12692
924.741	13594
924.849	12532
924.956	12608
925.064	12452
925.172	12403
925.279	12448
925.387	12525
925.494	12395
925.602	12570
925.709	12547
925.816	12384
925.924	12422
926.031	12464
926.138	12399
926.245	12517
926.352	12292
926.459	12498
926.566	12452
926.673	12243
926.779	12262
926.886	12216
926.993	12102
927.099	12045
927.206	12007
927.312	11977
927.419	12060
927.525	12007
927.631	12106
927.737	11855
927.843	11912
927.95	11817
928.056	11912
928.162	11836
928.267	11980
928.373	12467
928.479	11901
928.585	11729
928.69	11767
928.796	11916
928.901	11707
929.007	11581
929.112	11748
929.218	11745
929.323	11680
929.428	11653
929.533	11733
929.638	11577
929.743	11543
929.848	11570
929.953	11589
930.058	11486
930.163	11284
930.267	11307
930.372	11478
930.477	11258
930.581	11406
930.685	11330
930.79	11220
930.894	11330
930.998	11121
931.103	11326
931.207	10854
931.311	10881
931.415	10809
931.519	10592
931.623	10550
