Data from test_V78500241_1453.txt Node
Date: Fri Mar 25 15:19:58 CST 2022
User: usil
Spectrometer: V785-0024
Trigger mode: 0
Integration Time (sec): 4.000000E-1
Scans to average: 1
Nonlinearity correction enabled: false
Boxcar width: 0
Storing dark spectrum: false
XAxis mode: Wavelengths
Number of Pixels in Spectrum: 1024
>>>>>Begin Spectral Data<<<<<
801.071	28120
801.214	27907
801.356	27774
801.499	27701
801.641	27496
801.783	27492
801.926	27538
802.068	27488
802.211	27679
802.353	27435
802.496	27340
802.638	27199
802.78	27192
802.923	27192
803.065	27104
803.208	27127
803.35	27207
803.492	27363
803.635	27336
803.777	27222
803.919	27344
804.061	27599
804.204	27431
804.346	27431
804.488	27272
804.63	27530
804.773	27374
804.915	27416
805.057	27515
805.199	27416
805.341	27496
805.483	27511
805.626	27660
805.768	27378
805.91	27504
806.052	27572
806.194	27523
806.336	27709
806.478	27466
806.62	27587
806.762	27694
806.904	27778
807.046	28040
807.188	27865
807.33	28025
807.472	28120
807.614	27861
807.756	27835
807.898	27778
808.04	27762
808.182	27667
808.324	27770
808.465	27857
808.607	28078
808.749	28169
808.891	28249
809.033	28421
809.174	28322
809.316	28147
809.458	28063
809.6	28112
809.741	28284
809.883	28356
810.025	28440
810.166	28436
810.308	28512
810.45	28470
810.591	28314
810.733	28207
810.875	28272
811.016	27945
811.158	28032
811.299	28310
811.441	28447
811.582	28390
811.724	28261
811.865	28291
812.007	28181
812.148	28051
812.29	28242
812.431	28341
812.573	28527
812.714	28713
812.855	28778
812.997	28774
813.138	28915
813.279	28831
813.421	28748
813.562	28535
813.703	28611
813.845	28573
813.986	28215
814.127	28097
814.268	27949
814.41	28051
814.551	27778
814.692	27945
814.833	27876
814.974	27838
815.115	28013
815.256	27930
815.397	27842
815.539	27778
815.68	27762
815.821	27637
815.962	27747
816.103	27812
816.244	27667
816.385	27557
816.526	27469
816.666	27431
816.807	27279
816.948	27237
817.089	27275
817.23	27291
817.371	27150
817.512	27264
817.653	27283
817.793	27184
817.934	27207
818.075	27230
818.216	27192
818.356	27252
818.497	27089
818.638	26899
818.778	26979
818.919	26880
819.06	27116
819.2	27104
819.341	27100
819.481	27230
819.622	27545
819.762	27629
819.903	27393
820.043	27348
820.184	27298
820.324	27268
820.465	27367
820.605	27321
820.746	27268
820.886	27096
821.026	27188
821.167	27165
821.307	27458
821.447	27146
821.588	27104
821.728	26937
821.868	26823
822.008	26788
822.149	26670
822.289	26667
822.429	26461
822.569	26389
822.709	26267
822.849	26157
822.99	26278
823.13	26256
823.27	26096
823.41	26001
823.55	25822
823.69	25894
823.83	26024
823.97	25776
824.11	25784
824.25	25830
824.389	25738
824.529	25814
824.669	25814
824.809	26016
824.949	25890
825.089	25925
825.228	25936
825.368	25681
825.508	25674
825.648	25674
825.787	25791
825.927	25765
826.067	25655
826.206	25567
826.346	25742
826.485	25518
826.625	25586
826.765	25670
826.904	25734
827.044	25453
827.183	25506
827.323	25365
827.462	25384
827.601	25499
827.741	25441
827.88	25415
828.02	25384
828.159	25392
828.298	25472
828.437	25381
828.577	25312
828.716	25457
828.855	25259
828.994	25050
829.134	25232
829.273	25179
829.412	25069
829.551	25095
829.69	25042
829.829	25122
829.968	25148
830.107	25091
830.246	25110
830.385	24943
830.524	25015
830.663	24890
830.802	24890
830.941	24806
831.08	24650
831.219	24817
831.357	24776
831.496	24909
831.635	24734
831.774	24612
831.913	24589
832.051	24528
832.19	24517
832.329	24593
832.467	24403
832.606	24334
832.744	24414
832.883	24388
833.022	24194
833.16	24319
833.299	24490
833.437	24422
833.576	24418
833.714	24437
833.852	24437
833.991	24460
834.129	24642
834.267	24452
834.406	24403
834.544	24544
834.682	24479
834.821	24308
834.959	24540
835.097	24289
835.235	24517
835.373	24308
835.511	24342
835.65	24323
835.788	24224
835.926	24201
836.064	24064
836.202	24167
836.34	24190
836.478	24456
836.615	24121
836.753	24201
836.891	24323
837.029	24182
837.167	24205
837.305	24106
837.443	24121
837.58	24003
837.718	24125
837.856	24087
837.993	23999
838.131	24011
838.269	23935
838.406	23984
838.544	23901
838.681	23714
838.819	23486
838.956	23516
839.094	23573
839.231	23623
839.369	23653
839.506	24015
839.643	23950
839.781	23562
839.918	23448
840.055	23497
840.193	23512
840.33	23436
840.467	23482
840.604	23535
840.742	23600
840.879	23334
841.016	23421
841.153	23326
841.29	23543
841.427	23368
841.564	23444
841.701	23349
841.838	23459
841.975	23402
842.112	23349
842.249	23303
842.385	23083
842.522	23280
842.659	23337
842.796	23174
842.933	23151
843.069	23170
843.206	23136
843.343	23269
843.479	23307
843.616	23147
843.752	22965
843.889	22953
844.025	23132
844.162	22946
844.298	23006
844.435	22980
844.571	23052
844.708	23029
844.844	23178
844.98	23075
845.117	23136
845.253	22991
845.389	22759
845.525	22835
845.661	22637
845.798	22694
845.934	22812
846.07	22645
846.206	22725
846.342	22858
846.478	22683
846.614	22573
846.75	22398
846.886	22371
847.022	22455
847.158	22500
847.294	22432
847.429	22504
847.565	22398
847.701	22649
847.837	22181
847.972	22135
848.108	22322
848.244	22299
848.379	22116
848.515	21873
848.65	22055
848.786	22116
848.921	22128
849.057	22139
849.192	22261
849.328	22074
849.463	22067
849.598	21960
849.734	22006
849.869	21880
850.004	21766
850.14	21880
850.275	21835
850.41	21751
850.545	21797
850.68	21705
850.815	21842
850.95	21823
851.085	21991
851.22	21857
851.355	21895
851.49	21861
851.625	21747
851.76	21778
851.895	21690
852.03	21720
852.165	21804
852.299	21739
852.434	21953
852.569	21778
852.703	21732
852.838	21937
852.973	22025
853.107	21983
853.242	21816
853.376	21637
853.511	21595
853.645	21545
853.78	21770
853.914	21667
854.048	21690
854.183	21583
854.317	21667
854.451	21755
854.585	21603
854.72	21530
854.854	21682
854.988	21622
855.122	21633
855.256	21534
855.39	21564
855.524	21717
855.658	21739
855.792	21553
855.926	21682
856.06	21679
856.194	21724
856.327	21618
856.461	21618
856.595	21481
856.729	21587
856.862	21816
856.996	21694
857.13	21827
857.263	21766
857.397	21778
857.53	21728
857.664	21698
857.797	21759
857.931	21663
858.064	21591
858.197	21778
858.331	21724
858.464	21606
858.597	21511
858.731	21629
858.864	21614
858.997	21614
859.13	21595
859.263	21717
859.396	21709
859.529	21610
859.662	21595
859.795	21583
859.928	21667
860.061	21876
860.194	21903
860.327	21793
860.46	21542
860.592	21842
860.725	21770
860.858	21762
860.99	21652
861.123	21507
861.256	21618
861.388	21698
861.521	22173
861.653	21507
861.786	21329
861.918	21500
862.05	21500
862.183	21519
862.315	21580
862.447	21633
862.58	21576
862.712	21393
862.844	21264
862.976	21450
863.108	21389
863.24	21842
863.372	21325
863.504	21348
863.636	21389
863.768	21367
863.9	21317
864.032	21294
864.164	21272
864.296	21416
864.428	21530
864.559	21462
864.691	21374
864.823	21386
864.954	21252
865.086	21348
865.217	21275
865.349	21298
865.48	21329
865.612	21218
865.743	21294
865.875	21260
866.006	21275
866.137	21188
866.269	21131
866.4	21207
866.531	21081
866.662	21089
866.793	21119
866.924	21116
867.055	21218
867.186	21108
867.317	21184
867.448	21032
867.579	21218
867.71	20986
867.841	21150
867.972	21089
868.103	21135
868.233	21245
868.364	21249
868.495	21222
868.625	21424
868.756	21477
868.886	21374
869.017	21454
869.147	21382
869.278	21507
869.408	21462
869.539	21329
869.669	21439
869.799	21424
869.929	21618
870.06	21606
870.19	21720
870.32	21679
870.45	21728
870.58	21728
870.71	21876
870.84	21941
870.97	21812
871.1	21865
871.23	21854
871.36	21953
871.489	21873
871.619	21964
871.749	21994
871.879	22036
872.008	22078
872.138	21991
872.267	21945
872.397	21869
872.526	21831
872.656	21701
872.785	21785
872.915	21861
873.044	22154
873.173	22074
873.303	21975
873.432	21991
873.561	22181
873.69	21956
873.819	22006
873.948	22154
874.077	22025
874.206	21892
874.335	21915
874.464	22112
874.593	22234
874.722	22272
874.851	22306
874.979	22150
875.108	22280
875.237	22226
875.365	22196
875.494	22333
875.623	22223
875.751	22242
875.88	22211
876.008	22287
876.136	22386
876.265	22649
876.393	22668
876.521	22687
876.65	22729
876.778	22504
876.906	22656
877.034	22645
877.162	22580
877.29	22637
877.418	22637
877.546	22577
877.674	22538
877.802	22478
877.93	22687
878.058	22550
878.185	22440
878.313	22565
878.441	22531
878.568	22516
878.696	22481
878.824	22615
878.951	22725
879.079	22641
879.206	22839
879.333	22698
879.461	22592
879.588	22645
879.715	22713
879.842	22892
879.97	22569
880.097	22398
880.224	22451
880.351	22584
880.478	22417
880.605	22306
880.732	22360
880.859	22504
880.986	22424
881.112	22360
881.239	22272
881.366	22173
881.493	21987
881.619	21945
881.746	21983
881.872	21987
881.999	21865
882.125	21869
882.252	21926
882.378	21945
882.505	22044
882.631	21869
882.757	21797
882.883	21720
883.01	21732
883.136	21671
883.262	21542
883.388	21511
883.514	21701
883.64	21656
883.766	21561
883.892	21530
884.018	21431
884.143	21568
884.269	21694
884.395	21447
884.52	21321
884.646	21230
884.772	21192
884.897	21245
885.023	21252
885.148	21420
885.274	21523
885.399	21370
885.524	21283
885.65	21332
885.775	21260
885.9	21272
886.025	21340
886.15	21359
886.275	21222
886.4	21169
886.525	21340
886.65	21233
886.775	21313
886.9	21272
887.025	21500
887.149	21192
887.274	21108
887.399	21108
887.523	20971
887.648	21001
887.773	21055
887.897	21066
888.021	21119
888.146	21108
888.27	21123
888.395	21150
888.519	21085
888.643	21100
888.767	21142
888.891	21051
889.015	20872
889.139	20857
889.263	20823
889.387	20967
889.511	20902
889.635	21013
889.759	20849
889.883	20853
890.006	20921
890.13	21013
890.254	20758
890.377	20701
890.501	20705
890.624	20583
890.748	20663
890.871	20579
890.995	20355
891.118	20473
891.241	20438
891.364	20446
891.488	20552
891.611	20427
891.734	20415
891.857	20389
891.98	20313
892.103	20370
892.226	20469
892.349	20427
892.471	20202
892.594	20324
892.717	20355
892.839	20355
892.962	20313
893.085	20396
893.207	20244
893.33	20145
893.452	20305
893.575	20381
893.697	20168
893.819	20552
893.941	20571
894.064	20374
894.186	20214
894.308	20294
894.43	20366
894.552	20423
894.674	20442
894.796	20218
894.918	20275
895.04	20271
895.161	20393
895.283	20332
895.405	20286
895.526	20317
895.648	20267
895.769	20393
895.891	20294
896.012	20484
896.134	20336
896.255	20385
896.376	20252
896.498	20309
896.619	20351
896.74	20286
896.861	20336
896.982	20579
897.103	20834
897.224	20537
897.345	20541
897.466	20389
897.587	20431
897.708	20617
897.828	20530
897.949	20412
898.07	20282
898.19	20389
898.311	20598
898.431	20556
898.552	20545
898.672	20598
898.792	20609
898.913	20579
899.033	20442
899.153	20336
899.273	20301
899.393	20252
899.513	20317
899.633	20286
899.753	20298
899.873	20248
899.993	20343
900.113	20176
900.232	20244
900.352	20240
900.472	20111
900.591	20065
900.711	20191
900.83	20073
900.95	20218
901.069	20092
901.189	19883
901.308	19731
901.427	19624
901.546	19632
901.665	19605
901.784	19521
901.904	19457
902.023	19301
902.141	19225
902.26	19209
902.379	19320
902.498	19053
902.617	19255
902.735	19240
902.854	19198
902.973	19034
903.091	18825
903.21	18726
903.328	18859
903.446	18684
903.565	18631
903.683	18654
903.801	18525
903.919	18650
904.038	18582
904.156	18399
904.274	18528
904.392	18426
904.51	18407
904.627	18361
904.745	18471
904.863	18418
904.981	18270
905.098	18045
905.216	18030
905.334	17980
905.451	18110
905.569	18022
905.686	18049
905.803	18087
905.921	17946
906.038	17942
906.155	17889
906.272	17699
906.389	17718
906.506	17630
906.623	17581
906.74	17554
906.857	17433
906.974	17425
907.091	17665
907.208	17691
907.324	17547
907.441	17471
907.557	17307
907.674	17337
907.79	17216
907.907	17318
908.023	17261
908.139	17315
908.256	17277
908.372	17170
908.488	17124
908.604	17090
908.72	17048
908.836	16995
908.952	17022
909.068	17193
909.184	17067
909.3	17010
909.415	16976
909.531	17006
909.647	16778
909.762	16675
909.878	16656
909.993	16740
910.108	16748
910.224	16710
910.339	16653
910.454	16535
910.57	16535
910.685	16443
910.8	16660
910.915	16615
911.03	16493
911.145	16284
911.259	16291
911.374	16390
911.489	16242
911.604	16185
911.718	16048
911.833	16006
911.947	15941
912.062	15850
912.176	15941
912.291	16006
912.405	15975
912.519	16139
912.633	16109
912.748	16128
912.862	15979
912.976	15846
913.09	15724
913.204	15709
913.318	15880
913.431	15964
913.545	15857
913.659	15892
913.772	15812
913.886	15778
914	15679
914.113	15842
914.226	15755
914.34	15774
914.453	15469
914.566	15603
914.68	15633
914.793	15538
914.906	15363
915.019	15264
915.132	15188
915.245	15226
915.358	15275
915.47	15214
915.583	15321
915.696	15386
915.809	15416
915.921	15405
916.034	15203
916.146	15146
916.259	15123
916.371	15287
916.483	15169
916.595	15150
916.708	15142
916.82	15142
916.932	15077
917.044	15020
917.156	15055
917.268	14914
917.38	14891
917.491	14960
917.603	14906
917.715	15043
917.826	15032
917.938	14853
918.049	14868
918.161	14933
918.272	15013
918.384	14979
918.495	14876
918.606	14716
918.717	14693
918.828	14716
918.939	14693
919.05	14598
919.161	14746
919.272	14488
919.383	14522
919.494	14651
919.604	14880
919.715	14769
919.826	14610
919.936	14594
920.047	14678
920.157	14629
920.267	14842
920.378	14689
920.488	14606
920.598	14853
920.708	14849
920.818	14765
920.928	14842
921.038	15024
921.148	14845
921.258	14511
921.368	14564
921.477	14507
921.587	14404
921.697	14237
921.806	14427
921.916	14355
922.025	14039
922.134	14134
922.244	13860
922.353	14103
922.462	13845
922.571	13818
922.68	13708
922.789	13715
922.898	13696
923.007	13689
923.116	13715
923.224	13712
923.333	13704
923.442	13483
923.55	13487
923.659	13521
923.767	13559
923.876	13468
923.984	13537
924.092	13441
924.201	13407
924.309	13472
924.417	13491
924.525	13350
924.633	13381
924.741	14096
924.849	13164
924.956	13301
925.064	13175
925.172	13012
925.279	13053
925.387	13213
925.494	13031
925.602	13114
925.709	13187
925.816	13057
925.924	13042
926.031	13152
926.138	13000
926.245	13046
926.352	12935
926.459	13012
926.566	13122
926.673	12886
926.779	12844
926.886	12795
926.993	12681
927.099	12722
927.206	12623
927.312	12525
927.419	12635
927.525	12578
927.631	12669
927.737	12486
927.843	12547
927.95	12407
928.056	12410
928.162	12471
928.267	12410
928.373	13015
928.479	12502
928.585	12296
928.69	12460
928.796	12441
928.901	12330
929.007	12159
929.112	12357
929.218	12190
929.323	12235
929.428	12186
929.533	12365
929.638	12140
929.743	12190
929.848	12190
929.953	12133
930.058	12007
930.163	11840
930.267	11969
930.372	12015
930.477	11874
930.581	12015
930.685	11824
930.79	11775
930.894	11802
930.998	11695
931.103	11859
931.207	11421
931.311	11512
931.415	11391
931.519	11178
931.623	11132
