Data from test_V78500241_2740.txt Node
Date: Fri Mar 25 15:28:56 CST 2022
User: usil
Spectrometer: V785-0024
Trigger mode: 0
Integration Time (sec): 4.000000E-1
Scans to average: 1
Nonlinearity correction enabled: false
Boxcar width: 0
Storing dark spectrum: false
XAxis mode: Wavelengths
Number of Pixels in Spectrum: 1024
>>>>>Begin Spectral Data<<<<<
801.071	27233
801.214	27138
801.356	26769
801.499	26796
801.641	26830
801.783	26708
801.926	26743
802.068	26697
802.211	26537
802.353	26598
802.496	26347
802.638	26343
802.78	26362
802.923	26374
803.065	26218
803.208	26199
803.35	26396
803.492	26579
803.635	26374
803.777	26374
803.919	26450
804.061	26861
804.204	26560
804.346	26389
804.488	26339
804.63	26571
804.773	26389
804.915	26389
805.057	26495
805.199	26358
805.341	26537
805.483	26705
805.626	26560
805.768	26434
805.91	26648
806.052	26731
806.194	26503
806.336	26731
806.478	26598
806.62	26746
806.762	26686
806.904	26880
807.046	27104
807.188	26948
807.33	27005
807.472	27047
807.614	26952
807.756	26891
807.898	26830
808.04	26705
808.182	26777
808.324	26933
808.465	26800
808.607	27085
808.749	27119
808.891	27306
809.033	27287
809.174	27218
809.316	27058
809.458	27165
809.6	27154
809.741	27256
809.883	27249
810.025	27462
810.166	27431
810.308	27561
810.45	27386
810.591	27374
810.733	27123
810.875	27264
811.016	27074
811.158	27058
811.299	27245
811.441	27447
811.582	27351
811.724	27260
811.865	27199
812.007	27241
812.148	27157
812.29	27233
812.431	27389
812.573	27443
812.714	27648
812.855	27648
812.997	27766
813.138	27770
813.279	27587
813.421	27671
813.562	27622
813.703	27481
813.845	27264
813.986	26956
814.127	26948
814.268	26842
814.41	26902
814.551	26773
814.692	26762
814.833	26899
814.974	26697
815.115	26838
815.256	26571
815.397	26651
815.539	26758
815.68	26613
815.821	26541
815.962	26629
816.103	26655
816.244	26476
816.385	26358
816.526	26309
816.666	26294
816.807	26043
816.948	26073
817.089	26286
817.23	26103
817.371	25970
817.512	26134
817.653	25982
817.793	25928
817.934	26001
818.075	26081
818.216	26050
818.356	26012
818.497	26005
818.638	25822
818.778	25818
818.919	25799
819.06	25906
819.2	25917
819.341	25940
819.481	26046
819.622	26187
819.762	26434
819.903	26259
820.043	26195
820.184	26206
820.324	26263
820.465	26256
820.605	26294
820.746	26168
820.886	26164
821.026	26111
821.167	26039
821.307	26191
821.447	26012
821.588	26077
821.728	25868
821.868	25670
822.008	25620
822.149	25548
822.289	25651
822.429	25247
822.569	25293
822.709	25282
822.849	25034
822.99	25023
823.13	25053
823.27	25027
823.41	24973
823.55	24798
823.69	24806
823.83	24817
823.97	24776
824.11	24738
824.25	24623
824.389	24593
824.529	24753
824.669	24688
824.809	24681
824.949	24764
825.089	24787
825.228	24707
825.368	24585
825.508	24559
825.648	24639
825.787	24631
825.927	24768
826.067	24327
826.206	24532
826.346	24547
826.485	24601
826.625	24498
826.765	24570
826.904	24608
827.044	24334
827.183	24235
827.323	24243
827.462	24334
827.601	24357
827.741	24197
827.88	24239
828.02	24129
828.159	24232
828.298	24247
828.437	24232
828.577	24243
828.716	24361
828.855	24106
828.994	23965
829.134	23904
829.273	23969
829.412	23874
829.551	23980
829.69	23958
829.829	23980
829.968	24034
830.107	23996
830.246	23980
830.385	23939
830.524	23847
830.663	23863
830.802	23703
830.941	23490
831.08	23501
831.219	23684
831.357	23699
831.496	23817
831.635	23589
831.774	23406
831.913	23429
832.051	23242
832.19	23296
832.329	23349
832.467	23223
832.606	23277
832.744	23204
832.883	23113
833.022	23231
833.16	23273
833.299	23376
833.437	23261
833.576	23273
833.714	23242
833.852	23360
833.991	23410
834.129	23452
834.267	23349
834.406	23242
834.544	23341
834.682	23261
834.821	23299
834.959	23433
835.097	23254
835.235	23330
835.373	23334
835.511	23155
835.65	23239
835.788	23239
835.926	23003
836.064	22953
836.202	23003
836.34	23071
836.478	23250
836.615	22968
836.753	23265
836.891	23212
837.029	23170
837.167	23113
837.305	23010
837.443	23098
837.58	22873
837.718	22911
837.856	22949
837.993	22919
838.131	22995
838.269	22847
838.406	22927
838.544	22866
838.681	22615
838.819	22554
838.956	22436
839.094	22500
839.231	22580
839.369	22637
839.506	22797
839.643	22546
839.781	22519
839.918	22504
840.055	22455
840.193	22440
840.33	22348
840.467	22440
840.604	22485
840.742	22672
840.879	22211
841.016	22382
841.153	22223
841.29	22459
841.427	22402
841.564	22523
841.701	22371
841.838	22196
841.975	22253
842.112	22356
842.249	22242
842.385	22295
842.522	22538
842.659	22325
842.796	22112
842.933	22196
843.069	22192
843.206	22051
843.343	22162
843.479	22204
843.616	22200
843.752	22029
843.889	21964
844.025	22078
844.162	21915
844.298	21991
844.435	22010
844.571	21793
844.708	21998
844.844	22063
844.98	22097
845.117	22116
845.253	21804
845.389	21644
845.525	21766
845.661	21797
845.798	21622
845.934	21656
846.07	21720
846.206	21694
846.342	21701
846.478	21568
846.614	21473
846.75	21424
846.886	21485
847.022	21568
847.158	21363
847.294	21310
847.429	21439
847.565	21340
847.701	21713
847.837	21150
847.972	21157
848.108	21218
848.244	21230
848.379	21047
848.515	20929
848.65	20956
848.786	21047
848.921	21032
849.057	21112
849.192	21233
849.328	20994
849.463	21047
849.598	20963
849.734	20887
849.869	20804
850.004	20777
850.14	20868
850.275	20727
850.41	20689
850.545	20769
850.68	20670
850.815	20815
850.95	20750
851.085	20838
851.22	20902
851.355	20800
851.49	20773
851.625	20758
851.76	20792
851.895	20705
852.03	20621
852.165	20674
852.299	20804
852.434	20979
852.569	20720
852.703	20826
852.838	20724
852.973	20952
853.107	20918
853.242	20625
853.376	20590
853.511	20469
853.645	20549
853.78	20826
853.914	20617
854.048	20522
854.183	20511
854.317	20644
854.451	20739
854.585	20552
854.72	20594
854.854	20590
854.988	20541
855.122	20640
855.256	20400
855.39	20522
855.524	20644
855.658	20705
855.792	20594
855.926	20419
856.06	20629
856.194	20609
856.327	20552
856.461	20480
856.595	20621
856.729	20575
856.862	20686
856.996	20670
857.13	20682
857.263	20678
857.397	20720
857.53	20644
857.664	20636
857.797	20530
857.931	20678
858.064	20598
858.197	20731
858.331	20526
858.464	20564
858.597	20526
858.731	20537
858.864	20579
858.997	20530
859.13	20568
859.263	20571
859.396	20682
859.529	20621
859.662	20625
859.795	20552
859.928	20552
860.061	20868
860.194	20861
860.327	20670
860.46	20625
860.592	20746
860.725	20686
860.858	20724
860.99	20575
861.123	20552
861.256	20495
861.388	20609
861.521	21184
861.653	20575
861.786	20313
861.918	20396
862.05	20552
862.183	20495
862.315	20522
862.447	20530
862.58	20381
862.712	20298
862.844	20237
862.976	20389
863.108	20370
863.24	20788
863.372	20275
863.504	20233
863.636	20233
863.768	20366
863.9	20309
864.032	20267
864.164	20237
864.296	20362
864.428	20415
864.559	20385
864.691	20332
864.823	20385
864.954	20252
865.086	20183
865.217	20271
865.349	20069
865.48	20324
865.612	20313
865.743	20404
865.875	20191
866.006	20191
866.137	20180
866.269	20103
866.4	20183
866.531	20180
866.662	20176
866.793	20176
866.924	20107
867.055	20107
867.186	20263
867.317	20275
867.448	20176
867.579	20149
867.71	20103
867.841	20016
867.972	20206
868.103	20088
868.233	20073
868.364	20081
868.495	20214
868.625	20450
868.756	20393
868.886	20263
869.017	20438
869.147	20514
869.278	20438
869.408	20328
869.539	20408
869.669	20564
869.799	20351
869.929	20434
870.06	20545
870.19	20735
870.32	20765
870.45	20667
870.58	20800
870.71	20834
870.84	20861
870.97	20727
871.1	20743
871.23	21001
871.36	20994
871.489	20937
871.619	20883
871.749	20941
871.879	20975
872.008	21226
872.138	20952
872.267	21009
872.397	20845
872.526	20921
872.656	20705
872.785	20811
872.915	21085
873.044	21108
873.173	21055
873.303	21036
873.432	21131
873.561	21112
873.69	21077
873.819	20960
873.948	20963
874.077	20990
874.206	21100
874.335	21020
874.464	21207
874.593	21291
874.722	21138
874.851	21291
874.979	21363
875.108	21378
875.237	21116
875.365	21165
875.494	21264
875.623	21401
875.751	21230
875.88	21359
876.008	21382
876.136	21428
876.265	21732
876.393	21816
876.521	21770
876.65	21804
876.778	21633
876.906	21675
877.034	21610
877.162	21679
877.29	21637
877.418	21652
877.546	21610
877.674	21568
877.802	21690
877.93	21576
878.058	21538
878.185	21500
878.313	21618
878.441	21538
878.568	21447
878.696	21515
878.824	21580
878.951	21641
879.079	21762
879.206	21960
879.333	21720
879.461	21660
879.588	21728
879.715	21720
879.842	21827
879.97	21747
880.097	21408
880.224	21523
880.351	21515
880.478	21481
880.605	21496
880.732	21431
880.859	21633
880.986	21504
881.112	21431
881.239	21283
881.366	21332
881.493	21207
881.619	21066
881.746	21013
881.872	20906
881.999	20941
882.125	20975
882.252	21028
882.378	20998
882.505	21066
882.631	20883
882.757	20750
882.883	20716
883.01	20682
883.136	20655
883.262	20579
883.388	20648
883.514	20746
883.64	20769
883.766	20724
883.892	20590
884.018	20636
884.143	20667
884.269	20743
884.395	20549
884.52	20305
884.646	20374
884.772	20267
884.897	20282
885.023	20355
885.148	20427
885.274	20503
885.399	20495
885.524	20385
885.65	20431
885.775	20385
885.9	20313
886.025	20454
886.15	20522
886.275	20271
886.4	20259
886.525	20465
886.65	20336
886.775	20347
886.9	20526
887.025	20617
887.149	20484
887.274	20290
887.399	20183
887.523	20183
887.648	20138
887.773	20001
887.897	20168
888.021	20248
888.146	20107
888.27	20214
888.395	20351
888.519	20168
888.643	20202
888.767	20145
888.891	20103
889.015	20077
889.139	20005
889.263	19913
889.387	20119
889.511	20164
889.635	19963
889.759	19887
889.883	20065
890.006	19944
890.13	20126
890.254	19967
890.377	19799
890.501	19731
890.624	19689
890.748	19620
890.871	19613
890.995	19476
891.118	19533
891.241	19533
891.364	19537
891.488	19685
891.611	19594
891.734	19480
891.857	19552
891.98	19502
892.103	19586
892.226	19563
892.349	19613
892.471	19373
892.594	19525
892.717	19582
892.839	19396
892.962	19460
893.085	19666
893.207	19377
893.33	19381
893.452	19339
893.575	19430
893.697	19487
893.819	19639
893.941	19727
894.064	19567
894.186	19373
894.308	19445
894.43	19495
894.552	19670
894.674	19506
894.796	19381
894.918	19495
895.04	19468
895.161	19651
895.283	19449
895.405	19346
895.526	19422
895.648	19422
895.769	19445
895.891	19525
896.012	19559
896.134	19578
896.255	19487
896.376	19441
896.498	19445
896.619	19529
896.74	19438
896.861	19453
896.982	19799
897.103	19860
897.224	19761
897.345	19635
897.466	19681
897.587	19681
897.708	19879
897.828	19788
897.949	19552
898.07	19563
898.19	19590
898.311	19780
898.431	19655
898.552	19742
898.672	19784
898.792	19746
898.913	19715
899.033	19582
899.153	19559
899.273	19438
899.393	19457
899.513	19502
899.633	19487
899.753	19426
899.873	19411
899.993	19556
900.113	19407
900.232	19476
900.352	19343
900.472	19209
900.591	19251
900.711	19251
900.83	19114
900.95	19441
901.069	19316
901.189	19171
901.308	18890
901.427	18817
901.546	18852
901.665	18890
901.784	18890
901.904	18661
902.023	18616
902.141	18380
902.26	18391
902.379	18517
902.498	18338
902.617	18292
902.735	18365
902.854	18315
902.973	18239
903.091	18186
903.21	18102
903.328	18064
903.446	18011
903.565	17931
903.683	17889
903.801	17630
903.919	17737
904.038	17729
904.156	17653
904.274	17646
904.392	17589
904.51	17570
904.627	17627
904.745	17699
904.863	17600
904.981	17410
905.098	17353
905.216	17299
905.334	17349
905.451	17265
905.569	17242
905.686	17410
905.803	17296
905.921	17067
906.038	17212
906.155	17189
906.272	17033
906.389	16984
906.506	16862
906.623	16854
906.74	16839
906.857	16820
906.974	16721
907.091	16831
907.208	16949
907.324	16953
907.441	16691
907.557	16618
907.674	16462
907.79	16599
907.907	16599
908.023	16641
908.139	16573
908.256	16493
908.372	16443
908.488	16402
908.604	16291
908.72	16337
908.836	16394
908.952	16219
909.068	16356
909.184	16405
909.3	16333
909.415	16371
909.531	16246
909.647	16082
909.762	16006
909.878	15949
909.993	16036
910.108	16090
910.224	16036
910.339	15956
910.454	15857
910.57	15781
910.685	15774
910.8	16013
910.915	16002
911.03	15751
911.145	15561
911.259	15629
911.374	15466
911.489	15561
911.604	15523
911.718	15386
911.833	15443
911.947	15283
912.062	15272
912.176	15431
912.291	15412
912.405	15359
912.519	15580
912.633	15637
912.748	15348
912.862	15393
912.976	15188
913.09	15097
913.204	15173
913.318	15161
913.431	15283
913.545	15264
913.659	15348
913.772	15081
913.886	15001
914	14990
914.113	14998
914.226	15116
914.34	15131
914.453	14861
914.566	14914
914.68	14762
914.793	14956
914.906	14644
915.019	14663
915.132	14552
915.245	14579
915.358	14651
915.47	14461
915.583	14629
915.696	14674
915.809	14758
915.921	14735
916.034	14579
916.146	14457
916.259	14434
916.371	14617
916.483	14594
916.595	14454
916.708	14400
916.82	14389
916.932	14427
917.044	14476
917.156	14332
917.268	14248
917.38	14347
917.491	14210
917.603	14282
917.715	14301
917.826	14294
917.938	14142
918.049	14100
918.161	14183
918.272	14427
918.384	14218
918.495	14187
918.606	14149
918.717	14050
918.828	14046
918.939	14145
919.05	13928
919.161	14035
919.272	13879
919.383	13906
919.494	14092
919.604	14324
919.715	13993
919.826	13909
919.936	13986
920.047	14092
920.157	14077
920.267	14172
920.378	14092
920.488	13909
920.598	14103
920.708	14301
920.818	14081
920.928	14142
921.038	14263
921.148	14176
921.258	13970
921.368	13913
921.477	13750
921.587	13742
921.697	13731
921.806	13772
921.916	13628
922.025	13396
922.134	13438
922.244	13354
922.353	13426
922.462	13301
922.571	13213
922.68	13133
922.789	13141
922.898	13069
923.007	13069
923.116	13118
923.224	13088
923.333	12962
923.442	12981
923.55	12890
923.659	12825
923.767	12973
923.876	12817
923.984	13004
924.092	12859
924.201	12795
924.309	12840
924.417	12932
924.525	12703
924.633	12738
924.741	13582
924.849	12578
924.956	12726
925.064	12585
925.172	12437
925.279	12486
925.387	12464
925.494	12437
925.602	12681
925.709	12555
925.816	12467
925.924	12445
926.031	12544
926.138	12350
926.245	12502
926.352	12281
926.459	12528
926.566	12559
926.673	12281
926.779	12323
926.886	12251
926.993	12182
927.099	12125
927.206	12057
927.312	12019
927.419	12106
927.525	12022
927.631	12053
927.737	12038
927.843	11946
927.95	11786
928.056	11984
928.162	11897
928.267	11969
928.373	12395
928.479	12003
928.585	11764
928.69	11855
928.796	11931
928.901	11798
929.007	11665
929.112	11790
929.218	11756
929.323	11707
929.428	11653
929.533	11775
929.638	11619
929.743	11570
929.848	11688
929.953	11566
930.058	11349
930.163	11356
930.267	11299
930.372	11471
930.477	11231
930.581	11532
930.685	11372
930.79	11292
930.894	11250
930.998	11220
931.103	11410
931.207	11003
931.311	10946
931.415	10885
931.519	10637
931.623	10672
