Data from test_V78500241_3257.txt Node
Date: Fri Mar 25 15:32:32 CST 2022
User: usil
Spectrometer: V785-0024
Trigger mode: 0
Integration Time (sec): 4.000000E-1
Scans to average: 1
Nonlinearity correction enabled: false
Boxcar width: 0
Storing dark spectrum: false
XAxis mode: Wavelengths
Number of Pixels in Spectrum: 1024
>>>>>Begin Spectral Data<<<<<
801.071	27310
801.214	27340
801.356	27036
801.499	26819
801.641	26830
801.783	26823
801.926	26788
802.068	26792
802.211	26583
802.353	26746
802.496	26503
802.638	26484
802.78	26526
802.923	26374
803.065	26355
803.208	26298
803.35	26396
803.492	26503
803.635	26686
803.777	26579
803.919	26575
804.061	26765
804.204	26602
804.346	26549
804.488	26530
804.63	26575
804.773	26473
804.915	26473
805.057	26651
805.199	26545
805.341	26689
805.483	26720
805.626	26602
805.768	26617
805.91	26659
806.052	26735
806.194	26530
806.336	26887
806.478	26762
806.62	26648
806.762	26727
806.904	26933
807.046	27093
807.188	27081
807.33	27058
807.472	27123
807.614	26975
807.756	27051
807.898	27013
808.04	26948
808.182	26792
808.324	27074
808.465	26910
808.607	27226
808.749	27207
808.891	27386
809.033	27447
809.174	27329
809.316	27203
809.458	27165
809.6	27386
809.741	27348
809.883	27359
810.025	27618
810.166	27488
810.308	27580
810.45	27572
810.591	27485
810.733	27332
810.875	27188
811.016	27188
811.158	27104
811.299	27287
811.441	27454
811.582	27427
811.724	27424
811.865	27283
812.007	27226
812.148	27230
812.29	27336
812.431	27431
812.573	27515
812.714	27587
812.855	27709
812.997	27781
813.138	28010
813.279	27827
813.421	27656
813.562	27698
813.703	27545
813.845	27435
813.986	27169
814.127	26895
814.268	26986
814.41	27039
814.551	26765
814.692	27036
814.833	26804
814.974	26895
815.115	26864
815.256	26667
815.397	26765
815.539	26815
815.68	26796
815.821	26613
815.962	26708
816.103	26792
816.244	26541
816.385	26412
816.526	26434
816.666	26358
816.807	26168
816.948	26240
817.089	26278
817.23	26134
817.371	26149
817.512	25989
817.653	26206
817.793	26046
817.934	26275
818.075	26233
818.216	26275
818.356	26115
818.497	26050
818.638	25913
818.778	25925
818.919	25906
819.06	25978
819.2	25974
819.341	26172
819.481	26168
819.622	26328
819.762	26495
819.903	26476
820.043	26294
820.184	26351
820.324	26358
820.465	26172
820.605	26332
820.746	26366
820.886	26145
821.026	26298
821.167	26256
821.307	26259
821.447	26145
821.588	26031
821.728	25963
821.868	25814
822.008	25723
822.149	25582
822.289	25685
822.429	25468
822.569	25228
822.709	25392
822.849	25285
822.99	25160
823.13	25034
823.27	25042
823.41	24897
823.55	24928
823.69	24875
823.83	25091
823.97	24844
824.11	24753
824.25	24711
824.389	24886
824.529	24829
824.669	24905
824.809	25023
824.949	24913
825.089	24787
825.228	24840
825.368	24597
825.508	24623
825.648	24597
825.787	24650
825.927	24684
826.067	24509
826.206	24677
826.346	24829
826.485	24760
826.625	24654
826.765	24795
826.904	24795
827.044	24505
827.183	24460
827.323	24391
827.462	24395
827.601	24429
827.741	24266
827.88	24311
828.02	24327
828.159	24308
828.298	24475
828.437	24467
828.577	24201
828.716	24536
828.855	24247
828.994	24095
829.134	24178
829.273	24163
829.412	24209
829.551	24026
829.69	24095
829.829	24079
829.968	24152
830.107	24235
830.246	24015
830.385	24045
830.524	23923
830.663	24064
830.802	23851
830.941	23771
831.08	23676
831.219	23684
831.357	23851
831.496	24038
831.635	23726
831.774	23665
831.913	23589
832.051	23402
832.19	23455
832.329	23474
832.467	23452
832.606	23379
832.744	23197
832.883	23277
833.022	23417
833.16	23391
833.299	23509
833.437	23261
833.576	23341
833.714	23402
833.852	23387
833.991	23505
834.129	23516
834.267	23543
834.406	23444
834.544	23535
834.682	23524
834.821	23493
834.959	23604
835.097	23414
835.235	23398
835.373	23429
835.511	23429
835.65	23250
835.788	23318
835.926	23349
836.064	23025
836.202	23151
836.34	23200
836.478	23364
836.615	23265
836.753	23326
836.891	23436
837.029	23277
837.167	23315
837.305	23223
837.443	23223
837.58	23052
837.718	23246
837.856	23220
837.993	23064
838.131	23105
838.269	23041
838.406	23060
838.544	23006
838.681	22824
838.819	22618
838.956	22694
839.094	22702
839.231	22668
839.369	22809
839.506	23022
839.643	22847
839.781	22596
839.918	22531
840.055	22527
840.193	22577
840.33	22577
840.467	22626
840.604	22588
840.742	22824
840.879	22478
841.016	22565
841.153	22386
841.29	22733
841.427	22687
841.564	22523
841.701	22478
841.838	22485
841.975	22455
842.112	22443
842.249	22531
842.385	22375
842.522	22702
842.659	22386
842.796	22325
842.933	22284
843.069	22284
843.206	22379
843.343	22360
843.479	22447
843.616	22249
843.752	22169
843.889	22097
844.025	22265
844.162	22135
844.298	22242
844.435	22112
844.571	22086
844.708	22120
844.844	22367
844.98	22272
845.117	22249
845.253	22124
845.389	22040
845.525	22025
845.661	21846
845.798	21800
845.934	21880
846.07	21732
846.206	21907
846.342	21918
846.478	21819
846.614	21572
846.75	21469
846.886	21450
847.022	21622
847.158	21599
847.294	21736
847.429	21644
847.565	21572
847.701	21808
847.837	21405
847.972	21222
848.108	21439
848.244	21264
848.379	21218
848.515	21233
848.65	21203
848.786	21192
848.921	21165
849.057	21256
849.192	21211
849.328	21131
849.463	21085
849.598	21047
849.734	20891
849.869	21112
850.004	21039
850.14	20971
850.275	20925
850.41	20845
850.545	20906
850.68	20883
850.815	20864
850.95	20849
851.085	21116
851.22	21009
851.355	21001
851.49	20876
851.625	20925
851.76	21009
851.895	20902
852.03	20914
852.165	20914
852.299	20963
852.434	21055
852.569	21001
852.703	20971
852.838	21009
852.973	21116
853.107	21017
853.242	20883
853.376	20720
853.511	20716
853.645	20727
853.78	20876
853.914	20674
854.048	20765
854.183	20750
854.317	20746
854.451	20967
854.585	20815
854.72	20921
854.854	20826
854.988	20678
855.122	20636
855.256	20750
855.39	20762
855.524	20902
855.658	20838
855.792	20765
855.926	20788
856.06	20788
856.194	20918
856.327	20815
856.461	20777
856.595	20731
856.729	20731
856.862	20868
856.996	20811
857.13	20838
857.263	20864
857.397	20807
857.53	20773
857.664	20864
857.797	20804
857.931	20792
858.064	20777
858.197	20891
858.331	20746
858.464	20724
858.597	20629
858.731	20804
858.864	20777
858.997	20735
859.13	20815
859.263	20785
859.396	20769
859.529	20667
859.662	20769
859.795	20632
859.928	20712
860.061	20815
860.194	20899
860.327	20895
860.46	20735
860.592	20842
860.725	20857
860.858	20853
860.99	20811
861.123	20910
861.256	20693
861.388	20807
861.521	21351
861.653	20667
861.786	20602
861.918	20560
862.05	20682
862.183	20655
862.315	20724
862.447	20716
862.58	20777
862.712	20473
862.844	20507
862.976	20594
863.108	20511
863.24	20899
863.372	20480
863.504	20499
863.636	20552
863.768	20533
863.9	20492
864.032	20396
864.164	20419
864.296	20503
864.428	20606
864.559	20598
864.691	20606
864.823	20648
864.954	20400
865.086	20476
865.217	20370
865.349	20328
865.48	20351
865.612	20347
865.743	20492
865.875	20290
866.006	20396
866.137	20370
866.269	20454
866.4	20305
866.531	20404
866.662	20324
866.793	20252
866.924	20358
867.055	20374
867.186	20381
867.317	20332
867.448	20138
867.579	20404
867.71	20259
867.841	20267
867.972	20343
868.103	20301
868.233	20309
868.364	20355
868.495	20328
868.625	20648
868.756	20697
868.886	20488
869.017	20499
869.147	20689
869.278	20731
869.408	20499
869.539	20609
869.669	20655
869.799	20613
869.929	20571
870.06	20667
870.19	20819
870.32	20826
870.45	20811
870.58	21039
870.71	21146
870.84	21017
870.97	20952
871.1	20944
871.23	21268
871.36	21199
871.489	20998
871.619	21138
871.749	21066
871.879	21230
872.008	21180
872.138	21249
872.267	21237
872.397	21100
872.526	21116
872.656	21074
872.785	20979
872.915	21199
873.044	21188
873.173	21184
873.303	21260
873.432	21283
873.561	21325
873.69	21313
873.819	21146
873.948	21389
874.077	21108
874.206	21176
874.335	21176
874.464	21241
874.593	21367
874.722	21317
874.851	21340
874.979	21408
875.108	21443
875.237	21393
875.365	21386
875.494	21416
875.623	21408
875.751	21401
875.88	21462
876.008	21545
876.136	21614
876.265	21876
876.393	21994
876.521	21934
876.65	21915
876.778	21789
876.906	21781
877.034	21743
877.162	21808
877.29	21686
877.418	21838
877.546	21880
877.674	21895
877.802	21694
877.93	21770
878.058	21705
878.185	21705
878.313	21675
878.441	21739
878.568	21553
878.696	21663
878.824	21892
878.951	21774
879.079	21865
879.206	22101
879.333	21979
879.461	21831
879.588	21968
879.715	21945
879.842	22032
879.97	21808
880.097	21690
880.224	21682
880.351	21682
880.478	21728
880.605	21500
880.732	21625
880.859	21873
880.986	21755
881.112	21705
881.239	21401
881.366	21321
881.493	21332
881.619	21287
881.746	21195
881.872	21252
881.999	21176
882.125	21093
882.252	21218
882.378	21142
882.505	21302
882.631	21032
882.757	20933
882.883	21100
883.01	20914
883.136	20781
883.262	20781
883.388	20750
883.514	20826
883.64	20921
883.766	20830
883.892	20712
884.018	20777
884.143	20880
884.269	20956
884.395	20773
884.52	20560
884.646	20526
884.772	20480
884.897	20549
885.023	20590
885.148	20705
885.274	20644
885.399	20629
885.524	20568
885.65	20632
885.775	20629
885.9	20499
886.025	20743
886.15	20712
886.275	20461
886.4	20450
886.525	20545
886.65	20381
886.775	20503
886.9	20845
887.025	20769
887.149	20514
887.274	20298
887.399	20305
887.523	20298
887.648	20221
887.773	20248
887.897	20400
888.021	20442
888.146	20252
888.27	20377
888.395	20419
888.519	20275
888.643	20275
888.767	20370
888.891	20199
889.015	20073
889.139	20130
889.263	20126
889.387	20138
889.511	20172
889.635	20210
889.759	20122
889.883	20214
890.006	20187
890.13	20183
890.254	19967
890.377	20138
890.501	19765
890.624	19849
890.748	19849
890.871	19731
890.995	19826
891.118	19712
891.241	19708
891.364	19689
891.488	19807
891.611	19746
891.734	19632
891.857	19704
891.98	19689
892.103	19799
892.226	19719
892.349	19681
892.471	19529
892.594	19635
892.717	19544
892.839	19601
892.962	19548
893.085	19704
893.207	19597
893.33	19476
893.452	19620
893.575	19647
893.697	19658
893.819	19765
893.941	19837
894.064	19700
894.186	19605
894.308	19624
894.43	19609
894.552	19799
894.674	19708
894.796	19620
894.918	19628
895.04	19582
895.161	19681
895.283	19594
895.405	19597
895.526	19605
895.648	19483
895.769	19620
895.891	19620
896.012	19689
896.134	19609
896.255	19738
896.376	19655
896.498	19613
896.619	19765
896.74	19544
896.861	19616
896.982	20054
897.103	20122
897.224	19932
897.345	19902
897.466	19803
897.587	19875
897.708	19978
897.828	19791
897.949	19723
898.07	19719
898.19	19871
898.311	19932
898.431	19689
898.552	19807
898.672	19928
898.792	19902
898.913	19746
899.033	19822
899.153	19609
899.273	19533
899.393	19666
899.513	19734
899.633	19586
899.753	19814
899.873	19525
899.993	19575
900.113	19590
900.232	19575
900.352	19499
900.472	19464
900.591	19289
900.711	19445
900.83	19240
900.95	19502
901.069	19453
901.189	19285
901.308	19103
901.427	18939
901.546	19080
901.665	18928
901.784	19050
901.904	18814
902.023	18673
902.141	18464
902.26	18627
902.379	18540
902.498	18540
902.617	18414
902.735	18536
902.854	18483
902.973	18456
903.091	18163
903.21	18114
903.328	18216
903.446	18034
903.565	18095
903.683	17863
903.801	17828
903.919	17878
904.038	17901
904.156	17756
904.274	17828
904.392	17722
904.51	17775
904.627	17729
904.745	17710
904.863	17817
904.981	17562
905.098	17337
905.216	17421
905.334	17376
905.451	17512
905.569	17368
905.686	17474
905.803	17368
905.921	17178
906.038	17284
906.155	17246
906.272	17159
906.389	17041
906.506	16911
906.623	17025
906.74	16980
906.857	16850
906.974	16835
907.091	17037
907.208	17018
907.324	16991
907.441	16854
907.557	16782
907.674	16710
907.79	16691
907.907	16683
908.023	16664
908.139	16733
908.256	16672
908.372	16538
908.488	16447
908.604	16485
908.72	16375
908.836	16379
908.952	16356
909.068	16462
909.184	16421
909.3	16371
909.415	16470
909.531	16337
909.647	16120
909.762	16154
909.878	16131
909.993	16112
910.108	16131
910.224	16082
910.339	16021
910.454	15991
910.57	15861
910.685	15869
910.8	16223
910.915	16051
911.03	15972
911.145	15819
911.259	15781
911.374	15743
911.489	15682
911.604	15572
911.718	15534
911.833	15492
911.947	15332
912.062	15344
912.176	15458
912.291	15431
912.405	15530
912.519	15690
912.633	15553
912.748	15519
912.862	15424
912.976	15313
913.09	15176
913.204	15272
913.318	15336
913.431	15374
913.545	15378
913.659	15382
913.772	15313
913.886	15085
914	15127
914.113	15173
914.226	15211
914.34	15241
914.453	14979
914.566	15184
914.68	15058
914.793	15017
914.906	14800
915.019	14724
915.132	14571
915.245	14716
915.358	14701
915.47	14724
915.583	14792
915.696	14792
915.809	14842
915.921	14853
916.034	14811
916.146	14667
916.259	14686
916.371	14670
916.483	14617
916.595	14636
916.708	14636
916.82	14606
916.932	14541
917.044	14514
917.156	14511
917.268	14442
917.38	14511
917.491	14412
917.603	14412
917.715	14537
917.826	14415
917.938	14275
918.049	14191
918.161	14400
918.272	14556
918.384	14476
918.495	14286
918.606	14263
918.717	14252
918.828	14161
918.939	14180
919.05	14138
919.161	14164
919.272	14005
919.383	13982
919.494	14271
919.604	14442
919.715	14221
919.826	14115
919.936	14134
920.047	14199
920.157	14107
920.267	14366
920.378	14206
920.488	14202
920.598	14362
920.708	14469
920.818	14317
920.928	14301
921.038	14530
921.148	14454
921.258	14153
921.368	14016
921.477	13887
921.587	13940
921.697	13799
921.806	13917
921.916	13674
922.025	13609
922.134	13472
922.244	13540
922.353	13636
922.462	13487
922.571	13411
922.68	13289
922.789	13164
922.898	13270
923.007	13217
923.116	13217
923.224	13213
923.333	13160
923.442	13050
923.55	12954
923.659	13133
923.767	13133
923.876	13008
923.984	13110
924.092	13000
924.201	12977
924.309	12935
924.417	13012
924.525	12954
924.633	12856
924.741	13784
924.849	12623
924.956	12814
925.064	12696
925.172	12677
925.279	12578
925.387	12658
925.494	12681
925.602	12798
925.709	12696
925.816	12547
925.924	12604
926.031	12635
926.138	12563
926.245	12559
926.352	12437
926.459	12681
926.566	12642
926.673	12490
926.779	12384
926.886	12372
926.993	12315
927.099	12300
927.206	12155
927.312	12232
927.419	12235
927.525	12224
927.631	12102
927.737	12216
927.843	12060
927.95	11973
928.056	11996
928.162	12022
928.267	12106
928.373	12779
928.479	12197
928.585	11866
928.69	12060
928.796	12045
928.901	11931
929.007	11817
929.112	11916
929.218	11874
929.323	11775
929.428	11737
929.533	11961
929.638	11752
929.743	11805
929.848	11775
929.953	11745
930.058	11627
930.163	11493
930.267	11524
930.372	11551
930.477	11417
930.581	11649
930.685	11459
930.79	11341
930.894	11326
930.998	11337
931.103	11516
931.207	11086
931.311	11075
931.415	10946
931.519	10717
931.623	10820
