Data from test_V78500241_136.txt Node
Date: Fri Mar 25 15:10:48 CST 2022
User: usil
Spectrometer: V785-0024
Trigger mode: 0
Integration Time (sec): 4.000000E-1
Scans to average: 1
Nonlinearity correction enabled: false
Boxcar width: 0
Storing dark spectrum: false
XAxis mode: Wavelengths
Number of Pixels in Spectrum: 1024
>>>>>Begin Spectral Data<<<<<
801.071	28261
801.214	28303
801.356	27991
801.499	27854
801.641	27850
801.783	27679
801.926	27770
802.068	27618
802.211	27671
802.353	27660
802.496	27340
802.638	27466
802.78	27344
802.923	27298
803.065	27104
803.208	27260
803.35	27355
803.492	27447
803.635	27393
803.777	27401
803.919	27580
804.061	27747
804.204	27458
804.346	27557
804.488	27370
804.63	27454
804.773	27252
804.915	27359
805.057	27447
805.199	27397
805.341	27561
805.483	27420
805.626	27435
805.768	27397
805.91	27500
806.052	27534
806.194	27348
806.336	27679
806.478	27458
806.62	27485
806.762	27481
806.904	27717
807.046	27983
807.188	27823
807.33	27953
807.472	27835
807.614	27827
807.756	27850
807.898	27739
808.04	27599
808.182	27675
808.324	27625
808.465	27603
808.607	27945
808.749	27850
808.891	28226
809.033	28109
809.174	28017
809.316	28010
809.458	27937
809.6	27983
809.741	28002
809.883	28090
810.025	28181
810.166	28367
810.308	28090
810.45	28154
810.591	28234
810.733	27941
810.875	28139
811.016	27907
811.158	27945
811.299	28006
811.441	28086
811.582	28048
811.724	27903
811.865	27941
812.007	27964
812.148	27953
812.29	28048
812.431	28257
812.573	28192
812.714	28261
812.855	28451
812.997	28569
813.138	28687
813.279	28459
813.421	28523
813.562	28428
813.703	28344
813.845	28147
813.986	27892
814.127	27835
814.268	27523
814.41	27542
814.551	27625
814.692	27675
814.833	27553
814.974	27526
815.115	27545
815.256	27507
815.397	27393
815.539	27424
815.68	27317
815.821	27203
815.962	27443
816.103	27188
816.244	27252
816.385	27256
816.526	27127
816.666	26815
816.807	26800
816.948	26811
817.089	26769
817.23	26891
817.371	26750
817.512	26910
817.653	26815
817.793	26667
817.934	26750
818.075	26697
818.216	26735
818.356	26686
818.497	26434
818.638	26305
818.778	26537
818.919	26328
819.06	26545
819.2	26640
819.341	26625
819.481	26625
819.622	26967
819.762	27020
819.903	26823
820.043	26781
820.184	26785
820.324	26796
820.465	26796
820.605	26727
820.746	26815
820.886	26609
821.026	26629
821.167	26746
821.307	26746
821.447	26667
821.588	26621
821.728	26358
821.868	26248
822.008	26195
822.149	26100
822.289	26005
822.429	25898
822.569	25795
822.709	25807
822.849	25624
822.99	25502
823.13	25601
823.27	25468
823.41	25354
823.55	25320
823.69	25422
823.83	25388
823.97	25362
824.11	25095
824.25	25206
824.389	25091
824.529	25282
824.669	25164
824.809	25217
824.949	25339
825.089	25198
825.228	25164
825.368	25027
825.508	24992
825.648	25122
825.787	25069
825.927	24897
826.067	24837
826.206	25015
826.346	24973
826.485	24981
826.625	24852
826.765	25034
826.904	24981
827.044	24783
827.183	24753
827.323	24681
827.462	24776
827.601	24547
827.741	24604
827.88	24623
828.02	24570
828.159	24502
828.298	24711
828.437	24570
828.577	24578
828.716	24608
828.855	24528
828.994	24289
829.134	24407
829.273	24315
829.412	24361
829.551	24258
829.69	24319
829.829	24296
829.968	24498
830.107	24426
830.246	24285
830.385	24251
830.524	24167
830.663	24091
830.802	23927
830.941	23821
831.08	23836
831.219	23977
831.357	24038
831.496	24273
831.635	23912
831.774	23802
831.913	23798
832.051	23687
832.19	23547
832.329	23775
832.467	23623
832.606	23608
832.744	23554
832.883	23535
833.022	23512
833.16	23478
833.299	23383
833.437	23630
833.576	23695
833.714	23611
833.852	23684
833.991	23600
834.129	23668
834.267	23585
834.406	23577
834.544	23707
834.682	23551
834.821	23482
834.959	23840
835.097	23448
835.235	23703
835.373	23623
835.511	23581
835.65	23387
835.788	23459
835.926	23231
836.064	23155
836.202	23326
836.34	23425
836.478	23425
836.615	23383
836.753	23448
836.891	23341
837.029	23341
837.167	23318
837.305	23395
837.443	23277
837.58	23204
837.718	23208
837.856	23212
837.993	23124
838.131	23318
838.269	23064
838.406	23128
838.544	23143
838.681	22839
838.819	22854
838.956	22660
839.094	22561
839.231	22710
839.369	22782
839.506	22934
839.643	22820
839.781	22698
839.918	22550
840.055	22538
840.193	22569
840.33	22535
840.467	22573
840.604	22554
840.742	22828
840.879	22348
841.016	22398
841.153	22424
841.29	22702
841.427	22394
841.564	22440
841.701	22592
841.838	22409
841.975	22474
842.112	22390
842.249	22249
842.385	22166
842.522	22367
842.659	22371
842.796	22181
842.933	22310
843.069	22158
843.206	22257
843.343	22299
843.479	22230
843.616	22257
843.752	22173
843.889	22147
844.025	22249
844.162	21846
844.298	21937
844.435	22021
844.571	22013
844.708	22010
844.844	22116
844.98	22002
845.117	22204
845.253	21945
845.389	21838
845.525	21945
845.661	21827
845.798	21625
845.934	21827
846.07	21713
846.206	21743
846.342	21800
846.478	21705
846.614	21572
846.75	21443
846.886	21466
847.022	21606
847.158	21663
847.294	21488
847.429	21443
847.565	21412
847.701	21690
847.837	21165
847.972	21116
848.108	21192
848.244	21252
848.379	21135
848.515	21009
848.65	21017
848.786	21047
848.921	20960
849.057	21112
849.192	21085
849.328	21013
849.463	21024
849.598	20937
849.734	20929
849.869	20838
850.004	20735
850.14	20807
850.275	20746
850.41	20697
850.545	20629
850.68	20716
850.815	20811
850.95	20769
851.085	20853
851.22	20838
851.355	20800
851.49	20583
851.625	20765
851.76	20708
851.895	20785
852.03	20739
852.165	20617
852.299	20693
852.434	20845
852.569	20781
852.703	20765
852.838	20686
852.973	20823
853.107	20796
853.242	20712
853.376	20575
853.511	20423
853.645	20473
853.78	20682
853.914	20587
854.048	20545
854.183	20609
854.317	20590
854.451	20609
854.585	20511
854.72	20571
854.854	20663
854.988	20419
855.122	20625
855.256	20446
855.39	20484
855.524	20568
855.658	20606
855.792	20537
855.926	20541
856.06	20701
856.194	20663
856.327	20606
856.461	20495
856.595	20473
856.729	20556
856.862	20602
856.996	20503
857.13	20579
857.263	20613
857.397	20655
857.53	20511
857.664	20579
857.797	20556
857.931	20636
858.064	20450
858.197	20564
858.331	20636
858.464	20412
858.597	20480
858.731	20469
858.864	20339
858.997	20518
859.13	20492
859.263	20415
859.396	20575
859.529	20533
859.662	20381
859.795	20469
859.928	20461
860.061	20693
860.194	20731
860.327	20575
860.46	20469
860.592	20583
860.725	20625
860.858	20541
860.99	20526
861.123	20503
861.256	20374
861.388	20533
861.521	21302
861.653	20362
861.786	20336
861.918	20385
862.05	20446
862.183	20476
862.315	20507
862.447	20625
862.58	20568
862.712	20351
862.844	20313
862.976	20381
863.108	20282
863.24	20712
863.372	20122
863.504	20168
863.636	20130
863.768	20237
863.9	20161
864.032	20103
864.164	20183
864.296	20161
864.428	20294
864.559	20366
864.691	20225
864.823	20298
864.954	20195
865.086	20332
865.217	20267
865.349	20073
865.48	20259
865.612	20043
865.743	20233
865.875	20176
866.006	20221
866.137	20096
866.269	20050
866.4	20210
866.531	20081
866.662	20043
866.793	20035
866.924	20008
867.055	20065
867.186	19955
867.317	20077
867.448	19947
867.579	20062
867.71	20012
867.841	20020
867.972	20103
868.103	19955
868.233	20039
868.364	20073
868.495	20172
868.625	20229
868.756	20450
868.886	20134
869.017	20301
869.147	20298
869.278	20499
869.408	20389
869.539	20271
869.669	20339
869.799	20317
869.929	20503
870.06	20343
870.19	20609
870.32	20568
870.45	20651
870.58	20727
870.71	20712
870.84	20678
870.97	20629
871.1	20746
871.23	20944
871.36	20872
871.489	20765
871.619	20792
871.749	20895
871.879	20918
872.008	20925
872.138	20880
872.267	20834
872.397	20735
872.526	20777
872.656	20678
872.785	20739
872.915	20830
873.044	20914
873.173	20842
873.303	20963
873.432	20902
873.561	20914
873.69	20948
873.819	20891
873.948	20937
874.077	20960
874.206	20899
874.335	20971
874.464	21119
874.593	21264
874.722	21214
874.851	21237
874.979	21089
875.108	21332
875.237	21085
875.365	21203
875.494	21131
875.623	21135
875.751	21081
875.88	21256
876.008	21264
876.136	21336
876.265	21507
876.393	21705
876.521	21652
876.65	21679
876.778	21561
876.906	21473
877.034	21340
877.162	21519
877.29	21507
877.418	21439
877.546	21526
877.674	21447
877.802	21542
877.93	21519
878.058	21515
878.185	21428
878.313	21443
878.441	21496
878.568	21355
878.696	21477
878.824	21488
878.951	21530
879.079	21652
879.206	21793
879.333	21724
879.461	21549
879.588	21515
879.715	21644
879.842	21732
879.97	21553
880.097	21283
880.224	21233
880.351	21275
880.478	21424
880.605	21203
880.732	21378
880.859	21542
880.986	21351
881.112	21348
881.239	21214
881.366	21176
881.493	21001
881.619	20948
881.746	20937
881.872	20918
881.999	20921
882.125	20937
882.252	20876
882.378	20933
882.505	21062
882.631	20815
882.757	20785
882.883	20689
883.01	20606
883.136	20670
883.262	20503
883.388	20507
883.514	20758
883.64	20724
883.766	20606
883.892	20488
884.018	20415
884.143	20503
884.269	20762
884.395	20370
884.52	20290
884.646	20290
884.772	20301
884.897	20240
885.023	20362
885.148	20358
885.274	20355
885.399	20366
885.524	20259
885.65	20187
885.775	20324
885.9	20290
886.025	20404
886.15	20328
886.275	20214
886.4	20206
886.525	20233
886.65	20153
886.775	20320
886.9	20256
887.025	20476
887.149	20332
887.274	20065
887.399	20115
887.523	20142
887.648	19963
887.773	19936
887.897	20149
888.021	20248
888.146	20081
888.27	20107
888.395	20138
888.519	20062
888.643	20050
888.767	20001
888.891	20001
889.015	19856
889.139	19860
889.263	19868
889.387	19868
889.511	19879
889.635	19963
889.759	19875
889.883	19765
890.006	19799
890.13	19986
890.254	19712
890.377	19712
890.501	19624
890.624	19628
890.748	19696
890.871	19540
890.995	19434
891.118	19407
891.241	19502
891.364	19502
891.488	19506
891.611	19354
891.734	19441
891.857	19392
891.98	19415
892.103	19457
892.226	19426
892.349	19316
892.471	19327
892.594	19388
892.717	19362
892.839	19346
892.962	19270
893.085	19335
893.207	19358
893.33	19213
893.452	19236
893.575	19365
893.697	19377
893.819	19419
893.941	19449
894.064	19453
894.186	19244
894.308	19255
894.43	19377
894.552	19499
894.674	19586
894.796	19320
894.918	19346
895.04	19327
895.161	19525
895.283	19384
895.405	19354
895.526	19301
895.648	19312
895.769	19316
895.891	19537
896.012	19346
896.134	19396
896.255	19377
896.376	19266
896.498	19384
896.619	19476
896.74	19419
896.861	19559
896.982	19727
897.103	19879
897.224	19635
897.345	19761
897.466	19578
897.587	19575
897.708	19658
897.828	19670
897.949	19537
898.07	19411
898.19	19571
898.311	19803
898.431	19472
898.552	19540
898.672	19658
898.792	19670
898.913	19495
899.033	19453
899.153	19388
899.273	19297
899.393	19278
899.513	19289
899.633	19266
899.753	19221
899.873	19141
899.993	19335
900.113	19297
900.232	19217
900.352	19240
900.472	19175
900.591	19046
900.711	19084
900.83	19080
900.95	19312
901.069	19232
901.189	19000
901.308	18749
901.427	18757
901.546	18802
901.665	18814
901.784	18764
901.904	18544
902.023	18536
902.141	18323
902.26	18228
902.379	18311
902.498	18270
902.617	18239
902.735	18216
902.854	18201
902.973	18098
903.091	17950
903.21	17882
903.328	17889
903.446	17748
903.565	17627
903.683	17634
903.801	17619
903.919	17615
904.038	17646
904.156	17497
904.274	17646
904.392	17448
904.51	17387
904.627	17512
904.745	17429
904.863	17558
904.981	17364
905.098	17147
905.216	17197
905.334	17181
905.451	17060
905.569	17006
905.686	17147
905.803	17128
905.921	17025
906.038	16904
906.155	16984
906.272	16889
906.389	16831
906.506	16752
906.623	16721
906.74	16653
906.857	16565
906.974	16596
907.091	16729
907.208	16797
907.324	16786
907.441	16519
907.557	16493
907.674	16329
907.79	16371
907.907	16314
908.023	16398
908.139	16352
908.256	16287
908.372	16284
908.488	16356
908.604	16143
908.72	16010
908.836	16051
908.952	16109
909.068	16090
909.184	16105
909.3	16135
909.415	16051
909.531	16051
909.647	15888
909.762	15846
909.878	15747
909.993	15762
910.108	15785
910.224	15671
910.339	15720
910.454	15743
910.57	15542
910.685	15492
910.8	15857
910.915	15671
911.03	15542
911.145	15435
911.259	15389
911.374	15317
911.489	15249
911.604	15241
911.718	15108
911.833	15104
911.947	14906
912.062	14868
912.176	15116
912.291	15100
912.405	14982
912.519	15370
912.633	15310
912.748	15199
912.862	15089
912.976	15001
913.09	14804
913.204	14979
913.318	14956
913.431	14948
913.545	15005
913.659	15062
913.772	14895
913.886	14758
914	14655
914.113	14800
914.226	14826
914.34	14724
914.453	14667
914.566	14724
914.68	14617
914.793	14571
914.906	14511
915.019	14423
915.132	14336
915.245	14377
915.358	14492
915.47	14503
915.583	14370
915.696	14389
915.809	14473
915.921	14533
916.034	14377
916.146	14309
916.259	14294
916.371	14328
916.483	14320
916.595	14180
916.708	14214
916.82	14263
916.932	14221
917.044	14191
917.156	14161
917.268	14065
917.38	14043
917.491	13947
917.603	14119
917.715	14123
917.826	14142
917.938	13982
918.049	13871
918.161	13989
918.272	14187
918.384	14134
918.495	13993
918.606	13849
918.717	13788
918.828	13753
918.939	13826
919.05	13780
919.161	13803
919.272	13540
919.383	13708
919.494	13826
919.604	14024
919.715	13795
919.826	13643
919.936	13765
920.047	13871
920.157	13700
920.267	13947
920.378	13753
920.488	13765
920.598	13970
920.708	14180
920.818	13898
920.928	13906
921.038	14050
921.148	13967
921.258	13734
921.368	13620
921.477	13559
921.587	13487
921.697	13422
921.806	13483
921.916	13407
922.025	13228
922.134	13164
922.244	13145
922.353	13187
922.462	13023
922.571	13069
922.68	12859
922.789	12760
922.898	12848
923.007	12738
923.116	12798
923.224	12741
923.333	12768
923.442	12593
923.55	12639
923.659	12620
923.767	12623
923.876	12547
923.984	12635
924.092	12513
924.201	12563
924.309	12597
924.417	12555
924.525	12448
924.633	12498
924.741	13190
924.849	12258
924.956	12429
925.064	12330
925.172	12258
925.279	12194
925.387	12330
925.494	12273
925.602	12414
925.709	12281
925.816	12136
925.924	12277
926.031	12308
926.138	12258
926.245	12247
926.352	12022
926.459	12213
926.566	12262
926.673	12155
926.779	12068
926.886	12095
926.993	11958
927.099	11908
927.206	11805
927.312	11783
927.419	11973
927.525	11855
927.631	11847
927.737	11741
927.843	11703
927.95	11688
928.056	11676
928.162	11741
928.267	11710
928.373	12182
928.479	11783
928.585	11524
928.69	11589
928.796	11676
928.901	11547
929.007	11410
929.112	11497
929.218	11512
929.323	11440
929.428	11482
929.533	11653
929.638	11387
929.743	11341
929.848	11474
929.953	11383
930.058	11326
930.163	11102
930.267	11242
930.372	11258
930.477	11143
930.581	11356
930.685	11170
930.79	11098
930.894	11029
930.998	11006
931.103	11143
931.207	10774
931.311	10729
931.415	10634
931.519	10493
931.623	10318
