Data from test_V78500241_1344.txt Node
Date: Fri Mar 25 15:19:12 CST 2022
User: usil
Spectrometer: V785-0024
Trigger mode: 0
Integration Time (sec): 4.000000E-1
Scans to average: 1
Nonlinearity correction enabled: false
Boxcar width: 0
Storing dark spectrum: false
XAxis mode: Wavelengths
Number of Pixels in Spectrum: 1024
>>>>>Begin Spectral Data<<<<<
801.071	28268
801.214	28131
801.356	28010
801.499	27941
801.641	27675
801.783	27652
801.926	27774
802.068	27686
802.211	27686
802.353	27629
802.496	27382
802.638	27427
802.78	27291
802.923	27222
803.065	27188
803.208	27222
803.35	27287
803.492	27443
803.635	27576
803.777	27526
803.919	27462
804.061	27903
804.204	27648
804.346	27511
804.488	27424
804.63	27641
804.773	27663
804.915	27679
805.057	27732
805.199	27507
805.341	27720
805.483	27797
805.626	27705
805.768	27538
805.91	27625
806.052	27789
806.194	27633
806.336	27956
806.478	27884
806.62	27785
806.762	27808
806.904	28036
807.046	28382
807.188	28188
807.33	28242
807.472	28261
807.614	28154
807.756	28226
807.898	28021
808.04	27941
808.182	27892
808.324	27983
808.465	28093
808.607	28333
808.749	28497
808.891	28451
809.033	28535
809.174	28519
809.316	28455
809.458	28341
809.6	28401
809.741	28504
809.883	28634
810.025	28645
810.166	28679
810.308	28710
810.45	28596
810.591	28573
810.733	28565
810.875	28363
811.016	28375
811.158	28291
811.299	28379
811.441	28519
811.582	28504
811.724	28276
811.865	28280
812.007	28363
812.148	28394
812.29	28577
812.431	28603
812.573	28858
812.714	28847
812.855	28938
812.997	28911
813.138	29124
813.279	29033
813.421	28972
813.562	28942
813.703	28774
813.845	28603
813.986	28428
814.127	28215
814.268	28029
814.41	28246
814.551	28044
814.692	28185
814.833	28078
814.974	28021
815.115	28177
815.256	27869
815.397	27914
815.539	28017
815.68	27941
815.821	27755
815.962	27934
816.103	27953
816.244	27842
816.385	27720
816.526	27614
816.666	27660
816.807	27447
816.948	27389
817.089	27591
817.23	27443
817.371	27450
817.512	27450
817.653	27275
817.793	27264
817.934	27416
818.075	27363
818.216	27530
818.356	27359
818.497	27306
818.638	27066
818.778	27104
818.919	27089
819.06	27256
819.2	27344
819.341	27427
819.481	27416
819.622	27545
819.762	27667
819.903	27656
820.043	27641
820.184	27534
820.324	27393
820.465	27492
820.605	27553
820.746	27443
820.886	27260
821.026	27500
821.167	27500
821.307	27603
821.447	27435
821.588	27420
821.728	27192
821.868	27055
822.008	26834
822.149	26918
822.289	26807
822.429	26545
822.569	26537
822.709	26507
822.849	26427
822.99	26427
823.13	26339
823.27	26244
823.41	26263
823.55	26092
823.69	26282
823.83	26221
823.97	26199
824.11	26031
824.25	25974
824.389	26073
824.529	26164
824.669	25959
824.809	26100
824.949	26005
825.089	26225
825.228	25974
825.368	25799
825.508	25955
825.648	25936
825.787	25936
825.927	25997
826.067	25799
826.206	25883
826.346	25795
826.485	25814
826.625	25803
826.765	25963
826.904	25890
827.044	25605
827.183	25689
827.323	25575
827.462	25594
827.601	25639
827.741	25616
827.88	25639
828.02	25594
828.159	25601
828.298	25491
828.437	25655
828.577	25689
828.716	25639
828.855	25502
828.994	25384
829.134	25263
829.273	25327
829.412	25228
829.551	25194
829.69	25324
829.829	25301
829.968	25419
830.107	25350
830.246	25259
830.385	25312
830.524	25297
830.663	25145
830.802	25065
830.941	24935
831.08	24844
831.219	24878
831.357	25038
831.496	25168
831.635	24932
831.774	24863
831.913	24840
832.051	24760
832.19	24692
832.329	24741
832.467	24597
832.606	24589
832.744	24604
832.883	24635
833.022	24563
833.16	24532
833.299	24795
833.437	24642
833.576	24753
833.714	24696
833.852	24574
833.991	24658
834.129	24677
834.267	24764
834.406	24566
834.544	24814
834.682	24696
834.821	24715
834.959	24837
835.097	24521
835.235	24749
835.373	24589
835.511	24589
835.65	24475
835.788	24585
835.926	24300
836.064	24475
836.202	24361
836.34	24544
836.478	24540
836.615	24452
836.753	24445
836.891	24525
837.029	24475
837.167	24357
837.305	24426
837.443	24289
837.58	24304
837.718	24403
837.856	24342
837.993	24262
838.131	24270
838.269	24133
838.406	24277
838.544	24133
838.681	23946
838.819	24091
838.956	23737
839.094	23920
839.231	23821
839.369	23939
839.506	24205
839.643	24095
839.781	23821
839.918	23676
840.055	23729
840.193	23821
840.33	23786
840.467	23805
840.604	23699
840.742	23969
840.879	23509
841.016	23528
841.153	23630
841.29	23748
841.427	23668
841.564	23703
841.701	23691
841.838	23619
841.975	23531
842.112	23726
842.249	23547
842.385	23368
842.522	23577
842.659	23471
842.796	23376
842.933	23551
843.069	23421
843.206	23471
843.343	23493
843.479	23376
843.616	23459
843.752	23216
843.889	23311
844.025	23231
844.162	23330
844.298	23402
844.435	23250
844.571	23136
844.708	23216
844.844	23326
844.98	23364
845.117	23463
845.253	23143
845.389	23056
845.525	23006
845.661	22976
845.798	22908
845.934	23037
846.07	22938
846.206	23003
846.342	23109
846.478	22919
846.614	22664
846.75	22622
846.886	22527
847.022	22850
847.158	22774
847.294	22790
847.429	22698
847.565	22729
847.701	22995
847.837	22485
847.972	22455
848.108	22481
848.244	22424
848.379	22344
848.515	22188
848.65	22219
848.786	22230
848.921	22363
849.057	22196
849.192	22272
849.328	22284
849.463	22371
849.598	22082
849.734	22188
849.869	22204
850.004	22086
850.14	22010
850.275	22070
850.41	22025
850.545	21987
850.68	21945
850.815	22086
850.95	21975
851.085	22204
851.22	22196
851.355	21991
851.49	21987
851.625	22101
851.76	22025
851.895	21869
852.03	22101
852.165	21991
852.299	22032
852.434	22010
852.569	22112
852.703	22162
852.838	22101
852.973	22036
853.107	22124
853.242	22082
853.376	21884
853.511	21671
853.645	21876
853.78	21934
853.914	21705
854.048	21789
854.183	21679
854.317	21934
854.451	22074
854.585	21850
854.72	21918
854.854	21937
854.988	21850
855.122	21926
855.256	21667
855.39	21743
855.524	21907
855.658	21949
855.792	21968
855.926	21827
856.06	21850
856.194	21964
856.327	21759
856.461	21736
856.595	21770
856.729	21854
856.862	21915
856.996	21892
857.13	21915
857.263	21941
857.397	22006
857.53	21857
857.664	21789
857.797	21911
857.931	21922
858.064	21945
858.197	21998
858.331	21800
858.464	21827
858.597	21774
858.731	21835
858.864	21720
858.997	21823
859.13	21789
859.263	21827
859.396	21926
859.529	21842
859.662	21770
859.795	21728
859.928	21747
860.061	21922
860.194	21941
860.327	21816
860.46	21823
860.592	21960
860.725	21949
860.858	21831
860.99	21835
861.123	21770
861.256	21842
861.388	21922
861.521	22447
861.653	21698
861.786	21648
861.918	21694
862.05	21709
862.183	21926
862.315	21770
862.447	21762
862.58	21797
862.712	21641
862.844	21625
862.976	21583
863.108	21625
863.24	21941
863.372	21580
863.504	21564
863.636	21549
863.768	21542
863.9	21587
864.032	21564
864.164	21462
864.296	21428
864.428	21599
864.559	21576
864.691	21656
864.823	21564
864.954	21481
865.086	21485
865.217	21363
865.349	21367
865.48	21466
865.612	21412
865.743	21610
865.875	21382
866.006	21363
866.137	21481
866.269	21344
866.4	21420
866.531	21370
866.662	21393
866.793	21294
866.924	21363
867.055	21473
867.186	21351
867.317	21256
867.448	21252
867.579	21336
867.71	21382
867.841	21291
867.972	21416
868.103	21302
868.233	21439
868.364	21462
868.495	21538
868.625	21656
868.756	21751
868.886	21561
869.017	21633
869.147	21701
869.278	21705
869.408	21580
869.539	21545
869.669	21641
869.799	21641
869.929	21717
870.06	21846
870.19	21953
870.32	21781
870.45	22021
870.58	22044
870.71	22032
870.84	22036
870.97	22040
871.1	22002
871.23	22268
871.36	22013
871.489	22173
871.619	22139
871.749	22112
871.879	22257
872.008	22356
872.138	22215
872.267	22211
872.397	22124
872.526	22013
872.656	21975
872.785	21956
872.915	22268
873.044	22143
873.173	22173
873.303	22299
873.432	22310
873.561	22417
873.69	22337
873.819	22268
873.948	22253
874.077	22230
874.206	22234
874.335	22188
874.464	22268
874.593	22523
874.722	22432
874.851	22459
874.979	22538
875.108	22580
875.237	22329
875.365	22333
875.494	22413
875.623	22527
875.751	22402
875.88	22523
876.008	22542
876.136	22535
876.265	22828
876.393	22862
876.521	22752
876.65	22896
876.778	22839
876.906	22763
877.034	22778
877.162	22786
877.29	22694
877.418	22729
877.546	22786
877.674	22733
877.802	22782
877.93	22774
878.058	22698
878.185	22729
878.313	22653
878.441	22698
878.568	22500
878.696	22763
878.824	22820
878.951	22824
879.079	22949
879.206	23064
879.333	22885
879.461	22904
879.588	22938
879.715	22972
879.842	23075
879.97	22889
880.097	22634
880.224	22550
880.351	22596
880.478	22607
880.605	22519
880.732	22618
880.859	22801
880.986	22615
881.112	22462
881.239	22405
881.366	22207
881.493	22265
881.619	22154
881.746	22200
881.872	22101
881.999	22048
882.125	22029
882.252	22257
882.378	22105
882.505	22295
882.631	22010
882.757	21861
882.883	22002
883.01	21861
883.136	21816
883.262	21774
883.388	21732
883.514	21831
883.64	21865
883.766	21766
883.892	21583
884.018	21667
884.143	21876
884.269	21781
884.395	21393
884.52	21545
884.646	21496
884.772	21473
884.897	21431
885.023	21424
885.148	21443
885.274	21622
885.399	21644
885.524	21439
885.65	21530
885.775	21534
885.9	21469
886.025	21500
886.15	21572
886.275	21485
886.4	21359
886.525	21359
886.65	21393
886.775	21393
886.9	21583
887.025	21637
887.149	21519
887.274	21340
887.399	21195
887.523	21325
887.648	21123
887.773	21195
887.897	21329
888.021	21397
888.146	21138
888.27	21325
888.395	21405
888.519	21279
888.643	21233
888.767	21272
888.891	21150
889.015	20998
889.139	21055
889.263	21051
889.387	21230
889.511	21325
889.635	21116
889.759	20914
889.883	20979
890.006	21062
890.13	21176
890.254	20864
890.377	20880
890.501	20857
890.624	20819
890.748	20819
890.871	20655
890.995	20564
891.118	20697
891.241	20678
891.364	20613
891.488	20663
891.611	20579
891.734	20697
891.857	20621
891.98	20621
892.103	20682
892.226	20579
892.349	20552
892.471	20427
892.594	20568
892.717	20469
892.839	20457
892.962	20492
893.085	20598
893.207	20438
893.33	20514
893.452	20484
893.575	20667
893.697	20499
893.819	20564
893.941	20629
894.064	20674
894.186	20465
894.308	20465
894.43	20480
894.552	20613
894.674	20579
894.796	20396
894.918	20511
895.04	20404
895.161	20533
895.283	20568
895.405	20332
895.526	20469
895.648	20419
895.769	20514
895.891	20560
896.012	20530
896.134	20583
896.255	20499
896.376	20575
896.498	20434
896.619	20492
896.74	20533
896.861	20625
896.982	20735
897.103	20902
897.224	20739
897.345	20697
897.466	20621
897.587	20762
897.708	20906
897.828	20708
897.949	20667
898.07	20583
898.19	20682
898.311	20868
898.431	20659
898.552	20617
898.672	20720
898.792	20686
898.913	20636
899.033	20617
899.153	20594
899.273	20495
899.393	20476
899.513	20484
899.633	20427
899.753	20549
899.873	20461
899.993	20438
900.113	20366
900.232	20442
900.352	20393
900.472	20332
900.591	20218
900.711	20267
900.83	20134
900.95	20362
901.069	20271
901.189	20115
901.308	19959
901.427	19742
901.546	19788
901.665	19845
901.784	19753
901.904	19662
902.023	19616
902.141	19331
902.26	19274
902.379	19430
902.498	19324
902.617	19297
902.735	19339
902.854	19255
902.973	19285
903.091	18970
903.21	18935
903.328	18973
903.446	19015
903.565	18776
903.683	18730
903.801	18669
903.919	18673
904.038	18711
904.156	18486
904.274	18703
904.392	18563
904.51	18536
904.627	18483
904.745	18540
904.863	18570
904.981	18270
905.098	18289
905.216	18277
905.334	18258
905.451	18338
905.569	18095
905.686	18285
905.803	18247
905.921	17977
906.038	18057
906.155	18133
906.272	17931
906.389	17859
906.506	17863
906.623	17729
906.74	17851
906.857	17619
906.974	17623
907.091	17863
907.208	17832
907.324	17866
907.441	17729
907.557	17425
907.674	17398
907.79	17410
907.907	17296
908.023	17474
908.139	17421
908.256	17402
908.372	17395
908.488	17387
908.604	17212
908.72	17162
908.836	17147
908.952	17174
909.068	17159
909.184	17303
909.3	17200
909.415	17109
909.531	17166
909.647	17006
909.762	16987
909.878	16877
909.993	16904
910.108	16854
910.224	16911
910.339	16786
910.454	16721
910.57	16584
910.685	16660
910.8	16816
910.915	16801
911.03	16771
911.145	16466
911.259	16341
911.374	16440
911.489	16367
911.604	16234
911.718	16105
911.833	16242
911.947	16067
912.062	16036
912.176	16219
912.291	16131
912.405	16181
912.519	16367
912.633	16371
912.748	16211
912.862	16143
912.976	16040
913.09	15926
913.204	16036
913.318	15964
913.431	16188
913.545	16093
913.659	16051
913.772	16013
913.886	15884
914	15816
914.113	15865
914.226	15865
914.34	15835
914.453	15701
914.566	15804
914.68	15667
914.793	15629
914.906	15435
915.019	15458
915.132	15458
915.245	15485
915.358	15458
915.47	15382
915.583	15408
915.696	15397
915.809	15485
915.921	15576
916.034	15275
916.146	15237
916.259	15256
916.371	15420
916.483	15306
916.595	15279
916.708	15275
916.82	15195
916.932	15291
917.044	15241
917.156	15131
917.268	15051
917.38	15116
917.491	15058
917.603	15039
917.715	15066
917.826	15081
917.938	14880
918.049	14845
918.161	15005
918.272	15009
918.384	15176
918.495	15051
918.606	14750
918.717	14750
918.828	14887
918.939	14788
919.05	14811
919.161	14807
919.272	14587
919.383	14659
919.494	14739
919.604	14963
919.715	14845
919.826	14632
919.936	14697
920.047	14830
920.157	14731
920.267	14883
920.378	14716
920.488	14750
920.598	14933
920.708	15089
920.818	14921
920.928	14857
921.038	15062
921.148	15017
921.258	14735
921.368	14590
921.477	14507
921.587	14484
921.697	14377
921.806	14492
921.916	14412
922.025	14119
922.134	14149
922.244	14050
922.353	14161
922.462	14005
922.571	14016
922.68	13830
922.789	13712
922.898	13807
923.007	13753
923.116	13655
923.224	13734
923.333	13753
923.442	13723
923.55	13590
923.659	13605
923.767	13552
923.876	13514
923.984	13639
924.092	13438
924.201	13514
924.309	13464
924.417	13563
924.525	13384
924.633	13430
924.741	14347
924.849	13244
924.956	13339
925.064	13118
925.172	13206
925.279	13149
925.387	13190
925.494	13202
925.602	13301
925.709	13266
925.816	13015
925.924	13099
926.031	13225
926.138	13019
926.245	13149
926.352	13042
926.459	13141
926.566	13187
926.673	13091
926.779	12886
926.886	12783
926.993	12821
927.099	12787
927.206	12749
927.312	12734
927.419	12787
927.525	12650
927.631	12779
927.737	12570
927.843	12574
927.95	12395
928.056	12506
928.162	12604
928.267	12528
928.373	13194
928.479	12646
928.585	12315
928.69	12525
928.796	12410
928.901	12452
929.007	12311
929.112	12441
929.218	12395
929.323	12311
929.428	12330
929.533	12300
929.638	12117
929.743	12323
929.848	12209
929.953	12239
930.058	12129
930.163	11988
930.267	11984
930.372	11984
930.477	11980
930.581	12117
930.685	12007
930.79	11817
930.894	11870
930.998	11779
931.103	11931
931.207	11585
931.311	11505
931.415	11436
931.519	11174
931.623	11155
