Data from test_V78500241_3101.txt Node
Date: Fri Mar 25 15:31:27 CST 2022
User: usil
Spectrometer: V785-0024
Trigger mode: 0
Integration Time (sec): 4.000000E-1
Scans to average: 1
Nonlinearity correction enabled: false
Boxcar width: 0
Storing dark spectrum: false
XAxis mode: Wavelengths
Number of Pixels in Spectrum: 1024
>>>>>Begin Spectral Data<<<<<
801.071	26621
801.214	26549
801.356	26461
801.499	26294
801.641	26256
801.783	26187
801.926	26320
802.068	26191
802.211	26164
802.353	26172
802.496	25928
802.638	25959
802.78	25780
802.923	25765
803.065	25727
803.208	25731
803.35	25784
803.492	25955
803.635	25925
803.777	25932
803.919	25921
804.061	26233
804.204	26050
804.346	25909
804.488	25757
804.63	25944
804.773	25860
804.915	25875
805.057	26031
805.199	25951
805.341	25830
805.483	25940
805.626	26073
805.768	26031
805.91	25936
806.052	26126
806.194	26024
806.336	26058
806.478	25993
806.62	25982
806.762	26210
806.904	26271
807.046	26511
807.188	26324
807.33	26370
807.472	26362
807.614	26237
807.756	26339
807.898	26263
808.04	26077
808.182	26168
808.324	26202
808.465	26347
808.607	26526
808.749	26560
808.891	26640
809.033	26830
809.174	26640
809.316	26518
809.458	26594
809.6	26556
809.741	26701
809.883	26682
810.025	26823
810.166	26982
810.308	26765
810.45	26746
810.591	26735
810.733	26644
810.875	26541
811.016	26469
811.158	26465
811.299	26667
811.441	26667
811.582	26762
811.724	26533
811.865	26366
812.007	26499
812.148	26465
812.29	26461
812.431	26682
812.573	26807
812.714	26906
812.855	26998
812.997	27351
813.138	27245
813.279	27211
813.421	26998
813.562	26952
813.703	26727
813.845	26724
813.986	26469
814.127	26343
814.268	26180
814.41	26263
814.551	26172
814.692	26355
814.833	26168
814.974	26176
815.115	26149
815.256	26062
815.397	26020
815.539	25986
815.68	25906
815.821	25898
815.962	26008
816.103	25894
816.244	25894
816.385	25723
816.526	25807
816.666	25563
816.807	25430
816.948	25445
817.089	25590
817.23	25415
817.371	25487
817.512	25441
817.653	25419
817.793	25415
817.934	25491
818.075	25388
818.216	25540
818.356	25282
818.497	25282
818.638	25145
818.778	25118
818.919	25129
819.06	25266
819.2	25308
819.341	25335
819.481	25441
819.622	25525
819.762	25651
819.903	25616
820.043	25651
820.184	25563
820.324	25487
820.465	25552
820.605	25381
820.746	25499
820.886	25430
821.026	25525
821.167	25426
821.307	25441
821.447	25365
821.588	25468
821.728	25160
821.868	25023
822.008	24897
822.149	24954
822.289	24886
822.429	24604
822.569	24559
822.709	24585
822.849	24304
822.99	24403
823.13	24342
823.27	24353
823.41	24102
823.55	24064
823.69	24281
823.83	24178
823.97	24216
824.11	23965
824.25	24015
824.389	23996
824.529	24098
824.669	24087
824.809	24079
824.949	24216
825.089	24034
825.228	23946
825.368	23946
825.508	23916
825.648	23707
825.787	23798
825.927	23752
826.067	23897
826.206	23889
826.346	23897
826.485	23878
826.625	23748
826.765	23809
826.904	23863
827.044	23501
827.183	23573
827.323	23619
827.462	23638
827.601	23585
827.741	23775
827.88	23581
828.02	23383
828.159	23554
828.298	23577
828.437	23627
828.577	23520
828.716	23577
828.855	23421
828.994	23193
829.134	23155
829.273	23261
829.412	23269
829.551	23307
829.69	23246
829.829	23330
829.968	23455
830.107	23368
830.246	23151
830.385	23208
830.524	23170
830.663	23067
830.802	22972
830.941	22877
831.08	22866
831.219	22923
831.357	22828
831.496	23079
831.635	22957
831.774	22767
831.913	22653
832.051	22805
832.19	22645
832.329	22565
832.467	22630
832.606	22656
832.744	22466
832.883	22664
833.022	22447
833.16	22504
833.299	22675
833.437	22519
833.576	22569
833.714	22622
833.852	22592
833.991	22816
834.129	22649
834.267	22687
834.406	22725
834.544	22637
834.682	22531
834.821	22580
834.959	22881
835.097	22516
835.235	22626
835.373	22626
835.511	22592
835.65	22478
835.788	22489
835.926	22455
836.064	22348
836.202	22276
836.34	22447
836.478	22577
836.615	22440
836.753	22577
836.891	22596
837.029	22550
837.167	22405
837.305	22379
837.443	22375
837.58	22379
837.718	22451
837.856	22493
837.993	22272
838.131	22333
838.269	22226
838.406	22215
838.544	22128
838.681	21953
838.819	21953
838.956	21831
839.094	21785
839.231	21941
839.369	21926
839.506	22192
839.643	22116
839.781	21861
839.918	21682
840.055	21918
840.193	21709
840.33	21747
840.467	21865
840.604	21800
840.742	22013
840.879	21591
841.016	21656
841.153	21648
841.29	21956
841.427	21656
841.564	21736
841.701	21774
841.838	21660
841.975	21759
842.112	21701
842.249	21587
842.385	21488
842.522	21679
842.659	21591
842.796	21473
842.933	21469
843.069	21454
843.206	21450
843.343	21564
843.479	21511
843.616	21538
843.752	21268
843.889	21336
844.025	21424
844.162	21336
844.298	21351
844.435	21363
844.571	21272
844.708	21275
844.844	21370
844.98	21344
845.117	21496
845.253	21252
845.389	21131
845.525	21070
845.661	21138
845.798	20944
845.934	21138
846.07	20948
846.206	21150
846.342	21142
846.478	21081
846.614	20861
846.75	20750
846.886	20777
847.022	20887
847.158	20750
847.294	20823
847.429	20838
847.565	20773
847.701	21013
847.837	20682
847.972	20564
848.108	20530
848.244	20682
848.379	20362
848.515	20332
848.65	20393
848.786	20381
848.921	20343
849.057	20446
849.192	20419
849.328	20351
849.463	20400
849.598	20324
849.734	20332
849.869	20161
850.004	20187
850.14	20138
850.275	20145
850.41	20008
850.545	20218
850.68	20081
850.815	20096
850.95	20210
851.085	20195
851.22	20237
851.355	20256
851.49	20119
851.625	20161
851.76	20088
851.895	20088
852.03	20031
852.165	20069
852.299	20138
852.434	20115
852.569	20225
852.703	20149
852.838	20301
852.973	20259
853.107	20294
853.242	20077
853.376	20008
853.511	19928
853.645	19909
853.78	20187
853.914	20027
854.048	19932
854.183	20035
854.317	19959
854.451	20138
854.585	20027
854.72	19902
854.854	19902
854.988	19970
855.122	19932
855.256	19856
855.39	19868
855.524	20035
855.658	20012
855.792	20050
855.926	19928
856.06	19951
856.194	20092
856.327	19894
856.461	19841
856.595	19925
856.729	19921
856.862	20134
856.996	19959
857.13	19978
857.263	19997
857.397	20035
857.53	19982
857.664	20012
857.797	20001
857.931	20065
858.064	20062
858.197	20069
858.331	19997
858.464	19864
858.597	19731
858.731	19890
858.864	19936
858.997	19940
859.13	19906
859.263	19890
859.396	20100
859.529	19822
859.662	19902
859.795	19944
859.928	19951
860.061	20084
860.194	20218
860.327	19989
860.46	19936
860.592	20031
860.725	20031
860.858	19997
860.99	20020
861.123	19818
861.256	19890
861.388	19989
861.521	20632
861.653	19757
861.786	19693
861.918	19871
862.05	19818
862.183	19772
862.315	19921
862.447	20054
862.58	19875
862.712	19712
862.844	19776
862.976	19780
863.108	19784
863.24	20024
863.372	19556
863.504	19693
863.636	19582
863.768	19674
863.9	19723
864.032	19693
864.164	19674
864.296	19757
864.428	19879
864.559	19769
864.691	19807
864.823	19685
864.954	19677
865.086	19708
865.217	19651
865.349	19578
865.48	19563
865.612	19681
865.743	19708
865.875	19677
866.006	19590
866.137	19601
866.269	19495
866.4	19666
866.531	19609
866.662	19472
866.793	19540
866.924	19472
867.055	19655
867.186	19548
867.317	19491
867.448	19502
867.579	19537
867.71	19514
867.841	19514
867.972	19563
868.103	19537
868.233	19746
868.364	19556
868.495	19674
868.625	19830
868.756	19845
868.886	19788
869.017	19772
869.147	19989
869.278	19909
869.408	19776
869.539	19807
869.669	19856
869.799	19875
869.929	19875
870.06	19936
870.19	20122
870.32	20073
870.45	20092
870.58	20229
870.71	20343
870.84	20259
870.97	20187
871.1	20145
871.23	20328
871.36	20450
871.489	20457
871.619	20324
871.749	20332
871.879	20473
872.008	20495
872.138	20507
872.267	20389
872.397	20210
872.526	20240
872.656	20172
872.785	20187
872.915	20507
873.044	20636
873.173	20377
873.303	20415
873.432	20469
873.561	20351
873.69	20484
873.819	20370
873.948	20461
874.077	20495
874.206	20400
874.335	20317
874.464	20522
874.593	20670
874.722	20522
874.851	20712
874.979	20689
875.108	20594
875.237	20670
875.365	20533
875.494	20636
875.623	20746
875.751	20602
875.88	20693
876.008	20811
876.136	20895
876.265	20986
876.393	21146
876.521	21138
876.65	21135
876.778	21154
876.906	21032
877.034	20994
877.162	21017
877.29	21074
877.418	21104
877.546	21039
877.674	21005
877.802	21123
877.93	21112
878.058	20944
878.185	20815
878.313	20960
878.441	21017
878.568	20948
878.696	20986
878.824	20979
878.951	21188
879.079	21275
879.206	21363
879.333	21310
879.461	21070
879.588	21096
879.715	21211
879.842	21279
879.97	20979
880.097	20864
880.224	20883
880.351	20762
880.478	20921
880.605	20826
880.732	20788
880.859	21131
880.986	20826
881.112	20872
881.239	20880
881.366	20609
881.493	20484
881.619	20446
881.746	20511
881.872	20492
881.999	20362
882.125	20423
882.252	20503
882.378	20408
882.505	20530
882.631	20328
882.757	20183
882.883	20218
883.01	20168
883.136	20161
883.262	19982
883.388	20084
883.514	20233
883.64	20183
883.766	20180
883.892	19959
884.018	19997
884.143	20050
884.269	20187
884.395	19875
884.52	19799
884.646	19902
884.772	19864
884.897	19708
885.023	19906
885.148	19959
885.274	19917
885.399	19898
885.524	19784
885.65	19814
885.775	19837
885.9	19807
886.025	19944
886.15	19841
886.275	19890
886.4	19750
886.525	19727
886.65	19807
886.775	19689
886.9	19928
887.025	19947
887.149	19814
887.274	19544
887.399	19586
887.523	19601
887.648	19510
887.773	19605
887.897	19693
888.021	19597
888.146	19464
888.27	19632
888.395	19712
888.519	19620
888.643	19746
888.767	19685
888.891	19472
889.015	19487
889.139	19605
889.263	19438
889.387	19400
889.511	19662
889.635	19578
889.759	19301
889.883	19369
890.006	19339
890.13	19445
890.254	19358
890.377	19415
890.501	19244
890.624	19145
890.748	19244
890.871	19072
890.995	19065
891.118	18939
891.241	18954
891.364	19042
891.488	19091
891.611	19107
891.734	18973
891.857	19038
891.98	19175
892.103	19133
892.226	19038
892.349	18875
892.471	18791
892.594	18947
892.717	19012
892.839	18985
892.962	19027
893.085	19050
893.207	18913
893.33	18791
893.452	18749
893.575	18958
893.697	18916
893.819	19008
893.941	19084
894.064	19228
894.186	18779
894.308	18844
894.43	19000
894.552	19225
894.674	19015
894.796	18833
894.918	18966
895.04	18882
895.161	19038
895.283	19000
895.405	18886
895.526	18916
895.648	18977
895.769	19034
895.891	19000
896.012	19061
896.134	18981
896.255	18973
896.376	18890
896.498	18951
896.619	18951
896.74	18989
896.861	19019
896.982	19297
897.103	19289
897.224	19270
897.345	19168
897.466	19217
897.587	19164
897.708	19308
897.828	19232
897.949	19225
898.07	19122
898.19	19156
898.311	19247
898.431	19217
898.552	19126
898.672	19324
898.792	19255
898.913	19255
899.033	19103
899.153	18977
899.273	18993
899.393	18909
899.513	19080
899.633	18977
899.753	19012
899.873	18833
899.993	18993
900.113	18935
900.232	18859
900.352	18909
900.472	18764
900.591	18814
900.711	18715
900.83	18673
900.95	18913
901.069	18749
901.189	18597
901.308	18433
901.427	18490
901.546	18311
901.665	18289
901.784	18296
901.904	18258
902.023	18129
902.141	17984
902.26	17840
902.379	18053
902.498	17874
902.617	17840
902.735	17935
902.854	17805
902.973	17726
903.091	17581
903.21	17585
903.328	17585
903.446	17501
903.565	17554
903.683	17410
903.801	17307
903.919	17360
904.038	17288
904.156	17239
904.274	17258
904.392	17277
904.51	17109
904.627	17185
904.745	17208
904.863	17254
904.981	17045
905.098	16839
905.216	16858
905.334	16881
905.451	16900
905.569	16725
905.686	16843
905.803	16782
905.921	16664
906.038	16706
906.155	16554
906.272	16508
906.389	16569
906.506	16398
906.623	16432
906.74	16341
906.857	16314
906.974	16268
907.091	16367
907.208	16500
907.324	16363
907.441	16417
907.557	16177
907.674	16173
907.79	16040
907.907	16109
908.023	16124
908.139	16074
908.256	16097
908.372	15934
908.488	15895
908.604	15884
908.72	15804
908.836	15812
908.952	15766
909.068	15739
909.184	15907
909.3	15766
909.415	15831
909.531	15781
909.647	15644
909.762	15606
909.878	15519
909.993	15595
910.108	15485
910.224	15450
910.339	15534
910.454	15431
910.57	15359
910.685	15393
910.8	15538
910.915	15469
911.03	15370
911.145	15165
911.259	15131
911.374	15188
911.489	15039
911.604	15066
911.718	14929
911.833	14944
911.947	14902
912.062	14731
912.176	14986
912.291	14944
912.405	15013
912.519	15097
912.633	15199
912.748	14941
912.862	14910
912.976	14693
913.09	14678
913.204	14720
913.318	14811
913.431	14785
913.545	14861
913.659	14826
913.772	14727
913.886	14545
914	14610
914.113	14648
914.226	14682
914.34	14663
914.453	14404
914.566	14606
914.68	14461
914.793	14469
914.906	14218
915.019	14298
915.132	14142
915.245	14214
915.358	14176
915.47	14225
915.583	14096
915.696	14259
915.809	14278
915.921	14244
916.034	14126
916.146	14119
916.259	14077
916.371	14092
916.483	14119
916.595	14073
916.708	14077
916.82	14119
916.932	14084
917.044	13982
917.156	13909
917.268	13909
917.38	13879
917.491	13780
917.603	13871
917.715	14001
917.826	13997
917.938	13788
918.049	13734
918.161	13917
918.272	14043
918.384	13932
918.495	13757
918.606	13795
918.717	13696
918.828	13662
918.939	13731
919.05	13674
919.161	13643
919.272	13457
919.383	13586
919.494	13765
919.604	13875
919.715	13578
919.826	13628
919.936	13499
920.047	13696
920.157	13643
920.267	13868
920.378	13616
920.488	13620
920.598	13826
920.708	13974
920.818	13765
920.928	13811
921.038	14024
921.148	13883
921.258	13502
921.368	13434
921.477	13430
921.587	13362
921.697	13301
921.806	13430
921.916	13228
922.025	13110
922.134	13069
922.244	13008
922.353	13091
922.462	12939
922.571	12837
922.68	12753
922.789	12779
922.898	12715
923.007	12654
923.116	12738
923.224	12692
923.333	12696
923.442	12540
923.55	12646
923.659	12646
923.767	12650
923.876	12464
923.984	12521
924.092	12471
924.201	12525
924.309	12521
924.417	12445
924.525	12426
924.633	12399
924.741	13251
924.849	12285
924.956	12289
925.064	12186
925.172	12079
925.279	12133
925.387	12209
925.494	12167
925.602	12258
925.709	12201
925.816	12114
925.924	12121
926.031	12171
926.138	12182
926.245	12083
926.352	12045
926.459	12194
926.566	12201
926.673	12095
926.779	12045
926.886	11950
926.993	11836
927.099	11748
927.206	11703
927.312	11786
927.419	11767
927.525	11767
927.631	11828
927.737	11646
927.843	11688
927.95	11551
928.056	11589
928.162	11547
928.267	11661
928.373	12277
928.479	11672
928.585	11417
928.69	11554
928.796	11589
928.901	11486
929.007	11364
929.112	11444
929.218	11417
929.323	11387
929.428	11383
929.533	11425
929.638	11341
929.743	11216
929.848	11341
929.953	11341
930.058	11181
930.163	11132
930.267	11037
930.372	11193
930.477	11018
930.581	11216
930.685	11140
930.79	10991
930.894	10965
930.998	10919
931.103	11086
931.207	10698
931.311	10615
931.415	10565
931.519	10329
931.623	10322
