Data from test_V78500241_2250.txt Node
Date: Fri Mar 25 15:25:31 CST 2022
User: usil
Spectrometer: V785-0024
Trigger mode: 0
Integration Time (sec): 4.000000E-1
Scans to average: 1
Nonlinearity correction enabled: false
Boxcar width: 0
Storing dark spectrum: false
XAxis mode: Wavelengths
Number of Pixels in Spectrum: 1024
>>>>>Begin Spectral Data<<<<<
801.071	27759
801.214	27660
801.356	27443
801.499	27336
801.641	27207
801.783	27241
801.926	27370
802.068	27237
802.211	27180
802.353	27245
802.496	26940
802.638	26918
802.78	26899
802.923	26952
803.065	26720
803.208	26758
803.35	26868
803.492	26963
803.635	27093
803.777	27024
803.919	27154
804.061	27427
804.204	27154
804.346	26956
804.488	27001
804.63	27226
804.773	27100
804.915	27123
805.057	27291
805.199	27142
805.341	27173
805.483	27142
805.626	27146
805.768	27150
805.91	27165
806.052	27047
806.194	27180
806.336	27370
806.478	27142
806.62	27188
806.762	27313
806.904	27458
807.046	27720
807.188	27648
807.33	27599
807.472	27633
807.614	27610
807.756	27568
807.898	27481
808.04	27614
808.182	27545
808.324	27587
808.465	27633
808.607	27591
808.749	27724
808.891	27888
809.033	27899
809.174	27835
809.316	27850
809.458	27797
809.6	27793
809.741	27922
809.883	28002
810.025	28059
810.166	28013
810.308	28124
810.45	27998
810.591	27899
810.733	27949
810.875	27816
811.016	27747
811.158	27641
811.299	27926
811.441	27934
811.582	28017
811.724	27903
811.865	27701
812.007	27739
812.148	27759
812.29	27846
812.431	27987
812.573	28280
812.714	28181
812.855	28382
812.997	28398
813.138	28653
813.279	28672
813.421	28436
813.562	28348
813.703	28215
813.845	28029
813.986	27747
814.127	27713
814.268	27477
814.41	27564
814.551	27351
814.692	27580
814.833	27481
814.974	27530
815.115	27450
815.256	27401
815.397	27542
815.539	27420
815.68	27382
815.821	27176
815.962	27393
816.103	27207
816.244	27135
816.385	27150
816.526	27066
816.666	26906
816.807	26834
816.948	26807
817.089	26940
817.23	26853
817.371	26754
817.512	26804
817.653	26823
817.793	26769
817.934	26621
818.075	26746
818.216	26762
818.356	26659
818.497	26720
818.638	26442
818.778	26511
818.919	26446
819.06	26499
819.2	26560
819.341	26948
819.481	26807
819.622	26857
819.762	27081
819.903	27108
820.043	26990
820.184	26956
820.324	26990
820.465	27074
820.605	26807
820.746	26758
820.886	26689
821.026	26952
821.167	26796
821.307	26895
821.447	26743
821.588	26712
821.728	26518
821.868	26396
822.008	26282
822.149	26294
822.289	26244
822.429	25993
822.569	25966
822.709	25913
822.849	25803
822.99	25731
823.13	25837
823.27	25837
823.41	25575
823.55	25548
823.69	25700
823.83	25556
823.97	25453
824.11	25392
824.25	25293
824.389	25403
824.529	25373
824.669	25350
824.809	25506
824.949	25487
825.089	25544
825.228	25449
825.368	25171
825.508	25171
825.648	25274
825.787	25251
825.927	25350
826.067	25255
826.206	25259
826.346	25221
826.485	25206
826.625	25278
826.765	25373
826.904	25308
827.044	25057
827.183	25019
827.323	25057
827.462	24992
827.601	24901
827.741	24985
827.88	24939
828.02	24848
828.159	24875
828.298	24958
828.437	25088
828.577	24791
828.716	24962
828.855	24760
828.994	24741
829.134	24635
829.273	24741
829.412	24563
829.551	24604
829.69	24654
829.829	24635
829.968	24684
830.107	24753
830.246	24665
830.385	24608
830.524	24589
830.663	24399
830.802	24350
830.941	24167
831.08	24155
831.219	24346
831.357	24399
831.496	24517
831.635	24289
831.774	24209
831.913	24079
832.051	24091
832.19	24216
832.329	24148
832.467	24026
832.606	23851
832.744	23916
832.883	23973
833.022	23977
833.16	23931
833.299	23901
833.437	23916
833.576	24007
833.714	23965
833.852	24057
833.991	24011
834.129	24133
834.267	24011
834.406	23973
834.544	24018
834.682	23980
834.821	24041
834.959	24057
835.097	23927
835.235	23950
835.373	23996
835.511	24026
835.65	23805
835.788	23798
835.926	23699
836.064	23608
836.202	23653
836.34	23863
836.478	23950
836.615	23737
836.753	23760
836.891	23912
837.029	23859
837.167	23783
837.305	23737
837.443	23817
837.58	23627
837.718	23638
837.856	23566
837.993	23566
838.131	23611
838.269	23547
838.406	23535
838.544	23528
838.681	23170
838.819	23334
838.956	23189
839.094	23212
839.231	23181
839.369	23307
839.506	23608
839.643	23493
839.781	23181
839.918	23044
840.055	23143
840.193	23231
840.33	23102
840.467	23098
840.604	23159
840.742	23242
840.879	22828
841.016	23033
841.153	22942
841.29	23261
841.427	22896
841.564	23056
841.701	23056
841.838	22919
841.975	22927
842.112	22957
842.249	22816
842.385	22854
842.522	23086
842.659	22820
842.796	22816
842.933	22740
843.069	22736
843.206	22816
843.343	22911
843.479	22847
843.616	22767
843.752	22702
843.889	22645
844.025	22816
844.162	22538
844.298	22854
844.435	22588
844.571	22622
844.708	22535
844.844	22683
844.98	22748
845.117	22713
845.253	22538
845.389	22615
845.525	22554
845.661	22504
845.798	22367
845.934	22356
846.07	22325
846.206	22352
846.342	22577
846.478	22287
846.614	22150
846.75	22044
846.886	22029
847.022	22143
847.158	22215
847.294	22044
847.429	22253
847.565	22063
847.701	22268
847.837	21907
847.972	21781
848.108	21903
848.244	21854
848.379	21599
848.515	21583
848.65	21606
848.786	21644
848.921	21549
849.057	21713
849.192	21789
849.328	21583
849.463	21572
849.598	21667
849.734	21644
849.869	21492
850.004	21435
850.14	21485
850.275	21515
850.41	21412
850.545	21359
850.68	21405
850.815	21435
850.95	21359
851.085	21709
851.22	21568
851.355	21454
851.49	21447
851.625	21462
851.76	21397
851.895	21397
852.03	21382
852.165	21287
852.299	21439
852.434	21462
852.569	21538
852.703	21393
852.838	21488
852.973	21561
853.107	21511
853.242	21336
853.376	21272
853.511	21142
853.645	21264
853.78	21458
853.914	21306
854.048	21195
854.183	21237
854.317	21416
854.451	21450
854.585	21291
854.72	21287
854.854	21397
854.988	21142
855.122	21317
855.256	21192
855.39	21195
855.524	21329
855.658	21287
855.792	21245
855.926	21313
856.06	21279
856.194	21192
856.327	21283
856.461	21218
856.595	21131
856.729	21176
856.862	21340
856.996	21252
857.13	21313
857.263	21272
857.397	21363
857.53	21184
857.664	21424
857.797	21275
857.931	21317
858.064	21302
858.197	21397
858.331	21138
858.464	21264
858.597	21195
858.731	21173
858.864	21127
858.997	21195
859.13	21173
859.263	21302
859.396	21275
859.529	21241
859.662	21154
859.795	21203
859.928	21233
860.061	21332
860.194	21557
860.327	21279
860.46	21268
860.592	21241
860.725	21370
860.858	21348
860.99	21173
861.123	20967
861.256	21135
861.388	21283
861.521	21911
861.653	21161
861.786	21081
861.918	21123
862.05	21096
862.183	21169
862.315	21173
862.447	21123
862.58	21127
862.712	20883
862.844	20956
862.976	21051
863.108	20910
863.24	21313
863.372	20826
863.504	20914
863.636	21024
863.768	20956
863.9	21017
864.032	20857
864.164	21036
864.296	21009
864.428	21096
864.559	21077
864.691	21142
864.823	21024
864.954	20895
865.086	20883
865.217	20899
865.349	20716
865.48	20823
865.612	20979
865.743	20956
865.875	20735
866.006	20811
866.137	20857
866.269	20727
866.4	20804
866.531	20857
866.662	20701
866.793	20746
866.924	20765
867.055	20792
867.186	20743
867.317	20701
867.448	20785
867.579	20689
867.71	20731
867.841	20686
867.972	20735
868.103	20750
868.233	20834
868.364	20864
868.495	20800
868.625	21055
868.756	21100
868.886	20998
869.017	21104
869.147	21055
869.278	21195
869.408	21017
869.539	21020
869.669	21043
869.799	21161
869.929	21150
870.06	21176
870.19	21260
870.32	21218
870.45	21370
870.58	21500
870.71	21583
870.84	21462
870.97	21412
871.1	21412
871.23	21591
871.36	21595
871.489	21523
871.619	21530
871.749	21526
871.879	21679
872.008	21694
872.138	21648
872.267	21572
872.397	21557
872.526	21454
872.656	21488
872.785	21462
872.915	21549
873.044	21701
873.173	21629
873.303	21660
873.432	21648
873.561	21785
873.69	21747
873.819	21553
873.948	21656
874.077	21507
874.206	21759
874.335	21667
874.464	21781
874.593	21876
874.722	21705
874.851	21846
874.979	21937
875.108	21949
875.237	21705
875.365	21713
875.494	21838
875.623	21915
875.751	21793
875.88	21930
876.008	22044
876.136	22097
876.265	22268
876.393	22375
876.521	22421
876.65	22249
876.778	22314
876.906	22120
877.034	22204
877.162	22147
877.29	22223
877.418	22200
877.546	22185
877.674	22226
877.802	22166
877.93	22211
878.058	22200
878.185	22055
878.313	22120
878.441	22268
878.568	21922
878.696	22112
878.824	22265
878.951	22280
879.079	22230
879.206	22443
879.333	22348
879.461	22295
879.588	22421
879.715	22443
879.842	22462
879.97	22394
880.097	22105
880.224	22051
880.351	22112
880.478	22063
880.605	22025
880.732	22048
880.859	22200
880.986	21998
881.112	21857
881.239	21747
881.366	21709
881.493	21819
881.619	21576
881.746	21583
881.872	21591
881.999	21526
882.125	21587
882.252	21686
882.378	21542
882.505	21793
882.631	21488
882.757	21317
882.883	21431
883.01	21329
883.136	21268
883.262	21298
883.388	21150
883.514	21317
883.64	21408
883.766	21249
883.892	21116
884.018	21173
884.143	21211
884.269	21298
884.395	21077
884.52	20979
884.646	20960
884.772	20853
884.897	20845
885.023	20861
885.148	21112
885.274	21104
885.399	21043
885.524	20929
885.65	20990
885.775	20929
885.9	20910
886.025	21096
886.15	20990
886.275	20944
886.4	20815
886.525	20887
886.65	20781
886.775	20834
886.9	20861
887.025	21173
887.149	21001
887.274	20792
887.399	20781
887.523	20609
887.648	20674
887.773	20629
887.897	20769
888.021	20899
888.146	20686
888.27	20724
888.395	20826
888.519	20830
888.643	20712
888.767	20724
888.891	20667
889.015	20480
889.139	20579
889.263	20469
889.387	20609
889.511	20720
889.635	20727
889.759	20488
889.883	20476
890.006	20518
890.13	20640
890.254	20457
890.377	20503
890.501	20313
890.624	20301
890.748	20256
890.871	20157
890.995	20161
891.118	20001
891.241	19982
891.364	20077
891.488	20233
891.611	20149
891.734	19967
891.857	20221
891.98	20043
892.103	20153
892.226	20183
892.349	20084
892.471	20077
892.594	20008
892.717	20024
892.839	19967
892.962	19982
893.085	20062
893.207	19940
893.33	19849
893.452	19849
893.575	19978
893.697	19978
893.819	20142
893.941	20263
894.064	20069
894.186	19883
894.308	19989
894.43	20024
894.552	20206
894.674	20145
894.796	19925
894.918	19928
895.04	19890
895.161	20122
895.283	20161
895.405	19963
895.526	20081
895.648	20096
895.769	19906
895.891	20062
896.012	20054
896.134	20088
896.255	20092
896.376	19921
896.498	19940
896.619	20020
896.74	19936
896.861	19982
896.982	20271
897.103	20404
897.224	20218
897.345	20229
897.466	20164
897.587	20313
897.708	20240
897.828	20336
897.949	20096
898.07	20107
898.19	20161
898.311	20427
898.431	20103
898.552	20183
898.672	20309
898.792	20214
898.913	20248
899.033	20046
899.153	20092
899.273	19879
899.393	20054
899.513	19814
899.633	19978
899.753	20001
899.873	19883
899.993	19982
900.113	19837
900.232	20054
900.352	19879
900.472	19822
900.591	19738
900.711	19696
900.83	19693
900.95	19856
901.069	19925
901.189	19677
901.308	19335
901.427	19308
901.546	19270
901.665	19339
901.784	19362
901.904	19301
902.023	19187
902.141	18939
902.26	18905
902.379	18928
902.498	18894
902.617	18810
902.735	18848
902.854	18840
902.973	18798
903.091	18597
903.21	18517
903.328	18517
903.446	18464
903.565	18403
903.683	18296
903.801	18254
903.919	18243
904.038	18159
904.156	18220
904.274	18144
904.392	17996
904.51	18098
904.627	18057
904.745	18125
904.863	18171
904.981	17859
905.098	17805
905.216	17752
905.334	17779
905.451	17821
905.569	17653
905.686	17904
905.803	17851
905.921	17596
906.038	17707
906.155	17604
906.272	17398
906.389	17383
906.506	17337
906.623	17337
906.74	17303
906.857	17261
906.974	17102
907.091	17307
907.208	17387
907.324	17341
907.441	17254
907.557	17128
907.674	17056
907.79	16949
907.907	16991
908.023	17105
908.139	16968
908.256	16991
908.372	16892
908.488	16877
908.604	16816
908.72	16725
908.836	16706
908.952	16736
909.068	16717
909.184	16793
909.3	16790
909.415	16850
909.531	16694
909.647	16436
909.762	16356
909.878	16405
909.993	16455
910.108	16371
910.224	16394
910.339	16459
910.454	16207
910.57	16276
910.685	16188
910.8	16436
910.915	16409
911.03	16360
911.145	16124
911.259	15979
911.374	16021
911.489	15953
911.604	15941
911.718	15785
911.833	15778
911.947	15660
912.062	15648
912.176	15800
912.291	15778
912.405	15679
912.519	15899
912.633	16048
912.748	15800
912.862	15743
912.976	15614
913.09	15485
913.204	15603
913.318	15633
913.431	15705
913.545	15717
913.659	15652
913.772	15561
913.886	15504
914	15435
914.113	15477
914.226	15561
914.34	15473
914.453	15336
914.566	15424
914.68	15321
914.793	15249
914.906	15074
915.019	15077
915.132	14990
915.245	15009
915.358	15089
915.47	15047
915.583	15028
915.696	15062
915.809	15169
915.921	15108
916.034	14956
916.146	15028
916.259	15013
916.371	15077
916.483	14967
916.595	14834
916.708	14941
916.82	14868
916.932	14845
917.044	14895
917.156	14769
917.268	14746
917.38	14686
917.491	14674
917.603	14762
917.715	14811
917.826	14735
917.938	14648
918.049	14583
918.161	14640
918.272	14686
918.384	14788
918.495	14625
918.606	14488
918.717	14473
918.828	14484
918.939	14457
919.05	14267
919.161	14446
919.272	14233
919.383	14278
919.494	14495
919.604	14667
919.715	14492
919.826	14358
919.936	14343
920.047	14511
920.157	14507
920.267	14655
920.378	14469
920.488	14381
920.598	14663
920.708	14625
920.818	14602
920.928	14518
921.038	14727
921.148	14667
921.258	14396
921.368	14221
921.477	14176
921.587	14126
921.697	14115
921.806	14256
921.916	14020
922.025	13776
922.134	13860
922.244	13807
922.353	13734
922.462	13651
922.571	13571
922.68	13510
922.789	13597
922.898	13540
923.007	13419
923.116	13472
923.224	13312
923.333	13499
923.442	13285
923.55	13225
923.659	13308
923.767	13369
923.876	13194
923.984	13335
924.092	13194
924.201	13289
924.309	13278
924.417	13255
924.525	13095
924.633	13069
924.741	13906
924.849	12947
924.956	13069
925.064	12970
925.172	12890
925.279	12814
925.387	12897
925.494	12829
925.602	12954
925.709	12905
925.816	12760
925.924	12821
926.031	12829
926.138	12916
926.245	12916
926.352	12700
926.459	12920
926.566	12848
926.673	12760
926.779	12593
926.886	12604
926.993	12414
927.099	12361
927.206	12399
927.312	12350
927.419	12414
927.525	12437
927.631	12433
927.737	12327
927.843	12289
927.95	12190
928.056	12304
928.162	12327
928.267	12311
928.373	12947
928.479	12289
928.585	12194
928.69	12197
928.796	12228
928.901	12106
929.007	12049
929.112	12102
929.218	12106
929.323	11950
929.428	11984
929.533	12091
929.638	11923
929.743	11923
929.848	12007
929.953	11843
930.058	11813
930.163	11726
930.267	11722
930.372	11874
930.477	11661
930.581	11847
930.685	11771
930.79	11573
930.894	11619
930.998	11566
931.103	11627
931.207	11292
931.311	11201
931.415	11136
931.519	10965
931.623	10995
