Data from test_V78500241_3538.txt Node
Date: Fri Mar 25 15:34:29 CST 2022
User: usil
Spectrometer: V785-0024
Trigger mode: 0
Integration Time (sec): 4.000000E-1
Scans to average: 1
Nonlinearity correction enabled: false
Boxcar width: 0
Storing dark spectrum: false
XAxis mode: Wavelengths
Number of Pixels in Spectrum: 1024
>>>>>Begin Spectral Data<<<<<
801.071	27272
801.214	27233
801.356	27051
801.499	26872
801.641	26876
801.783	26792
801.926	26845
802.068	26845
802.211	26800
802.353	26731
802.496	26453
802.638	26465
802.78	26351
802.923	26275
803.065	26278
803.208	26370
803.35	26332
803.492	26587
803.635	26758
803.777	26484
803.919	26655
804.061	26807
804.204	26602
804.346	26621
804.488	26461
804.63	26480
804.773	26469
804.915	26453
805.057	26754
805.199	26492
805.341	26545
805.483	26625
805.626	26777
805.768	26522
805.91	26640
806.052	26667
806.194	26667
806.336	26872
806.478	26693
806.62	26526
806.762	26796
806.904	26838
807.046	27230
807.188	26986
807.33	26963
807.472	27093
807.614	27081
807.756	27028
807.898	26975
808.04	26845
808.182	26891
808.324	26864
808.465	26982
808.607	27192
808.749	27272
808.891	27386
809.033	27435
809.174	27329
809.316	27203
809.458	27389
809.6	27176
809.741	27401
809.883	27374
810.025	27488
810.166	27603
810.308	27568
810.45	27572
810.591	27439
810.733	27226
810.875	27321
811.016	27184
811.158	27157
811.299	27469
811.441	27485
811.582	27454
811.724	27294
811.865	27260
812.007	27401
812.148	27252
812.29	27310
812.431	27450
812.573	27473
812.714	27663
812.855	27675
812.997	27766
813.138	28040
813.279	27968
813.421	27778
813.562	27583
813.703	27557
813.845	27370
813.986	27138
814.127	26998
814.268	27047
814.41	27074
814.551	26975
814.692	26986
814.833	26735
814.974	26861
815.115	26914
815.256	26762
815.397	27001
815.539	26655
815.68	26796
815.821	26625
815.962	26746
816.103	26594
816.244	26659
816.385	26469
816.526	26351
816.666	26415
816.807	26218
816.948	26237
817.089	26259
817.23	26313
817.371	26161
817.512	26161
817.653	26084
817.793	25978
817.934	26164
818.075	26202
818.216	26157
818.356	26229
818.497	26145
818.638	25894
818.778	25936
818.919	26016
819.06	26065
819.2	26153
819.341	26298
819.481	26259
819.622	26332
819.762	26537
819.903	26427
820.043	26408
820.184	26298
820.324	26263
820.465	26377
820.605	26351
820.746	26294
820.886	26119
821.026	26240
821.167	26206
821.307	26244
821.447	26153
821.588	25982
821.728	26115
821.868	25830
822.008	25712
822.149	25613
822.289	25575
822.429	25415
822.569	25362
822.709	25335
822.849	25145
822.99	25171
823.13	25088
823.27	25133
823.41	25107
823.55	24897
823.69	24863
823.83	25027
823.97	24932
824.11	24791
824.25	24810
824.389	24833
824.529	24711
824.669	24806
824.809	24878
824.949	24856
825.089	24962
825.228	24757
825.368	24703
825.508	24540
825.648	24726
825.787	24563
825.927	24711
826.067	24547
826.206	24601
826.346	24719
826.485	24772
826.625	24734
826.765	24749
826.904	24776
827.044	24441
827.183	24380
827.323	24578
827.462	24525
827.601	24426
827.741	24357
827.88	24159
828.02	24281
828.159	24388
828.298	24338
828.437	24296
828.577	24357
828.716	24509
828.855	24300
828.994	24003
829.134	24102
829.273	24205
829.412	24011
829.551	24034
829.69	24171
829.829	24102
829.968	24140
830.107	24148
830.246	24034
830.385	23973
830.524	24015
830.663	24034
830.802	23855
830.941	23817
831.08	23653
831.219	23863
831.357	23718
831.496	23931
831.635	23627
831.774	23646
831.913	23520
832.051	23520
832.19	23486
832.329	23535
832.467	23398
832.606	23368
832.744	23330
832.883	23368
833.022	23356
833.16	23398
833.299	23452
833.437	23543
833.576	23619
833.714	23421
833.852	23554
833.991	23642
834.129	23627
834.267	23505
834.406	23535
834.544	23539
834.682	23482
834.821	23619
834.959	23539
835.097	23421
835.235	23425
835.373	23474
835.511	23585
835.65	23452
835.788	23372
835.926	23273
836.064	23102
836.202	23159
836.34	23235
836.478	23414
836.615	23296
836.753	23414
836.891	23231
837.029	23383
837.167	23204
837.305	23227
837.443	23151
837.58	23204
837.718	23204
837.856	23261
837.993	23128
838.131	23197
838.269	22980
838.406	23079
838.544	23083
838.681	22854
838.819	22927
838.956	22653
839.094	22706
839.231	22683
839.369	22717
839.506	23105
839.643	22839
839.781	22557
839.918	22577
840.055	22561
840.193	22577
840.33	22630
840.467	22672
840.604	22630
840.742	22858
840.879	22481
841.016	22580
841.153	22459
841.29	22641
841.427	22592
841.564	22561
841.701	22626
841.838	22603
841.975	22500
842.112	22599
842.249	22325
842.385	22287
842.522	22637
842.659	22455
842.796	22303
842.933	22322
843.069	22325
843.206	22219
843.343	22478
843.479	22375
843.616	22284
843.752	22074
843.889	22192
844.025	22299
844.162	22143
844.298	22147
844.435	22150
844.571	22017
844.708	22226
844.844	22249
844.98	22306
845.117	22158
845.253	22101
845.389	22040
845.525	21903
845.661	21994
845.798	21892
845.934	22032
846.07	21739
846.206	21918
846.342	21945
846.478	21838
846.614	21606
846.75	21519
846.886	21549
847.022	21587
847.158	21599
847.294	21576
847.429	21743
847.565	21603
847.701	21838
847.837	21355
847.972	21340
848.108	21279
848.244	21382
848.379	21302
848.515	21249
848.65	21214
848.786	21252
848.921	21233
849.057	21321
849.192	21211
849.328	21233
849.463	21222
849.598	21138
849.734	21146
849.869	20990
850.004	20963
850.14	20990
850.275	20887
850.41	20872
850.545	20956
850.68	20918
850.815	20918
850.95	21017
851.085	21100
851.22	21047
851.355	20975
851.49	21005
851.625	20925
851.76	20948
851.895	20902
852.03	20891
852.165	20902
852.299	21024
852.434	21074
852.569	20906
852.703	21032
852.838	21051
852.973	21066
853.107	21009
853.242	20830
853.376	20716
853.511	20594
853.645	20689
853.78	20853
853.914	20834
854.048	20750
854.183	20632
854.317	20861
854.451	20998
854.585	20765
854.72	20773
854.854	20773
854.988	20674
855.122	20785
855.256	20682
855.39	20868
855.524	20765
855.658	20834
855.792	20819
855.926	20807
856.06	20872
856.194	20849
856.327	20750
856.461	20689
856.595	20735
856.729	20743
856.862	20918
856.996	20788
857.13	20773
857.263	20990
857.397	20861
857.53	20800
857.664	20902
857.797	20834
857.931	20883
858.064	20868
858.197	20857
858.331	20712
858.464	20682
858.597	20659
858.731	20720
858.864	20781
858.997	20853
859.13	20861
859.263	20853
859.396	20819
859.529	20670
859.662	20701
859.795	20648
859.928	20758
860.061	20902
860.194	21005
860.327	20796
860.46	20781
860.592	20899
860.725	20948
860.858	20868
860.99	20697
861.123	20613
861.256	20762
861.388	20773
861.521	21572
861.653	20686
861.786	20556
861.918	20594
862.05	20693
862.183	20720
862.315	20598
862.447	20785
862.58	20625
862.712	20495
862.844	20454
862.976	20556
863.108	20469
863.24	20861
863.372	20438
863.504	20495
863.636	20446
863.768	20507
863.9	20575
864.032	20446
864.164	20457
864.296	20495
864.428	20636
864.559	20545
864.691	20629
864.823	20492
864.954	20507
865.086	20469
865.217	20522
865.349	20389
865.48	20450
865.612	20396
865.743	20457
865.875	20476
866.006	20301
866.137	20488
866.269	20476
866.4	20259
866.531	20454
866.662	20267
866.793	20286
866.924	20377
867.055	20362
867.186	20347
867.317	20343
867.448	20271
867.579	20434
867.71	20301
867.841	20267
867.972	20450
868.103	20294
868.233	20362
868.364	20385
868.495	20473
868.625	20461
868.756	20636
868.886	20541
869.017	20499
869.147	20632
869.278	20682
869.408	20667
869.539	20526
869.669	20826
869.799	20731
869.929	20682
870.06	20598
870.19	20785
870.32	20853
870.45	20906
870.58	20967
870.71	21039
870.84	21104
870.97	20994
871.1	20956
871.23	21001
871.36	21230
871.489	21070
871.619	21176
871.749	21211
871.879	21222
872.008	21291
872.138	21260
872.267	21161
872.397	21074
872.526	20952
872.656	21070
872.785	21062
872.915	21112
873.044	21233
873.173	21306
873.303	21275
873.432	21157
873.561	21294
873.69	21142
873.819	21112
873.948	21226
874.077	21058
874.206	21131
874.335	21268
874.464	21310
874.593	21568
874.722	21378
874.851	21492
874.979	21519
875.108	21477
875.237	21416
875.365	21279
875.494	21405
875.623	21481
875.751	21374
875.88	21530
876.008	21629
876.136	21682
876.265	21778
876.393	21865
876.521	22017
876.65	21850
876.778	21934
876.906	21759
877.034	21739
877.162	21873
877.29	21888
877.418	21823
877.546	21865
877.674	21728
877.802	21698
877.93	21774
878.058	21823
878.185	21686
878.313	21701
878.441	21797
878.568	21583
878.696	21743
878.824	21876
878.951	21869
879.079	22070
879.206	22131
879.333	22040
879.461	21934
879.588	22006
879.715	21987
879.842	22150
879.97	21926
880.097	21656
880.224	21739
880.351	21762
880.478	21671
880.605	21679
880.732	21625
880.859	21979
880.986	21743
881.112	21656
881.239	21462
881.366	21485
881.493	21272
881.619	21184
881.746	21260
881.872	21355
881.999	21222
882.125	21294
882.252	21218
882.378	21161
882.505	21245
882.631	21093
882.757	20994
882.883	21100
883.01	20918
883.136	20944
883.262	20838
883.388	20842
883.514	20876
883.64	20998
883.766	20842
883.892	20670
884.018	20872
884.143	20853
884.269	20887
884.395	20609
884.52	20552
884.646	20743
884.772	20552
884.897	20469
885.023	20651
885.148	20735
885.274	20800
885.399	20659
885.524	20617
885.65	20469
885.775	20480
885.9	20594
886.025	20640
886.15	20613
886.275	20526
886.4	20450
886.525	20495
886.65	20454
886.775	20499
886.9	20663
887.025	20735
887.149	20564
887.274	20530
887.399	20438
887.523	20351
887.648	20313
887.773	20320
887.897	20476
888.021	20427
888.146	20183
888.27	20579
888.395	20514
888.519	20351
888.643	20317
888.767	20412
888.891	20362
889.015	20088
889.139	20259
889.263	20119
889.387	20252
889.511	20332
889.635	20362
889.759	20164
889.883	20142
890.006	20252
890.13	20225
890.254	20100
890.377	20149
890.501	19936
890.624	19993
890.748	20008
890.871	19883
890.995	19674
891.118	19689
891.241	19643
891.364	19727
891.488	19875
891.611	19658
891.734	19776
891.857	19757
891.98	19795
892.103	19780
892.226	19833
892.349	19719
892.471	19556
892.594	19518
892.717	19655
892.839	19632
892.962	19715
893.085	19670
893.207	19689
893.33	19510
893.452	19563
893.575	19643
893.697	19731
893.819	19890
893.941	19791
894.064	19753
894.186	19502
894.308	19594
894.43	19776
894.552	19803
894.674	19666
894.796	19567
894.918	19624
895.04	19632
895.161	19776
895.283	19723
895.405	19597
895.526	19875
895.648	19548
895.769	19662
895.891	19712
896.012	19731
896.134	19609
896.255	19670
896.376	19628
896.498	19624
896.619	19666
896.74	19685
896.861	19708
896.982	20024
897.103	20039
897.224	19902
897.345	19791
897.466	19761
897.587	19826
897.708	20145
897.828	19967
897.949	19841
898.07	19788
898.19	19887
898.311	20043
898.431	19871
898.552	19868
898.672	20008
898.792	20088
898.913	19845
899.033	19757
899.153	19738
899.273	19586
899.393	19601
899.513	19655
899.633	19662
899.753	19685
899.873	19537
899.993	19734
900.113	19590
900.232	19643
900.352	19613
900.472	19434
900.591	19282
900.711	19575
900.83	19324
900.95	19460
901.069	19540
901.189	19209
901.308	19179
901.427	19103
901.546	18939
901.665	18943
901.784	19015
901.904	18844
902.023	18852
902.141	18551
902.26	18658
902.379	18612
902.498	18547
902.617	18585
902.735	18612
902.854	18532
902.973	18483
903.091	18235
903.21	18289
903.328	18270
903.446	18087
903.565	18038
903.683	18095
903.801	18030
903.919	17866
904.038	17874
904.156	17851
904.274	17764
904.392	17771
904.51	17828
904.627	17646
904.745	17840
904.863	17870
904.981	17512
905.098	17493
905.216	17383
905.334	17448
905.451	17490
905.569	17356
905.686	17459
905.803	17395
905.921	17326
906.038	17277
906.155	17288
906.272	17155
906.389	17250
906.506	17083
906.623	17048
906.74	17045
906.857	16923
906.974	16915
907.091	17041
907.208	17197
907.324	17003
907.441	17003
907.557	16942
907.674	16717
907.79	16713
907.907	16767
908.023	16634
908.139	16831
908.256	16645
908.372	16558
908.488	16622
908.604	16561
908.72	16485
908.836	16500
908.952	16447
909.068	16333
909.184	16569
909.3	16428
909.415	16554
909.531	16436
909.647	16188
909.762	16128
909.878	16128
909.993	16162
910.108	16124
910.224	16032
910.339	16173
910.454	15918
910.57	15994
910.685	15903
910.8	16215
910.915	16097
911.03	15926
911.145	15816
911.259	15720
911.374	15762
911.489	15667
911.604	15660
911.718	15511
911.833	15523
911.947	15416
912.062	15424
912.176	15568
912.291	15641
912.405	15485
912.519	15755
912.633	15732
912.748	15526
912.862	15469
912.976	15378
913.09	15252
913.204	15317
913.318	15340
913.431	15443
913.545	15382
913.659	15454
913.772	15214
913.886	15268
914	15192
914.113	15214
914.226	15214
914.34	15165
914.453	15032
914.566	15226
914.68	15070
914.793	15017
914.906	14830
915.019	14811
915.132	14781
915.245	14743
915.358	14765
915.47	14743
915.583	14838
915.696	14849
915.809	14925
915.921	14933
916.034	14804
916.146	14674
916.259	14625
916.371	14746
916.483	14739
916.595	14590
916.708	14579
916.82	14598
916.932	14610
917.044	14545
917.156	14492
917.268	14393
917.38	14473
917.491	14400
917.603	14385
917.715	14492
917.826	14514
917.938	14385
918.049	14362
918.161	14389
918.272	14522
918.384	14454
918.495	14366
918.606	14225
918.717	14103
918.828	14298
918.939	14271
919.05	14123
919.161	14225
919.272	14008
919.383	14027
919.494	14225
919.604	14385
919.715	14111
919.826	14039
919.936	14145
920.047	14240
920.157	14145
920.267	14305
920.378	14092
920.488	14161
920.598	14259
920.708	14362
920.818	14313
920.928	14313
921.038	14514
921.148	14370
921.258	14100
921.368	14012
921.477	13826
921.587	13841
921.697	13769
921.806	13974
921.916	13879
922.025	13609
922.134	13529
922.244	13506
922.353	13556
922.462	13403
922.571	13350
922.68	13221
922.789	13228
922.898	13244
923.007	13141
923.116	13259
923.224	13145
923.333	13126
923.442	12993
923.55	13053
923.659	13091
923.767	13137
923.876	12993
923.984	13129
924.092	12939
924.201	13012
924.309	12894
924.417	12882
924.525	12829
924.633	12856
924.741	13674
924.849	12665
924.956	12787
925.064	12688
925.172	12593
925.279	12665
925.387	12639
925.494	12650
925.602	12684
925.709	12814
925.816	12559
925.924	12658
926.031	12677
926.138	12578
926.245	12639
926.352	12494
926.459	12627
926.566	12703
926.673	12555
926.779	12330
926.886	12418
926.993	12311
927.099	12197
927.206	12209
927.312	12224
927.419	12292
927.525	12186
927.631	12239
927.737	12190
927.843	12121
927.95	12019
928.056	12072
928.162	12045
928.267	12144
928.373	12517
928.479	12121
928.585	11931
928.69	12030
928.796	12064
928.901	11878
929.007	11764
929.112	11977
929.218	11836
929.323	11828
929.428	11855
929.533	11878
929.638	11676
929.743	11699
929.848	11764
929.953	11718
930.058	11611
930.163	11463
930.267	11463
930.372	11630
930.477	11406
930.581	11684
930.685	11562
930.79	11444
930.894	11391
930.998	11353
931.103	11455
931.207	11166
931.311	11056
931.415	10984
931.519	10782
931.623	10778
