Data from test_V78500241_2827.txt Node
Date: Fri Mar 25 15:29:32 CST 2022
User: usil
Spectrometer: V785-0024
Trigger mode: 0
Integration Time (sec): 4.000000E-1
Scans to average: 1
Nonlinearity correction enabled: false
Boxcar width: 0
Storing dark spectrum: false
XAxis mode: Wavelengths
Number of Pixels in Spectrum: 1024
>>>>>Begin Spectral Data<<<<<
801.071	27302
801.214	27188
801.356	26960
801.499	26929
801.641	26727
801.783	26754
801.926	26708
802.068	26785
802.211	26792
802.353	26575
802.496	26530
802.638	26457
802.78	26366
802.923	26248
803.065	26267
803.208	26377
803.35	26476
803.492	26453
803.635	26518
803.777	26469
803.919	26469
804.061	26956
804.204	26446
804.346	26461
804.488	26587
804.63	26625
804.773	26339
804.915	26522
805.057	26777
805.199	26488
805.341	26594
805.483	26537
805.626	26667
805.768	26579
805.91	26781
806.052	26762
806.194	26564
806.336	26758
806.478	26651
806.62	26697
806.762	26826
806.904	27047
807.046	27306
807.188	27089
807.33	27127
807.472	27108
807.614	27047
807.756	27001
807.898	26929
808.04	26705
808.182	26792
808.324	26975
808.465	26868
808.607	27188
808.749	27195
808.891	27405
809.033	27488
809.174	27325
809.316	27062
809.458	27272
809.6	27241
809.741	27443
809.883	27454
810.025	27580
810.166	27447
810.308	27526
810.45	27576
810.591	27572
810.733	27188
810.875	27294
811.016	27150
811.158	27005
811.299	27306
811.441	27466
811.582	27458
811.724	27325
811.865	27306
812.007	27169
812.148	27108
812.29	27275
812.431	27492
812.573	27603
812.714	27705
812.855	27603
812.997	27800
813.138	27876
813.279	27835
813.421	27705
813.562	27675
813.703	27629
813.845	27473
813.986	27032
814.127	27028
814.268	26864
814.41	26956
814.551	26921
814.692	26956
814.833	26781
814.974	26921
815.115	26960
815.256	26838
815.397	26895
815.539	26712
815.68	26830
815.821	26697
815.962	26705
816.103	26689
816.244	26606
816.385	26492
816.526	26377
816.666	26309
816.807	26199
816.948	26294
817.089	26343
817.23	26111
817.371	26065
817.512	26191
817.653	26183
817.793	26149
817.934	26252
818.075	26168
818.216	26164
818.356	26058
818.497	26008
818.638	25947
818.778	25925
818.919	25860
819.06	26035
819.2	25921
819.341	26157
819.481	26138
819.622	26252
819.762	26480
819.903	26473
820.043	26328
820.184	26233
820.324	26229
820.465	26339
820.605	26355
820.746	26164
820.886	26187
821.026	26244
821.167	26195
821.307	26183
821.447	26157
821.588	26031
821.728	25879
821.868	25723
822.008	25556
822.149	25586
822.289	25670
822.429	25373
822.569	25304
822.709	25419
822.849	25148
822.99	25213
823.13	25038
823.27	25194
823.41	24939
823.55	24844
823.69	24981
823.83	24913
823.97	24909
824.11	24688
824.25	24692
824.389	24772
824.529	24798
824.669	24806
824.809	24875
824.949	24844
825.089	24817
825.228	24802
825.368	24669
825.508	24479
825.648	24692
825.787	24578
825.927	24703
826.067	24570
826.206	24536
826.346	24623
826.485	24582
826.625	24631
826.765	24715
826.904	24589
827.044	24384
827.183	24380
827.323	24365
827.462	24448
827.601	24448
827.741	24372
827.88	24346
828.02	24258
828.159	24380
828.298	24407
828.437	24330
828.577	24266
828.716	24483
828.855	24338
828.994	24060
829.134	24045
829.273	24076
829.412	23942
829.551	23916
829.69	24049
829.829	23996
829.968	24079
830.107	24049
830.246	23954
830.385	23893
830.524	23889
830.663	23843
830.802	23832
830.941	23528
831.08	23634
831.219	23627
831.357	23779
831.496	23885
831.635	23577
831.774	23547
831.913	23535
832.051	23459
832.19	23398
832.329	23467
832.467	23208
832.606	23322
832.744	23334
832.883	23322
833.022	23181
833.16	23341
833.299	23341
833.437	23379
833.576	23299
833.714	23402
833.852	23417
833.991	23425
834.129	23414
834.267	23512
834.406	23406
834.544	23463
834.682	23452
834.821	23425
834.959	23547
835.097	23406
835.235	23471
835.373	23368
835.511	23322
835.65	23193
835.788	23197
835.926	23170
836.064	22953
836.202	23113
836.34	23258
836.478	23223
836.615	23143
836.753	23155
836.891	23265
837.029	23334
837.167	23166
837.305	23094
837.443	23044
837.58	23056
837.718	23140
837.856	22927
837.993	22984
838.131	23136
838.269	22965
838.406	22995
838.544	22869
838.681	22809
838.819	22740
838.956	22394
839.094	22523
839.231	22592
839.369	22664
839.506	22869
839.643	22717
839.781	22523
839.918	22432
840.055	22630
840.193	22485
840.33	22466
840.467	22470
840.604	22489
840.742	22767
840.879	22261
841.016	22497
841.153	22447
841.29	22451
841.427	22497
841.564	22299
841.701	22443
841.838	22295
841.975	22303
842.112	22409
842.249	22382
842.385	22268
842.522	22550
842.659	22352
842.796	22310
842.933	22280
843.069	22303
843.206	22158
843.343	22360
843.479	22181
843.616	22139
843.752	21987
843.889	22040
844.025	22226
844.162	21991
844.298	22082
844.435	21983
844.571	21903
844.708	21968
844.844	22109
844.98	22086
845.117	22166
845.253	21930
845.389	21759
845.525	21915
845.661	21857
845.798	21751
845.934	21785
846.07	21694
846.206	21580
846.342	21755
846.478	21644
846.614	21599
846.75	21481
846.886	21355
847.022	21538
847.158	21492
847.294	21443
847.429	21462
847.565	21389
847.701	21622
847.837	21203
847.972	21112
848.108	21302
848.244	21135
848.379	21036
848.515	20990
848.65	21154
848.786	21074
848.921	21112
849.057	21173
849.192	21135
849.328	21077
849.463	20925
849.598	20986
849.734	20929
849.869	20883
850.004	20876
850.14	20849
850.275	20902
850.41	20640
850.545	20815
850.68	20864
850.815	20807
850.95	20872
851.085	20990
851.22	21005
851.355	20918
851.49	20807
851.625	20731
851.76	20906
851.895	20727
852.03	20758
852.165	20872
852.299	20861
852.434	20918
852.569	20857
852.703	20876
852.838	20868
852.973	20872
853.107	20933
853.242	20670
853.376	20743
853.511	20560
853.645	20667
853.78	20830
853.914	20651
854.048	20590
854.183	20560
854.317	20587
854.451	20845
854.585	20556
854.72	20613
854.854	20758
854.988	20522
855.122	20579
855.256	20552
855.39	20674
855.524	20765
855.658	20602
855.792	20678
855.926	20670
856.06	20632
856.194	20689
856.327	20636
856.461	20518
856.595	20503
856.729	20541
856.862	20769
856.996	20735
857.13	20640
857.263	20727
857.397	20682
857.53	20587
857.664	20701
857.797	20602
857.931	20754
858.064	20613
858.197	20739
858.331	20674
858.464	20659
858.597	20708
858.731	20575
858.864	20648
858.997	20625
859.13	20602
859.263	20682
859.396	20773
859.529	20511
859.662	20617
859.795	20659
859.928	20659
860.061	20689
860.194	20788
860.327	20667
860.46	20651
860.592	20632
860.725	20777
860.858	20701
860.99	20777
861.123	20621
861.256	20625
861.388	20682
861.521	21195
861.653	20343
861.786	20450
861.918	20442
862.05	20541
862.183	20552
862.315	20636
862.447	20571
862.58	20499
862.712	20381
862.844	20454
862.976	20389
863.108	20328
863.24	20861
863.372	20298
863.504	20442
863.636	20412
863.768	20347
863.9	20385
864.032	20248
864.164	20191
864.296	20301
864.428	20526
864.559	20457
864.691	20400
864.823	20362
864.954	20438
865.086	20206
865.217	20221
865.349	20218
865.48	20191
865.612	20256
865.743	20412
865.875	20191
866.006	20275
866.137	20309
866.269	20161
866.4	20309
866.531	20244
866.662	20168
866.793	20168
866.924	20278
867.055	20183
867.186	20187
867.317	20240
867.448	20202
867.579	20130
867.71	20180
867.841	20092
867.972	20252
868.103	20107
868.233	20248
868.364	20122
868.495	20275
868.625	20389
868.756	20419
868.886	20408
869.017	20427
869.147	20552
869.278	20579
869.408	20465
869.539	20507
869.669	20480
869.799	20571
869.929	20648
870.06	20545
870.19	20777
870.32	20769
870.45	20811
870.58	20834
870.71	20902
870.84	20899
870.97	20678
871.1	20765
871.23	21051
871.36	20982
871.489	20982
871.619	20910
871.749	20994
871.879	21150
872.008	21093
872.138	20971
872.267	20929
872.397	20986
872.526	20910
872.656	20845
872.785	20952
872.915	21119
873.044	21100
873.173	21077
873.303	21062
873.432	21203
873.561	21218
873.69	21074
873.819	21055
873.948	21070
874.077	21131
874.206	21051
874.335	21017
874.464	21184
874.593	21241
874.722	21237
874.851	21363
874.979	21389
875.108	21344
875.237	21241
875.365	21131
875.494	21252
875.623	21393
875.751	21123
875.88	21412
876.008	21515
876.136	21561
876.265	21743
876.393	21850
876.521	21762
876.65	21842
876.778	21713
876.906	21652
877.034	21545
877.162	21717
877.29	21572
877.418	21682
877.546	21690
877.674	21747
877.802	21690
877.93	21568
878.058	21622
878.185	21663
878.313	21625
878.441	21644
878.568	21370
878.696	21652
878.824	21603
878.951	21644
879.079	21819
879.206	21816
879.333	21899
879.461	21656
879.588	21781
879.715	21865
879.842	21857
879.97	21793
880.097	21458
880.224	21420
880.351	21583
880.478	21587
880.605	21439
880.732	21389
880.859	21618
880.986	21439
881.112	21428
881.239	21302
881.366	21260
881.493	21138
881.619	21081
881.746	21058
881.872	21116
881.999	20971
882.125	21013
882.252	21074
882.378	20994
882.505	21131
882.631	20929
882.757	20792
882.883	20743
883.01	20731
883.136	20796
883.262	20701
883.388	20720
883.514	20705
883.64	20941
883.766	20762
883.892	20518
884.018	20621
884.143	20667
884.269	20830
884.395	20533
884.52	20408
884.646	20442
884.772	20415
884.897	20351
885.023	20454
885.148	20446
885.274	20579
885.399	20552
885.524	20499
885.65	20465
885.775	20408
885.9	20396
886.025	20545
886.15	20427
886.275	20370
886.4	20419
886.525	20381
886.65	20336
886.775	20343
886.9	20476
887.025	20674
887.149	20328
887.274	20168
887.399	20187
887.523	20218
887.648	20142
887.773	20119
887.897	20210
888.021	20126
888.146	20111
888.27	20214
888.395	20275
888.519	20240
888.643	20278
888.767	20263
888.891	20092
889.015	20005
889.139	20043
889.263	20100
889.387	20031
889.511	20164
889.635	20187
889.759	20024
889.883	19925
890.006	20008
890.13	20054
890.254	19947
890.377	19917
890.501	19803
890.624	19715
890.748	19852
890.871	19696
890.995	19632
891.118	19559
891.241	19578
891.364	19643
891.488	19685
891.611	19582
891.734	19719
891.857	19670
891.98	19533
892.103	19632
892.226	19609
892.349	19647
892.471	19384
892.594	19491
892.717	19438
892.839	19525
892.962	19487
893.085	19533
893.207	19476
893.33	19411
893.452	19460
893.575	19552
893.697	19468
893.819	19632
893.941	19670
894.064	19605
894.186	19483
894.308	19422
894.43	19624
894.552	19616
894.674	19559
894.796	19358
894.918	19521
895.04	19472
895.161	19582
895.283	19586
895.405	19354
895.526	19525
895.648	19419
895.769	19464
895.891	19628
896.012	19533
896.134	19590
896.255	19586
896.376	19457
896.498	19480
896.619	19537
896.74	19594
896.861	19616
896.982	19894
897.103	19921
897.224	19791
897.345	19727
897.466	19666
897.587	19643
897.708	19765
897.828	19738
897.949	19712
898.07	19540
898.19	19693
898.311	19841
898.431	19540
898.552	19696
898.672	19791
898.792	19875
898.913	19791
899.033	19586
899.153	19502
899.273	19434
899.393	19499
899.513	19544
899.633	19525
899.753	19495
899.873	19586
899.993	19510
900.113	19518
900.232	19449
900.352	19396
900.472	19377
900.591	19217
900.711	19164
900.83	19266
900.95	19327
901.069	19430
901.189	19285
901.308	19000
901.427	18825
901.546	18859
901.665	18878
901.784	18981
901.904	18768
902.023	18730
902.141	18486
902.26	18528
902.379	18475
902.498	18311
902.617	18445
902.735	18304
902.854	18429
902.973	18289
903.091	18072
903.21	18045
903.328	18144
903.446	18034
903.565	17904
903.683	17958
903.801	17805
903.919	17851
904.038	17843
904.156	17615
904.274	17707
904.392	17661
904.51	17672
904.627	17589
904.745	17710
904.863	17748
904.981	17402
905.098	17379
905.216	17356
905.334	17360
905.451	17471
905.569	17395
905.686	17315
905.803	17395
905.921	17223
906.038	17231
906.155	17155
906.272	17079
906.389	17083
906.506	16915
906.623	16984
906.74	16873
906.857	16824
906.974	16790
907.091	16850
907.208	17041
907.324	16927
907.441	16782
907.557	16702
907.674	16615
907.79	16565
907.907	16641
908.023	16588
908.139	16577
908.256	16512
908.372	16436
908.488	16550
908.604	16257
908.72	16428
908.836	16337
908.952	16257
909.068	16341
909.184	16413
909.3	16253
909.415	16226
909.531	16257
909.647	16067
909.762	16150
909.878	16112
909.993	16150
910.108	16124
910.224	15968
910.339	15945
910.454	15949
910.57	15827
910.685	15808
910.8	16105
910.915	15994
911.03	15819
911.145	15690
911.259	15705
911.374	15618
911.489	15606
911.604	15477
911.718	15428
911.833	15412
911.947	15272
912.062	15241
912.176	15401
912.291	15389
912.405	15420
912.519	15595
912.633	15500
912.748	15401
912.862	15310
912.976	15279
913.09	15203
913.204	15150
913.318	15203
913.431	15317
913.545	15279
913.659	15313
913.772	15119
913.886	15142
914	15001
914.113	15051
914.226	15081
914.34	15146
914.453	14952
914.566	15074
914.68	14937
914.793	14857
914.906	14682
915.019	14655
915.132	14560
915.245	14682
915.358	14651
915.47	14613
915.583	14648
915.696	14716
915.809	14807
915.921	14788
916.034	14571
916.146	14522
916.259	14522
916.371	14587
916.483	14602
916.595	14454
916.708	14514
916.82	14514
916.932	14377
917.044	14461
917.156	14400
917.268	14301
917.38	14377
917.491	14275
917.603	14252
917.715	14412
917.826	14351
917.938	14290
918.049	14259
918.161	14298
918.272	14343
918.384	14457
918.495	14240
918.606	14134
918.717	14024
918.828	14153
918.939	14191
919.05	13978
919.161	14031
919.272	13871
919.383	13970
919.494	14069
919.604	14309
919.715	14088
919.826	14005
919.936	14073
920.047	14126
920.157	13986
920.267	14248
920.378	14024
920.488	14024
920.598	14221
920.708	14271
920.818	14157
920.928	14138
921.038	14343
921.148	14263
921.258	13932
921.368	13879
921.477	13879
921.587	13734
921.697	13715
921.806	13772
921.916	13723
922.025	13537
922.134	13407
922.244	13438
922.353	13529
922.462	13369
922.571	13240
922.68	13171
922.789	13076
922.898	13065
923.007	13118
923.116	13084
923.224	13057
923.333	13042
923.442	13008
923.55	12977
923.659	12989
923.767	13046
923.876	12882
923.984	12886
924.092	12840
924.201	12909
924.309	12791
924.417	12852
924.525	12825
924.633	12749
924.741	13643
924.849	12604
924.956	12707
925.064	12578
925.172	12536
925.279	12494
925.387	12544
925.494	12555
925.602	12604
925.709	12669
925.816	12486
925.924	12536
926.031	12612
926.138	12445
926.245	12490
926.352	12509
926.459	12536
926.566	12574
926.673	12464
926.779	12334
926.886	12308
926.993	12140
927.099	12083
927.206	12003
927.312	12095
927.419	12159
927.525	12091
927.631	12148
927.737	12003
927.843	12041
927.95	11832
928.056	11920
928.162	12030
928.267	12057
928.373	12551
928.479	11931
928.585	11748
928.69	11870
928.796	11916
928.901	11790
929.007	11672
929.112	11767
929.218	11878
929.323	11695
929.428	11615
929.533	11775
929.638	11585
929.743	11691
929.848	11649
929.953	11684
930.058	11543
930.163	11395
930.267	11433
930.372	11509
930.477	11311
930.581	11589
930.685	11433
930.79	11296
930.894	11212
930.998	11250
931.103	11387
931.207	11052
931.311	10938
931.415	10866
931.519	10675
931.623	10721
