Data from test_V78500241_1564.txt Node
Date: Fri Mar 25 15:20:44 CST 2022
User: usil
Spectrometer: V785-0024
Trigger mode: 0
Integration Time (sec): 4.000000E-1
Scans to average: 1
Nonlinearity correction enabled: false
Boxcar width: 0
Storing dark spectrum: false
XAxis mode: Wavelengths
Number of Pixels in Spectrum: 1024
>>>>>Begin Spectral Data<<<<<
801.071	27914
801.214	27751
801.356	27622
801.499	27447
801.641	27382
801.783	27408
801.926	27576
802.068	27485
802.211	27374
802.353	27199
802.496	27249
802.638	27081
802.78	27024
802.923	27017
803.065	27104
803.208	26979
803.35	27157
803.492	27256
803.635	27313
803.777	27146
803.919	27237
804.061	27534
804.204	27180
804.346	27154
804.488	27260
804.63	27252
804.773	27188
804.915	27329
805.057	27382
805.199	27275
805.341	27447
805.483	27458
805.626	27355
805.768	27192
805.91	27310
806.052	27287
806.194	27325
806.336	27359
806.478	27386
806.62	27424
806.762	27587
806.904	27557
807.046	27892
807.188	27854
807.33	27876
807.472	27842
807.614	27690
807.756	27785
807.898	27686
808.04	27599
808.182	27637
808.324	27694
808.465	27701
808.607	27956
808.749	28044
808.891	28185
809.033	28147
809.174	28082
809.316	28010
809.458	28029
809.6	28059
809.741	28105
809.883	28116
810.025	28211
810.166	28246
810.308	28379
810.45	28249
810.591	28109
810.733	28021
810.875	28078
811.016	27918
811.158	28051
811.299	28055
811.441	28207
811.582	28215
811.724	28101
811.865	28013
812.007	28044
812.148	28036
812.29	28078
812.431	28234
812.573	28382
812.714	28504
812.855	28596
812.997	28603
813.138	28774
813.279	28767
813.421	28447
813.562	28478
813.703	28424
813.845	28280
813.986	27968
814.127	27842
814.268	27686
814.41	27663
814.551	27686
814.692	27743
814.833	27679
814.974	27682
815.115	27682
815.256	27561
815.397	27534
815.539	27625
815.68	27656
815.821	27416
815.962	27500
816.103	27576
816.244	27511
816.385	27291
816.526	27184
816.666	27287
816.807	27028
816.948	27055
817.089	27146
817.23	26921
817.371	26979
817.512	26933
817.653	27100
817.793	26948
817.934	27024
818.075	26994
818.216	26933
818.356	26967
818.497	26918
818.638	26644
818.778	26834
818.919	26724
819.06	26785
819.2	26967
819.341	26960
819.481	27116
819.622	27119
819.762	27272
819.903	27260
820.043	27195
820.184	27226
820.324	27039
820.465	27184
820.605	27055
820.746	27180
820.886	26899
821.026	27013
821.167	27089
821.307	27142
821.447	26918
821.588	26948
821.728	26800
821.868	26537
822.008	26480
822.149	26476
822.289	26389
822.429	26176
822.569	26084
822.709	26161
822.849	26081
822.99	26065
823.13	25887
823.27	25849
823.41	25765
823.55	25772
823.69	25879
823.83	25818
823.97	25803
824.11	25544
824.25	25556
824.389	25719
824.529	25685
824.669	25632
824.809	25628
824.949	25738
825.089	25734
825.228	25533
825.368	25548
825.508	25624
825.648	25434
825.787	25597
825.927	25563
826.067	25350
826.206	25403
826.346	25365
826.485	25499
826.625	25491
826.765	25616
826.904	25495
827.044	25217
827.183	25259
827.323	25095
827.462	25263
827.601	25259
827.741	25164
827.88	25225
828.02	25095
828.159	25217
828.298	25015
828.437	25301
828.577	25156
828.716	25221
828.855	25023
828.994	24932
829.134	24924
829.273	24871
829.412	24905
829.551	24878
829.69	24795
829.829	24985
829.968	25000
830.107	24958
830.246	24943
830.385	24852
830.524	24897
830.663	24684
830.802	24646
830.941	24525
831.08	24513
831.219	24620
831.357	24574
831.496	24730
831.635	24525
831.774	24426
831.913	24376
832.051	24205
832.19	24296
832.329	24327
832.467	24213
832.606	24136
832.744	24178
832.883	24266
833.022	24155
833.16	24068
833.299	24186
833.437	24232
833.576	24205
833.714	24228
833.852	24315
833.991	24273
834.129	24186
834.267	24300
834.406	24232
834.544	24281
834.682	24228
834.821	24186
834.959	24308
835.097	24117
835.235	24205
835.373	24213
835.511	24243
835.65	24015
835.788	24091
835.926	23973
836.064	23798
836.202	23901
836.34	23980
836.478	24262
836.615	24076
836.753	24030
836.891	24205
837.029	24117
837.167	24041
837.305	24038
837.443	24030
837.58	23992
837.718	24015
837.856	23999
837.993	23748
838.131	23973
838.269	23863
838.406	23878
838.544	23779
838.681	23467
838.819	23493
838.956	23337
839.094	23303
839.231	23395
839.369	23482
839.506	23824
839.643	23592
839.781	23379
839.918	23269
840.055	23383
840.193	23444
840.33	23235
840.467	23162
840.604	23341
840.742	23619
840.879	23147
841.016	23098
841.153	23109
841.29	23376
841.427	23265
841.564	23318
841.701	23239
841.838	23140
841.975	23242
842.112	22987
842.249	23060
842.385	23090
842.522	23246
842.659	23159
842.796	22904
842.933	23056
843.069	22957
843.206	23113
843.343	23010
843.479	23128
843.616	23098
843.752	22793
843.889	22843
844.025	22961
844.162	22774
844.298	22938
844.435	22812
844.571	22866
844.708	22980
844.844	23006
844.98	22995
845.117	22908
845.253	22805
845.389	22698
845.525	22797
845.661	22736
845.798	22485
845.934	22626
846.07	22516
846.206	22565
846.342	22691
846.478	22447
846.614	22303
846.75	22329
846.886	22348
847.022	22299
847.158	22500
847.294	22215
847.429	22390
847.565	22246
847.701	22542
847.837	22013
847.972	22124
848.108	22143
848.244	22082
848.379	21888
848.515	21793
848.65	21903
848.786	21915
848.921	21854
849.057	22021
849.192	21827
849.328	21930
849.463	21842
849.598	21873
849.734	21808
849.869	21770
850.004	21732
850.14	21701
850.275	21625
850.41	21530
850.545	21644
850.68	21587
850.815	21622
850.95	21595
851.085	21876
851.22	21774
851.355	21644
851.49	21690
851.625	21682
851.76	21679
851.895	21599
852.03	21515
852.165	21675
852.299	21667
852.434	21804
852.569	21587
852.703	21660
852.838	21709
852.973	21732
853.107	21778
853.242	21561
853.376	21500
853.511	21325
853.645	21408
853.78	21488
853.914	21485
854.048	21481
854.183	21534
854.317	21591
854.451	21492
854.585	21481
854.72	21431
854.854	21454
854.988	21355
855.122	21500
855.256	21332
855.39	21450
855.524	21576
855.658	21473
855.792	21420
855.926	21416
856.06	21428
856.194	21428
856.327	21382
856.461	21481
856.595	21306
856.729	21504
856.862	21557
856.996	21477
857.13	21523
857.263	21583
857.397	21724
857.53	21443
857.664	21428
857.797	21553
857.931	21591
858.064	21428
858.197	21637
858.331	21450
858.464	21428
858.597	21447
858.731	21416
858.864	21355
858.997	21466
859.13	21583
859.263	21538
859.396	21603
859.529	21351
859.662	21416
859.795	21492
859.928	21378
860.061	21545
860.194	21641
860.327	21435
860.46	21507
860.592	21603
860.725	21629
860.858	21606
860.99	21564
861.123	21488
861.256	21416
861.388	21424
861.521	22242
861.653	21313
861.786	21321
861.918	21351
862.05	21306
862.183	21351
862.315	21393
862.447	21466
862.58	21412
862.712	21188
862.844	21180
862.976	21298
863.108	21252
863.24	21458
863.372	21062
863.504	21074
863.636	21119
863.768	21146
863.9	21218
864.032	21146
864.164	21089
864.296	21089
864.428	21275
864.559	21386
864.691	21256
864.823	21127
864.954	21287
865.086	21195
865.217	21119
865.349	21119
865.48	21131
865.612	21138
865.743	21291
865.875	21100
866.006	21043
866.137	21093
866.269	21039
866.4	21066
866.531	20929
866.662	20895
866.793	20941
866.924	21081
867.055	21081
867.186	21085
867.317	20956
867.448	20853
867.579	20838
867.71	20929
867.841	20811
867.972	21009
868.103	20887
868.233	20952
868.364	20990
868.495	21176
868.625	21161
868.756	21329
868.886	21203
869.017	21195
869.147	21302
869.278	21355
869.408	21351
869.539	21116
869.669	21256
869.799	21214
869.929	21268
870.06	21287
870.19	21473
870.32	21439
870.45	21595
870.58	21606
870.71	21667
870.84	21827
870.97	21507
871.1	21701
871.23	21808
871.36	21724
871.489	21690
871.619	21850
871.749	21762
871.879	21865
872.008	21991
872.138	21827
872.267	21831
872.397	21629
872.526	21530
872.656	21679
872.785	21637
872.915	21804
873.044	21937
873.173	21816
873.303	21968
873.432	21934
873.561	21953
873.69	21808
873.819	21812
873.948	21960
874.077	21755
874.206	21705
874.335	21842
874.464	21934
874.593	21964
874.722	21956
874.851	21953
874.979	22059
875.108	22109
875.237	22017
875.365	22029
875.494	21945
875.623	22246
875.751	22048
875.88	22082
876.008	22166
876.136	22337
876.265	22367
876.393	22554
876.521	22478
876.65	22557
876.778	22504
876.906	22512
877.034	22398
877.162	22451
877.29	22352
877.418	22535
877.546	22474
877.674	22394
877.802	22360
877.93	22352
878.058	22402
878.185	22246
878.313	22310
878.441	22405
878.568	22276
878.696	22413
878.824	22371
878.951	22459
879.079	22557
879.206	22725
879.333	22618
879.461	22489
879.588	22478
879.715	22656
879.842	22664
879.97	22394
880.097	22147
880.224	22303
880.351	22291
880.478	22287
880.605	22257
880.732	22257
880.859	22474
880.986	22131
881.112	22322
881.239	22082
881.366	21964
881.493	21850
881.619	21831
881.746	21823
881.872	21835
881.999	21743
882.125	21705
882.252	21873
882.378	21694
882.505	21865
882.631	21656
882.757	21572
882.883	21610
883.01	21545
883.136	21447
883.262	21473
883.388	21325
883.514	21492
883.64	21454
883.766	21424
883.892	21180
884.018	21268
884.143	21397
884.269	21450
884.395	21249
884.52	21066
884.646	21230
884.772	21108
884.897	21051
885.023	21127
885.148	21180
885.274	21344
885.399	21226
885.524	21112
885.65	21192
885.775	21249
885.9	21062
886.025	21279
886.15	21237
886.275	21089
886.4	21001
886.525	21096
886.65	21005
886.775	21020
886.9	21252
887.025	21428
887.149	21036
887.274	20990
887.399	21001
887.523	20861
887.648	20785
887.773	20826
887.897	20842
888.021	21096
888.146	20864
888.27	21001
888.395	20982
888.519	20994
888.643	20971
888.767	20895
888.891	20914
889.015	20800
889.139	20712
889.263	20693
889.387	20785
889.511	20781
889.635	20796
889.759	20594
889.883	20682
890.006	20781
890.13	20849
890.254	20537
890.377	20739
890.501	20396
890.624	20412
890.748	20480
890.871	20366
890.995	20275
891.118	20206
891.241	20286
891.364	20313
891.488	20408
891.611	20294
891.734	20412
891.857	20343
891.98	20324
892.103	20358
892.226	20290
892.349	20199
892.471	20096
892.594	20187
892.717	20210
892.839	20168
892.962	20157
893.085	20256
893.207	20229
893.33	19917
893.452	20168
893.575	20176
893.697	20153
893.819	20309
893.941	20450
894.064	20305
894.186	20103
894.308	19959
894.43	20271
894.552	20290
894.674	20229
894.796	20077
894.918	20050
895.04	20157
895.161	20161
895.283	20138
895.405	20126
895.526	20195
895.648	20259
895.769	20195
895.891	20149
896.012	20301
896.134	20206
896.255	20111
896.376	20161
896.498	20153
896.619	20183
896.74	20039
896.861	20259
896.982	20499
897.103	20667
897.224	20476
897.345	20514
897.466	20301
897.587	20408
897.708	20434
897.828	20450
897.949	20400
898.07	20191
898.19	20275
898.311	20457
898.431	20305
898.552	20454
898.672	20446
898.792	20412
898.913	20427
899.033	20309
899.153	20199
899.273	20134
899.393	20054
899.513	20130
899.633	20187
899.753	20176
899.873	20054
899.993	20286
900.113	19963
900.232	20077
900.352	20043
900.472	20039
900.591	19837
900.711	19997
900.83	19860
900.95	19913
901.069	20035
901.189	19772
901.308	19590
901.427	19415
901.546	19514
901.665	19502
901.784	19521
901.904	19358
902.023	19304
902.141	19099
902.26	19000
902.379	19095
902.498	19118
902.617	19027
902.735	19042
902.854	19023
902.973	18833
903.091	18764
903.21	18696
903.328	18620
903.446	18597
903.565	18597
903.683	18448
903.801	18391
903.919	18494
904.038	18418
904.156	18114
904.274	18300
904.392	18300
904.51	18167
904.627	18243
904.745	18254
904.863	18311
904.981	18083
905.098	17889
905.216	17901
905.334	17969
905.451	17874
905.569	17843
905.686	17950
905.803	17973
905.921	17817
906.038	17813
906.155	17779
906.272	17577
906.389	17600
906.506	17383
906.623	17395
906.74	17528
906.857	17337
906.974	17482
907.091	17532
907.208	17573
907.324	17543
907.441	17353
907.557	17220
907.674	17151
907.79	17079
907.907	17159
908.023	17178
908.139	17197
908.256	17155
908.372	17056
908.488	17010
908.604	16881
908.72	16873
908.836	16908
908.952	16869
909.068	16995
909.184	17067
909.3	16843
909.415	16930
909.531	16965
909.647	16660
909.762	16637
909.878	16611
909.993	16626
910.108	16455
910.224	16493
910.339	16558
910.454	16542
910.57	16440
910.685	16337
910.8	16599
910.915	16561
911.03	16421
911.145	16268
911.259	16211
911.374	16276
911.489	16078
911.604	16021
911.718	15953
911.833	15975
911.947	15892
912.062	15682
912.176	15888
912.291	15797
912.405	15915
912.519	16082
912.633	16120
912.748	15926
912.862	15998
912.976	15850
913.09	15747
913.204	15652
913.318	15743
913.431	15789
913.545	15873
913.659	15800
913.772	15675
913.886	15545
914	15580
914.113	15720
914.226	15679
914.34	15606
914.453	15469
914.566	15572
914.68	15424
914.793	15317
914.906	15233
915.019	15123
915.132	15058
915.245	15142
915.358	15180
915.47	15116
915.583	15169
915.696	15169
915.809	15370
915.921	15260
916.034	15024
916.146	14986
916.259	15055
916.371	15074
916.483	15131
916.595	15089
916.708	14937
916.82	14994
916.932	14998
917.044	14849
917.156	14906
917.268	14807
917.38	14823
917.491	14823
917.603	14705
917.715	14842
917.826	14804
917.938	14800
918.049	14530
918.161	14754
918.272	14777
918.384	14765
918.495	14731
918.606	14632
918.717	14492
918.828	14514
918.939	14629
919.05	14522
919.161	14575
919.272	14301
919.383	14377
919.494	14629
919.604	14773
919.715	14522
919.826	14431
919.936	14438
920.047	14537
920.157	14545
920.267	14610
920.378	14423
920.488	14461
920.598	14667
920.708	14720
920.818	14674
920.928	14568
921.038	14773
921.148	14686
921.258	14454
921.368	14381
921.477	14332
921.587	14248
921.697	14100
921.806	14305
921.916	14092
922.025	14020
922.134	13955
922.244	13803
922.353	13906
922.462	13784
922.571	13677
922.68	13636
922.789	13529
922.898	13537
923.007	13502
923.116	13651
923.224	13533
923.333	13552
923.442	13415
923.55	13419
923.659	13335
923.767	13373
923.876	13335
923.984	13377
924.092	13240
924.201	13350
924.309	13225
924.417	13285
924.525	13103
924.633	13221
924.741	13963
924.849	12981
924.956	13160
925.064	13012
925.172	12901
925.279	12958
925.387	12951
925.494	12993
925.602	13080
925.709	13000
925.816	12833
925.924	12973
926.031	13031
926.138	12920
926.245	13042
926.352	12840
926.459	12875
926.566	13015
926.673	12859
926.779	12677
926.886	12684
926.993	12509
927.099	12528
927.206	12528
927.312	12490
927.419	12536
927.525	12414
927.631	12467
927.737	12429
927.843	12445
927.95	12251
928.056	12258
928.162	12376
928.267	12426
928.373	13012
928.479	12456
928.585	12201
928.69	12296
928.796	12319
928.901	12182
929.007	12057
929.112	12254
929.218	12167
929.323	12038
929.428	12038
929.533	12152
929.638	11958
929.743	12106
929.848	12068
929.953	12053
930.058	11874
930.163	11707
930.267	11821
930.372	11904
930.477	11638
930.581	11969
930.685	11813
930.79	11611
930.894	11611
930.998	11619
931.103	11748
931.207	11395
931.311	11326
931.415	11273
931.519	11025
931.623	11022
