Data from test_V78500241_1702.txt Node
Date: Fri Mar 25 15:21:42 CST 2022
User: usil
Spectrometer: V785-0024
Trigger mode: 0
Integration Time (sec): 4.000000E-1
Scans to average: 1
Nonlinearity correction enabled: false
Boxcar width: 0
Storing dark spectrum: false
XAxis mode: Wavelengths
Number of Pixels in Spectrum: 1024
>>>>>Begin Spectral Data<<<<<
801.071	27542
801.214	27526
801.356	27325
801.499	27313
801.641	27100
801.783	27081
801.926	27135
802.068	27245
802.211	27051
802.353	27017
802.496	26940
802.638	26868
802.78	26743
802.923	26804
803.065	26785
803.208	26670
803.35	26933
803.492	26899
803.635	26971
803.777	26826
803.919	26853
804.061	27355
804.204	26956
804.346	26998
804.488	26918
804.63	26971
804.773	26940
804.915	26952
805.057	27207
805.199	27005
805.341	26986
805.483	27154
805.626	27173
805.768	27001
805.91	27169
806.052	27169
806.194	27089
806.336	27272
806.478	27119
806.62	27138
806.762	27226
806.904	27355
807.046	27698
807.188	27424
807.33	27545
807.472	27549
807.614	27526
807.756	27561
807.898	27389
808.04	27435
808.182	27332
808.324	27397
808.465	27458
808.607	27682
808.749	27641
808.891	27865
809.033	27838
809.174	27743
809.316	27724
809.458	27755
809.6	27717
809.741	27785
809.883	27857
810.025	28097
810.166	28040
810.308	28029
810.45	27972
810.591	28013
810.733	27781
810.875	27652
811.016	27747
811.158	27427
811.299	27865
811.441	27876
811.582	27899
811.724	27861
811.865	27686
812.007	27774
812.148	27713
812.29	27694
812.431	27823
812.573	28139
812.714	28196
812.855	28261
812.997	28280
813.138	28466
813.279	28443
813.421	28135
813.562	28166
813.703	28048
813.845	27998
813.986	27694
814.127	27538
814.268	27469
814.41	27469
814.551	27447
814.692	27408
814.833	27226
814.974	27348
815.115	27408
815.256	27264
815.397	27427
815.539	27332
815.68	27214
815.821	27047
815.962	27233
816.103	27001
816.244	27173
816.385	26967
816.526	26933
816.666	26796
816.807	26712
816.948	26746
817.089	26937
817.23	26682
817.371	26701
817.512	26629
817.653	26609
817.793	26541
817.934	26644
818.075	26701
818.216	26674
818.356	26617
818.497	26762
818.638	26332
818.778	26362
818.919	26434
819.06	26453
819.2	26621
819.341	26689
819.481	26674
819.622	26834
819.762	26990
819.903	26925
820.043	26849
820.184	26838
820.324	26773
820.465	26864
820.605	26743
820.746	26746
820.886	26556
821.026	26823
821.167	26667
821.307	26716
821.447	26674
821.588	26598
821.728	26332
821.868	26347
822.008	26324
822.149	26199
822.289	26149
822.429	25849
822.569	25925
822.709	26031
822.849	25632
822.99	25731
823.13	25616
823.27	25571
823.41	25632
823.55	25460
823.69	25537
823.83	25491
823.97	25400
824.11	25194
824.25	25232
824.389	25335
824.529	25403
824.669	25350
824.809	25468
824.949	25415
825.089	25434
825.228	25297
825.368	25137
825.508	25110
825.648	25126
825.787	25221
825.927	25278
826.067	25168
826.206	25278
826.346	25050
826.485	25145
826.625	25107
826.765	25232
826.904	25316
827.044	25034
827.183	24920
827.323	24909
827.462	24954
827.601	24977
827.741	24840
827.88	24825
828.02	24859
828.159	24909
828.298	24935
828.437	24798
828.577	24783
828.716	24962
828.855	24833
828.994	24570
829.134	24665
829.273	24620
829.412	24521
829.551	24532
829.69	24521
829.829	24566
829.968	24559
830.107	24669
830.246	24540
830.385	24536
830.524	24418
830.663	24319
830.802	24338
830.941	24194
831.08	24197
831.219	24361
831.357	24319
831.496	24536
831.635	24182
831.774	24159
831.913	23999
832.051	24015
832.19	24038
832.329	23969
832.467	23912
832.606	23908
832.744	23859
832.883	23866
833.022	23939
833.16	23946
833.299	23996
833.437	23897
833.576	24022
833.714	24038
833.852	23984
833.991	24064
834.129	23923
834.267	23958
834.406	23908
834.544	23954
834.682	23973
834.821	23897
834.959	24117
835.097	23855
835.235	24038
835.373	23950
835.511	23840
835.65	23722
835.788	23771
835.926	23775
836.064	23573
836.202	23604
836.34	23798
836.478	23893
836.615	23802
836.753	23748
836.891	23859
837.029	23847
837.167	23710
837.305	23813
837.443	23665
837.58	23608
837.718	23608
837.856	23672
837.993	23627
838.131	23680
838.269	23497
838.406	23463
838.544	23589
838.681	23231
838.819	23254
838.956	23124
839.094	23185
839.231	23246
839.369	23341
839.506	23562
839.643	23322
839.781	23098
839.918	23064
840.055	23064
840.193	23147
840.33	23033
840.467	23060
840.604	22976
840.742	23341
840.879	22843
841.016	23010
841.153	22930
841.29	23208
841.427	23010
841.564	23010
841.701	23090
841.838	22946
841.975	22980
842.112	22812
842.249	22793
842.385	22748
842.522	23033
842.659	22721
842.796	22858
842.933	22752
843.069	22687
843.206	22725
843.343	22877
843.479	22904
843.616	22790
843.752	22596
843.889	22523
844.025	22649
844.162	22577
844.298	22596
844.435	22634
844.571	22436
844.708	22584
844.844	22831
844.98	22584
845.117	22523
845.253	22424
845.389	22459
845.525	22466
845.661	22436
845.798	22322
845.934	22367
846.07	22253
846.206	22356
846.342	22493
846.478	22299
846.614	22055
846.75	22044
846.886	21918
847.022	22169
847.158	21968
847.294	22082
847.429	22002
847.565	21960
847.701	22188
847.837	21736
847.972	21701
848.108	21774
848.244	21854
848.379	21660
848.515	21549
848.65	21660
848.786	21614
848.921	21580
849.057	21743
849.192	21580
849.328	21587
849.463	21629
849.598	21500
849.734	21515
849.869	21473
850.004	21424
850.14	21466
850.275	21359
850.41	21405
850.545	21378
850.68	21458
850.815	21363
850.95	21302
851.085	21466
851.22	21469
851.355	21321
851.49	21389
851.625	21424
851.76	21367
851.895	21321
852.03	21310
852.165	21268
852.299	21374
852.434	21424
852.569	21458
852.703	21416
852.838	21405
852.973	21473
853.107	21408
853.242	21264
853.376	21199
853.511	21108
853.645	21157
853.78	21374
853.914	21310
854.048	21249
854.183	21188
854.317	21298
854.451	21348
854.585	21264
854.72	21180
854.854	21207
854.988	21161
855.122	21074
855.256	21070
855.39	21176
855.524	21336
855.658	21188
855.792	21195
855.926	21100
856.06	21226
856.194	21260
856.327	21150
856.461	21127
856.595	21287
856.729	21237
856.862	21256
856.996	21294
857.13	21260
857.263	21344
857.397	21393
857.53	21070
857.664	21279
857.797	21389
857.931	21222
858.064	21188
858.197	21287
858.331	21226
858.464	21176
858.597	21127
858.731	21214
858.864	21214
858.997	21123
859.13	21214
859.263	21264
859.396	21291
859.529	21207
859.662	21020
859.795	21074
859.928	21211
860.061	21386
860.194	21477
860.327	21245
860.46	21165
860.592	21279
860.725	21313
860.858	21294
860.99	21214
861.123	21180
861.256	21051
861.388	21279
861.521	21804
861.653	20948
861.786	21020
861.918	21024
862.05	21070
862.183	21214
862.315	21188
862.447	21294
862.58	21123
862.712	21013
862.844	20929
862.976	20933
863.108	21043
863.24	21336
863.372	20754
863.504	20937
863.636	20883
863.768	21036
863.9	20883
864.032	20857
864.164	20975
864.296	20902
864.428	21009
864.559	20914
864.691	21001
864.823	20883
864.954	20838
865.086	20830
865.217	20807
865.349	20708
865.48	20826
865.612	20746
865.743	20902
865.875	20823
866.006	20724
866.137	20887
866.269	20819
866.4	20765
866.531	20773
866.662	20754
866.793	20712
866.924	20830
867.055	20796
867.186	20697
867.317	20826
867.448	20686
867.579	20667
867.71	20712
867.841	20674
867.972	20659
868.103	20819
868.233	20705
868.364	20716
868.495	20857
868.625	20845
868.756	21146
868.886	20941
869.017	21009
869.147	21074
869.278	21104
869.408	20998
869.539	21017
869.669	21039
869.799	21001
869.929	21203
870.06	20952
870.19	21336
870.32	21310
870.45	21321
870.58	21340
870.71	21466
870.84	21435
870.97	21462
871.1	21363
871.23	21557
871.36	21637
871.489	21454
871.619	21424
871.749	21606
871.879	21603
872.008	21812
872.138	21599
872.267	21561
872.397	21412
872.526	21344
872.656	21454
872.785	21397
872.915	21606
873.044	21739
873.173	21679
873.303	21709
873.432	21652
873.561	21755
873.69	21504
873.819	21599
873.948	21675
874.077	21614
874.206	21564
874.335	21576
874.464	21736
874.593	21850
874.722	21739
874.851	21781
874.979	21835
875.108	21743
875.237	21774
875.365	21679
875.494	21804
875.623	21873
875.751	21762
875.88	21922
876.008	21903
876.136	21991
876.265	22265
876.393	22253
876.521	22299
876.65	22230
876.778	22284
876.906	22082
877.034	22147
877.162	22223
877.29	22215
877.418	22242
877.546	22246
877.674	22226
877.802	22200
877.93	22162
878.058	22226
878.185	22063
878.313	22166
878.441	22185
878.568	21911
878.696	22112
878.824	22128
878.951	22196
879.079	22325
879.206	22428
879.333	22360
879.461	22173
879.588	22352
879.715	22360
879.842	22432
879.97	22310
880.097	22044
880.224	21979
880.351	22032
880.478	21979
880.605	22112
880.732	22006
880.859	22181
880.986	21953
881.112	22059
881.239	21800
881.366	21759
881.493	21641
881.619	21542
881.746	21648
881.872	21504
881.999	21523
882.125	21428
882.252	21637
882.378	21485
882.505	21675
882.631	21374
882.757	21233
882.883	21344
883.01	21420
883.136	21211
883.262	21123
883.388	21032
883.514	21226
883.64	21211
883.766	21165
883.892	20975
884.018	21089
884.143	21218
884.269	21222
884.395	20971
884.52	20868
884.646	21024
884.772	20777
884.897	20792
885.023	20994
885.148	21005
885.274	21165
885.399	21032
885.524	20925
885.65	21020
885.775	21001
885.9	20880
886.025	21116
886.15	20971
886.275	20910
886.4	20762
886.525	20937
886.65	20872
886.775	20834
886.9	21017
887.025	21058
887.149	20918
887.274	20769
887.399	20598
887.523	20750
887.648	20636
887.773	20533
887.897	20796
888.021	20762
888.146	20644
888.27	20819
888.395	20769
888.519	20746
888.643	20712
888.767	20727
888.891	20594
889.015	20499
889.139	20457
889.263	20492
889.387	20549
889.511	20735
889.635	20644
889.759	20423
889.883	20419
890.006	20598
890.13	20530
890.254	20427
890.377	20404
890.501	20229
890.624	20027
890.748	20320
890.871	20073
890.995	20027
891.118	19993
891.241	20069
891.364	20031
891.488	20134
891.611	20050
891.734	20088
891.857	20210
891.98	19986
892.103	20119
892.226	19955
892.349	19925
892.471	19814
892.594	19963
892.717	20001
892.839	20024
892.962	19917
893.085	19913
893.207	19860
893.33	19883
893.452	19986
893.575	20084
893.697	19913
893.819	20084
893.941	20214
894.064	20183
894.186	19898
894.308	19928
894.43	20039
894.552	20214
894.674	20134
894.796	19826
894.918	19967
895.04	19967
895.161	20035
895.283	19955
895.405	19940
895.526	20008
895.648	20001
895.769	19997
895.891	19951
896.012	20062
896.134	20027
896.255	19963
896.376	19959
896.498	19951
896.619	19974
896.74	19997
896.861	20027
896.982	20278
897.103	20511
897.224	20267
897.345	20065
897.466	20119
897.587	20187
897.708	20320
897.828	20122
897.949	20145
898.07	19978
898.19	20050
898.311	20267
898.431	20229
898.552	20153
898.672	20286
898.792	20221
898.913	20088
899.033	20054
899.153	19963
899.273	19917
899.393	19959
899.513	19978
899.633	19868
899.753	19978
899.873	19902
899.993	20016
900.113	19898
900.232	19856
900.352	19864
900.472	19780
900.591	19666
900.711	19685
900.83	19719
900.95	19795
901.069	19917
901.189	19677
901.308	19331
901.427	19335
901.546	19274
901.665	19304
901.784	19384
901.904	19213
902.023	19046
902.141	18909
902.26	18844
902.379	18890
902.498	18901
902.617	18856
902.735	18821
902.854	18730
902.973	18791
903.091	18467
903.21	18475
903.328	18467
903.446	18460
903.565	18308
903.683	18292
903.801	18129
903.919	18376
904.038	18159
904.156	18083
904.274	18117
904.392	17965
904.51	18007
904.627	18030
904.745	18041
904.863	17988
904.981	17908
905.098	17729
905.216	17665
905.334	17748
905.451	17710
905.569	17737
905.686	17809
905.803	17638
905.921	17554
906.038	17634
906.155	17478
906.272	17402
906.389	17509
906.506	17242
906.623	17280
906.74	17337
906.857	17147
906.974	17159
907.091	17322
907.208	17356
907.324	17250
907.441	17197
907.557	17025
907.674	17014
907.79	16957
907.907	16976
908.023	16946
908.139	16991
908.256	16934
908.372	16968
908.488	16839
908.604	16774
908.72	16618
908.836	16793
908.952	16782
909.068	16835
909.184	16694
909.3	16698
909.415	16694
909.531	16596
909.647	16455
909.762	16459
909.878	16489
909.993	16398
910.108	16348
910.224	16363
910.339	16413
910.454	16280
910.57	16211
910.685	16226
910.8	16500
910.915	16356
911.03	16150
911.145	16128
911.259	16025
911.374	15941
911.489	15907
911.604	15827
911.718	15766
911.833	15732
911.947	15713
912.062	15523
912.176	15652
912.291	15739
912.405	15701
912.519	15922
912.633	15945
912.748	15797
912.862	15785
912.976	15606
913.09	15504
913.204	15511
913.318	15576
913.431	15625
913.545	15625
913.659	15553
913.772	15504
913.886	15553
914	15405
914.113	15568
914.226	15584
914.34	15378
914.453	15245
914.566	15435
914.68	15291
914.793	15081
914.906	15135
915.019	14990
915.132	14990
915.245	15020
915.358	14963
915.47	15055
915.583	15032
915.696	15001
915.809	15192
915.921	15043
916.034	14887
916.146	14910
916.259	14864
916.371	14952
916.483	14902
916.595	14895
916.708	14765
916.82	14842
916.932	14807
917.044	14864
917.156	14807
917.268	14716
917.38	14598
917.491	14598
917.603	14667
917.715	14625
917.826	14720
917.938	14705
918.049	14530
918.161	14564
918.272	14674
918.384	14701
918.495	14514
918.606	14415
918.717	14332
918.828	14404
918.939	14389
919.05	14278
919.161	14412
919.272	14237
919.383	14199
919.494	14473
919.604	14648
919.715	14385
919.826	14252
919.936	14370
920.047	14404
920.157	14419
920.267	14522
920.378	14271
920.488	14328
920.598	14499
920.708	14610
920.818	14564
920.928	14473
921.038	14625
921.148	14594
921.258	14294
921.368	14256
921.477	14115
921.587	14103
921.697	14050
921.806	14153
921.916	13944
922.025	13803
922.134	13734
922.244	13765
922.353	13814
922.462	13639
922.571	13556
922.68	13422
922.789	13396
922.898	13426
923.007	13289
923.116	13369
923.224	13381
923.333	13365
923.442	13266
923.55	13297
923.659	13213
923.767	13304
923.876	13164
923.984	13247
924.092	13107
924.201	13198
924.309	13171
924.417	13129
924.525	13023
924.633	13080
924.741	13814
924.849	12878
924.956	13050
925.064	12875
925.172	12817
925.279	12833
925.387	12806
925.494	12783
925.602	12981
925.709	12829
925.816	12745
925.924	12749
926.031	12856
926.138	12764
926.245	12802
926.352	12601
926.459	12821
926.566	12806
926.673	12730
926.779	12608
926.886	12486
926.993	12448
927.099	12391
927.206	12353
927.312	12239
927.419	12452
927.525	12452
927.631	12418
927.737	12243
927.843	12247
927.95	12045
928.056	12148
928.162	12232
928.267	12323
928.373	12719
928.479	12281
928.585	12121
928.69	12205
928.796	12152
928.901	12140
929.007	11984
929.112	12095
929.218	11942
929.323	12034
929.428	11939
929.533	12087
929.638	11885
929.743	11969
929.848	11965
929.953	11878
930.058	11855
930.163	11672
930.267	11604
930.372	11775
930.477	11577
930.581	11794
930.685	11657
930.79	11562
930.894	11596
930.998	11558
931.103	11646
931.207	11356
931.311	11204
931.415	11128
931.519	10965
931.623	10942
