Data from test_V78500241_2625.txt Node
Date: Fri Mar 25 15:28:08 CST 2022
User: usil
Spectrometer: V785-0024
Trigger mode: 0
Integration Time (sec): 4.000000E-1
Scans to average: 1
Nonlinearity correction enabled: false
Boxcar width: 0
Storing dark spectrum: false
XAxis mode: Wavelengths
Number of Pixels in Spectrum: 1024
>>>>>Begin Spectral Data<<<<<
801.071	27211
801.214	27184
801.356	26899
801.499	26762
801.641	26785
801.783	26765
801.926	26667
802.068	26754
802.211	26583
802.353	26564
802.496	26511
802.638	26366
802.78	26256
802.923	26180
803.065	26259
803.208	26271
803.35	26358
803.492	26492
803.635	26556
803.777	26427
803.919	26495
804.061	26880
804.204	26609
804.346	26488
804.488	26351
804.63	26499
804.773	26442
804.915	26564
805.057	26537
805.199	26549
805.341	26575
805.483	26579
805.626	26590
805.768	26514
805.91	26663
806.052	26712
806.194	26484
806.336	26724
806.478	26640
806.62	26594
806.762	26678
806.904	26868
807.046	27096
807.188	27180
807.33	27161
807.472	27116
807.614	26967
807.756	27005
807.898	26853
808.04	26899
808.182	26773
808.324	26853
808.465	26979
808.607	26944
808.749	27287
808.891	27408
809.033	27359
809.174	27218
809.316	27161
809.458	27135
809.6	27116
809.741	27268
809.883	27279
810.025	27405
810.166	27549
810.308	27504
810.45	27485
810.591	27382
810.733	27256
810.875	27252
811.016	27157
811.158	27013
811.299	27382
811.441	27393
811.582	27340
811.724	27272
811.865	27165
812.007	27154
812.148	27024
812.29	27192
812.431	27268
812.573	27526
812.714	27477
812.855	27656
812.997	27652
813.138	27846
813.279	27873
813.421	27648
813.562	27618
813.703	27526
813.845	27336
813.986	27077
814.127	26765
814.268	26899
814.41	26895
814.551	26823
814.692	26781
814.833	26811
814.974	26762
815.115	26872
815.256	26648
815.397	26705
815.539	26579
815.68	26674
815.821	26465
815.962	26640
816.103	26674
816.244	26419
816.385	26374
816.526	26457
816.666	26229
816.807	26195
816.948	26115
817.089	26309
817.23	26050
817.371	26092
817.512	26027
817.653	26092
817.793	26096
817.934	26218
818.075	26149
818.216	26058
818.356	25970
818.497	26046
818.638	25879
818.778	25818
818.919	25966
819.06	25955
819.2	25909
819.341	26054
819.481	26115
819.622	26221
819.762	26427
819.903	26244
820.043	26294
820.184	26206
820.324	26202
820.465	26313
820.605	26214
820.746	26065
820.886	26088
821.026	26149
821.167	26153
821.307	26294
821.447	26149
821.588	25913
821.728	25811
821.868	25837
822.008	25776
822.149	25727
822.289	25548
822.429	25327
822.569	25225
822.709	25301
822.849	25042
822.99	25050
823.13	25050
823.27	24966
823.41	24890
823.55	24821
823.69	24848
823.83	24966
823.97	24840
824.11	24627
824.25	24547
824.389	24722
824.529	24726
824.669	24616
824.809	24852
824.949	24753
825.089	24810
825.228	24700
825.368	24448
825.508	24517
825.648	24505
825.787	24612
825.927	24566
826.067	24578
826.206	24589
826.346	24715
826.485	24730
826.625	24509
826.765	24738
826.904	24593
827.044	24342
827.183	24342
827.323	24243
827.462	24327
827.601	24292
827.741	24323
827.88	24327
828.02	24106
828.159	24346
828.298	24391
828.437	24410
828.577	24315
828.716	24452
828.855	24190
828.994	24057
829.134	23969
829.273	24114
829.412	24057
829.551	23988
829.69	24034
829.829	24038
829.968	24041
830.107	24095
830.246	24034
830.385	23980
830.524	23847
830.663	23733
830.802	23737
830.941	23630
831.08	23684
831.219	23718
831.357	23634
831.496	23923
831.635	23680
831.774	23547
831.913	23425
832.051	23311
832.19	23421
832.329	23478
832.467	23265
832.606	23178
832.744	23299
832.883	23391
833.022	23204
833.16	23353
833.299	23292
833.437	23360
833.576	23284
833.714	23269
833.852	23376
833.991	23368
834.129	23353
834.267	23417
834.406	23360
834.544	23433
834.682	23326
834.821	23334
834.959	23524
835.097	23296
835.235	23512
835.373	23368
835.511	23326
835.65	23178
835.788	23242
835.926	23090
836.064	22961
836.202	22984
836.34	23147
836.478	23345
836.615	23185
836.753	23136
836.891	23204
837.029	23197
837.167	23113
837.305	23189
837.443	23102
837.58	22946
837.718	23098
837.856	23128
837.993	23025
838.131	23052
838.269	22915
838.406	22854
838.544	22900
838.681	22653
838.819	22710
838.956	22481
839.094	22538
839.231	22626
839.369	22611
839.506	22892
839.643	22748
839.781	22626
839.918	22504
840.055	22569
840.193	22409
840.33	22402
840.467	22573
840.604	22489
840.742	22824
840.879	22432
841.016	22447
841.153	22322
841.29	22611
841.427	22417
841.564	22542
841.701	22603
841.838	22470
841.975	22287
842.112	22451
842.249	22318
842.385	22306
842.522	22561
842.659	22382
842.796	22147
842.933	22303
843.069	22169
843.206	22207
843.343	22253
843.479	22299
843.616	22234
843.752	22063
843.889	21972
844.025	22150
844.162	22032
844.298	22059
844.435	21899
844.571	21918
844.708	21960
844.844	22131
844.98	22192
845.117	22177
845.253	21941
845.389	21937
845.525	21949
845.661	21922
845.798	21800
845.934	21713
846.07	21679
846.206	21694
846.342	21819
846.478	21625
846.614	21485
846.75	21431
846.886	21378
847.022	21523
847.158	21443
847.294	21485
847.429	21519
847.565	21389
847.701	21736
847.837	21131
847.972	21096
848.108	21458
848.244	21382
848.379	21001
848.515	21043
848.65	21013
848.786	21180
848.921	20944
849.057	21173
849.192	21180
849.328	21047
849.463	21009
849.598	21024
849.734	20921
849.869	20975
850.004	20883
850.14	20944
850.275	20960
850.41	20815
850.545	20758
850.68	20796
850.815	20887
850.95	20876
851.085	20975
851.22	20929
851.355	20876
851.49	20883
851.625	20670
851.76	20686
851.895	20796
852.03	20807
852.165	20773
852.299	20792
852.434	20861
852.569	20792
852.703	20864
852.838	20929
852.973	20982
853.107	20906
853.242	20785
853.376	20621
853.511	20617
853.645	20613
853.78	20765
853.914	20743
854.048	20511
854.183	20670
854.317	20697
854.451	20792
854.585	20720
854.72	20560
854.854	20636
854.988	20720
855.122	20632
855.256	20488
855.39	20564
855.524	20693
855.658	20811
855.792	20708
855.926	20655
856.06	20811
856.194	20769
856.327	20670
856.461	20533
856.595	20693
856.729	20640
856.862	20785
856.996	20712
857.13	20686
857.263	20678
857.397	20804
857.53	20632
857.664	20720
857.797	20705
857.931	20644
858.064	20670
858.197	20758
858.331	20678
858.464	20636
858.597	20590
858.731	20598
858.864	20579
858.997	20629
859.13	20663
859.263	20617
859.396	20682
859.529	20480
859.662	20583
859.795	20537
859.928	20712
860.061	20800
860.194	20910
860.327	20670
860.46	20701
860.592	20785
860.725	20739
860.858	20701
860.99	20621
861.123	20564
861.256	20564
861.388	20587
861.521	21260
861.653	20590
861.786	20381
861.918	20568
862.05	20461
862.183	20602
862.315	20533
862.447	20632
862.58	20640
862.712	20393
862.844	20351
862.976	20507
863.108	20457
863.24	20918
863.372	20305
863.504	20412
863.636	20358
863.768	20347
863.9	20454
864.032	20267
864.164	20454
864.296	20301
864.428	20530
864.559	20389
864.691	20522
864.823	20400
864.954	20313
865.086	20355
865.217	20256
865.349	20210
865.48	20229
865.612	20271
865.743	20301
865.875	20423
866.006	20301
866.137	20282
866.269	20309
866.4	20336
866.531	20256
866.662	20271
866.793	20309
866.924	20164
867.055	20229
867.186	20214
867.317	20237
867.448	20134
867.579	20218
867.71	20092
867.841	20191
867.972	20271
868.103	20252
868.233	20263
868.364	20187
868.495	20309
868.625	20389
868.756	20499
868.886	20351
869.017	20465
869.147	20560
869.278	20499
869.408	20503
869.539	20427
869.669	20476
869.799	20636
869.929	20541
870.06	20503
870.19	20792
870.32	20754
870.45	20769
870.58	20914
870.71	20994
870.84	20952
870.97	20906
871.1	20765
871.23	20971
871.36	21154
871.489	20952
871.619	21009
871.749	21089
871.879	21123
872.008	21230
872.138	21032
872.267	21062
872.397	20937
872.526	20815
872.656	20899
872.785	20963
872.915	21123
873.044	21096
873.173	20979
873.303	21146
873.432	21195
873.561	21203
873.69	21096
873.819	21096
873.948	21268
874.077	21165
874.206	21020
874.335	21188
874.464	21211
874.593	21424
874.722	21283
874.851	21298
874.979	21469
875.108	21393
875.237	21226
875.365	21184
875.494	21256
875.623	21462
875.751	21241
875.88	21351
876.008	21485
876.136	21481
876.265	21701
876.393	21819
876.521	21728
876.65	21812
876.778	21603
876.906	21713
877.034	21728
877.162	21652
877.29	21606
877.418	21698
877.546	21736
877.674	21606
877.802	21648
877.93	21648
878.058	21694
878.185	21500
878.313	21724
878.441	21637
878.568	21466
878.696	21549
878.824	21671
878.951	21732
879.079	21808
879.206	22010
879.333	21911
879.461	21709
879.588	21808
879.715	21717
879.842	21869
879.97	21857
880.097	21428
880.224	21488
880.351	21507
880.478	21603
880.605	21447
880.732	21557
880.859	21724
880.986	21458
881.112	21595
881.239	21469
881.366	21138
881.493	21135
881.619	21135
881.746	21203
881.872	21184
881.999	21055
882.125	21112
882.252	21055
882.378	21001
882.505	21237
882.631	20876
882.757	20868
882.883	20769
883.01	20720
883.136	20769
883.262	20716
883.388	20629
883.514	20720
883.64	20777
883.766	20606
883.892	20674
884.018	20659
884.143	20716
884.269	20765
884.395	20579
884.52	20400
884.646	20434
884.772	20454
884.897	20412
885.023	20488
885.148	20530
885.274	20590
885.399	20518
885.524	20499
885.65	20495
885.775	20442
885.9	20434
886.025	20598
886.15	20495
886.275	20294
886.4	20343
886.525	20427
886.65	20305
886.775	20377
886.9	20488
887.025	20674
887.149	20476
887.274	20290
887.399	20271
887.523	20157
887.648	20172
887.773	20084
887.897	20412
888.021	20278
888.146	20126
888.27	20309
888.395	20282
888.519	20225
888.643	20187
888.767	20263
888.891	20134
889.015	20073
889.139	20065
889.263	19963
889.387	20275
889.511	20168
889.635	20107
889.759	20039
889.883	20065
890.006	19947
890.13	20073
890.254	20016
890.377	20069
890.501	19883
890.624	19765
890.748	19902
890.871	19727
890.995	19578
891.118	19635
891.241	19563
891.364	19643
891.488	19628
891.611	19628
891.734	19750
891.857	19658
891.98	19533
892.103	19601
892.226	19727
892.349	19540
892.471	19476
892.594	19662
892.717	19571
892.839	19540
892.962	19613
893.085	19647
893.207	19464
893.33	19441
893.452	19327
893.575	19571
893.697	19415
893.819	19666
893.941	19635
894.064	19704
894.186	19483
894.308	19457
894.43	19628
894.552	19529
894.674	19594
894.796	19480
894.918	19529
895.04	19529
895.161	19556
895.283	19594
895.405	19445
895.526	19495
895.648	19514
895.769	19559
895.891	19601
896.012	19586
896.134	19499
896.255	19518
896.376	19441
896.498	19445
896.619	19537
896.74	19514
896.861	19647
896.982	19917
897.103	19909
897.224	19761
897.345	19693
897.466	19578
897.587	19753
897.708	19925
897.828	19677
897.949	19651
898.07	19647
898.19	19723
898.311	19788
898.431	19723
898.552	19849
898.672	19849
898.792	19841
898.913	19776
899.033	19693
899.153	19548
899.273	19495
899.393	19483
899.513	19544
899.633	19639
899.753	19472
899.873	19434
899.993	19571
900.113	19510
900.232	19586
900.352	19514
900.472	19369
900.591	19308
900.711	19362
900.83	19228
900.95	19400
901.069	19362
901.189	19202
901.308	18916
901.427	18890
901.546	18935
901.665	18916
901.784	18962
901.904	18749
902.023	18654
902.141	18441
902.26	18433
902.379	18566
902.498	18414
902.617	18243
902.735	18418
902.854	18369
902.973	18334
903.091	18045
903.21	18045
903.328	18152
903.446	18064
903.565	17828
903.683	17832
903.801	17779
903.919	17927
904.038	17893
904.156	17653
904.274	17798
904.392	17604
904.51	17661
904.627	17680
904.745	17604
904.863	17752
904.981	17581
905.098	17345
905.216	17421
905.334	17417
905.451	17383
905.569	17307
905.686	17383
905.803	17284
905.921	17083
906.038	17326
906.155	17117
906.272	16942
906.389	17033
906.506	16961
906.623	16896
906.74	16946
906.857	16828
906.974	16805
907.091	16968
907.208	16995
907.324	16965
907.441	16866
907.557	16580
907.674	16618
907.79	16489
907.907	16497
908.023	16607
908.139	16668
908.256	16618
908.372	16474
908.488	16405
908.604	16379
908.72	16356
908.836	16436
908.952	16223
909.068	16341
909.184	16459
909.3	16363
909.415	16390
909.531	16360
909.647	16177
909.762	16059
909.878	16101
909.993	16074
910.108	15953
910.224	15945
910.339	16040
910.454	15903
910.57	15823
910.685	15766
910.8	16078
910.915	15998
911.03	15956
911.145	15793
911.259	15663
911.374	15694
911.489	15557
911.604	15534
911.718	15401
911.833	15397
911.947	15382
912.062	15317
912.176	15507
912.291	15359
912.405	15473
912.519	15587
912.633	15622
912.748	15428
912.862	15401
912.976	15146
913.09	15074
913.204	15138
913.318	15302
913.431	15302
913.545	15298
913.659	15287
913.772	15108
913.886	15032
914	14971
914.113	15055
914.226	15135
914.34	15089
914.453	14895
914.566	15047
914.68	15005
914.793	14887
914.906	14743
915.019	14670
915.132	14617
915.245	14663
915.358	14651
915.47	14693
915.583	14655
915.696	14674
915.809	14625
915.921	14746
916.034	14575
916.146	14503
916.259	14495
916.371	14617
916.483	14636
916.595	14545
916.708	14499
916.82	14438
916.932	14454
917.044	14454
917.156	14427
917.268	14317
917.38	14366
917.491	14336
917.603	14374
917.715	14381
917.826	14343
917.938	14267
918.049	14123
918.161	14305
918.272	14408
918.384	14404
918.495	14267
918.606	14138
918.717	13997
918.828	14123
918.939	14046
919.05	13986
919.161	14058
919.272	13906
919.383	13970
919.494	14126
919.604	14305
919.715	14043
919.826	14016
919.936	14054
920.047	14126
920.157	14043
920.267	14263
920.378	14065
920.488	14024
920.598	14225
920.708	14355
920.818	14187
920.928	14145
921.038	14404
921.148	14355
921.258	14054
921.368	13982
921.477	13837
921.587	13856
921.697	13708
921.806	13822
921.916	13609
922.025	13533
922.134	13529
922.244	13472
922.353	13514
922.462	13415
922.571	13422
922.68	13164
922.789	13023
922.898	13149
923.007	13046
923.116	13179
923.224	13088
923.333	13091
923.442	12970
923.55	12924
923.659	12993
923.767	12958
923.876	12863
923.984	12890
924.092	12882
924.201	12920
924.309	12863
924.417	12848
924.525	12795
924.633	12730
924.741	13700
924.849	12627
924.956	12791
925.064	12555
925.172	12441
925.279	12547
925.387	12597
925.494	12563
925.602	12658
925.709	12593
925.816	12380
925.924	12490
926.031	12601
926.138	12433
926.245	12563
926.352	12486
926.459	12467
926.566	12563
926.673	12410
926.779	12327
926.886	12300
926.993	12148
927.099	12148
927.206	12076
927.312	12083
927.419	12235
927.525	12171
927.631	12129
927.737	12053
927.843	11996
927.95	11889
928.056	11965
928.162	12015
928.267	12019
928.373	12517
928.479	11961
928.585	11832
928.69	12015
928.796	11950
928.901	11748
929.007	11668
929.112	11863
929.218	11798
929.323	11722
929.428	11733
929.533	11760
929.638	11722
929.743	11710
929.848	11623
929.953	11703
930.058	11535
930.163	11376
930.267	11414
930.372	11528
930.477	11402
930.581	11570
930.685	11436
930.79	11239
930.894	11269
930.998	11174
931.103	11307
931.207	11025
931.311	10999
931.415	10968
931.519	10759
931.623	10649
