Data from test_V78500241_2062.txt Node
Date: Fri Mar 25 15:24:12 CST 2022
User: usil
Spectrometer: V785-0024
Trigger mode: 0
Integration Time (sec): 4.000000E-1
Scans to average: 1
Nonlinearity correction enabled: false
Boxcar width: 0
Storing dark spectrum: false
XAxis mode: Wavelengths
Number of Pixels in Spectrum: 1024
>>>>>Begin Spectral Data<<<<<
801.071	27690
801.214	27633
801.356	27488
801.499	27408
801.641	27344
801.783	27241
801.926	27283
802.068	27245
802.211	27108
802.353	27123
802.496	27028
802.638	26910
802.78	26727
802.923	26849
803.065	26758
803.208	26895
803.35	26804
803.492	26937
803.635	26990
803.777	26933
803.919	27058
804.061	27458
804.204	27039
804.346	27047
804.488	26967
804.63	27013
804.773	26952
804.915	27051
805.057	27039
805.199	27024
805.341	27096
805.483	27207
805.626	27077
805.768	27081
805.91	27135
806.052	27249
806.194	27123
806.336	27291
806.478	27268
806.62	27264
806.762	27291
806.904	27389
807.046	27720
807.188	27606
807.33	27591
807.472	27526
807.614	27504
807.756	27644
807.898	27443
808.04	27435
808.182	27370
808.324	27481
808.465	27515
808.607	27622
808.749	27846
808.891	27793
809.033	27953
809.174	27838
809.316	27747
809.458	27739
809.6	27747
809.741	27911
809.883	27922
810.025	28097
810.166	28070
810.308	28051
810.45	27941
810.591	27934
810.733	27755
810.875	27838
811.016	27652
811.158	27606
811.299	27812
811.441	27945
811.582	27876
811.724	27755
811.865	27778
812.007	27743
812.148	27656
812.29	27873
812.431	28002
812.573	28025
812.714	28090
812.855	28242
812.997	28413
813.138	28421
813.279	28352
813.421	28272
813.562	28181
813.703	28097
813.845	27861
813.986	27778
814.127	27561
814.268	27583
814.41	27625
814.551	27397
814.692	27443
814.833	27291
814.974	27450
815.115	27507
815.256	27401
815.397	27268
815.539	27363
815.68	27211
815.821	27241
815.962	27298
816.103	27329
816.244	27093
816.385	26971
816.526	26899
816.666	26868
816.807	26781
816.948	26735
817.089	26857
817.23	26758
817.371	26640
817.512	26758
817.653	26655
817.793	26644
817.934	26705
818.075	26716
818.216	26708
818.356	26708
818.497	26678
818.638	26453
818.778	26442
818.919	26541
819.06	26450
819.2	26686
819.341	26731
819.481	26682
819.622	26883
819.762	27074
819.903	26944
820.043	27070
820.184	26811
820.324	26891
820.465	26845
820.605	26777
820.746	26796
820.886	26864
821.026	26800
821.167	26716
821.307	26758
821.447	26484
821.588	26655
821.728	26503
821.868	26366
822.008	26142
822.149	26229
822.289	26294
822.429	25913
822.569	25746
822.709	25947
822.849	25662
822.99	25708
823.13	25643
823.27	25639
823.41	25548
823.55	25426
823.69	25472
823.83	25434
823.97	25419
824.11	25244
824.25	25187
824.389	25316
824.529	25365
824.669	25274
824.809	25411
824.949	25388
825.089	25457
825.228	25457
825.368	25236
825.508	25148
825.648	25164
825.787	25175
825.927	25339
826.067	25099
826.206	25202
826.346	25362
826.485	25247
826.625	25206
826.765	25228
826.904	25156
827.044	25008
827.183	25088
827.323	24829
827.462	25118
827.601	24977
827.741	24852
827.88	24962
828.02	24871
828.159	24897
828.298	24890
828.437	24935
828.577	24863
828.716	25088
828.855	24764
828.994	24734
829.134	24658
829.273	24669
829.412	24566
829.551	24456
829.69	24646
829.829	24654
829.968	24730
830.107	24669
830.246	24620
830.385	24585
830.524	24563
830.663	24422
830.802	24292
830.941	24228
831.08	24159
831.219	24426
831.357	24334
831.496	24361
831.635	24292
831.774	24251
831.913	24152
832.051	24018
832.19	24041
832.329	24022
832.467	24011
832.606	23843
832.744	23870
832.883	23748
833.022	23760
833.16	23870
833.299	23931
833.437	23920
833.576	23973
833.714	23874
833.852	23999
833.991	23961
834.129	24079
834.267	24087
834.406	23961
834.544	24034
834.682	24133
834.821	23927
834.959	24083
835.097	23874
835.235	24034
835.373	23851
835.511	23889
835.65	23843
835.788	23824
835.926	23668
836.064	23646
836.202	23726
836.34	23821
836.478	23904
836.615	23748
836.753	23764
836.891	23889
837.029	23885
837.167	23695
837.305	23699
837.443	23615
837.58	23722
837.718	23668
837.856	23657
837.993	23592
838.131	23638
838.269	23562
838.406	23634
838.544	23376
838.681	23345
838.819	23307
838.956	23041
839.094	23155
839.231	23083
839.369	23250
839.506	23463
839.643	23231
839.781	23170
839.918	23231
840.055	23006
840.193	23060
840.33	22942
840.467	23025
840.604	22923
840.742	23307
840.879	22835
841.016	23003
841.153	22976
841.29	23147
841.427	22927
841.564	23060
841.701	22961
841.838	22976
841.975	22889
842.112	22839
842.249	22915
842.385	22805
842.522	22965
842.659	22847
842.796	22778
842.933	22820
843.069	22767
843.206	22847
843.343	22930
843.479	22831
843.616	22843
843.752	22611
843.889	22649
844.025	22809
844.162	22527
844.298	22672
844.435	22527
844.571	22535
844.708	22584
844.844	22672
844.98	22660
845.117	22637
845.253	22561
845.389	22432
845.525	22379
845.661	22402
845.798	22261
845.934	22314
846.07	22318
846.206	22303
846.342	22398
846.478	22215
846.614	22105
846.75	22021
846.886	21941
847.022	22029
847.158	22097
847.294	22124
847.429	22097
847.565	21987
847.701	22211
847.837	21774
847.972	21747
848.108	21819
848.244	21857
848.379	21667
848.515	21747
848.65	21580
848.786	21614
848.921	21671
849.057	21785
849.192	21751
849.328	21713
849.463	21698
849.598	21542
849.734	21591
849.869	21435
850.004	21378
850.14	21370
850.275	21500
850.41	21332
850.545	21348
850.68	21241
850.815	21382
850.95	21310
851.085	21545
851.22	21428
851.355	21454
851.49	21359
851.625	21310
851.76	21416
851.895	21272
852.03	21321
852.165	21393
852.299	21340
852.434	21340
852.569	21374
852.703	21310
852.838	21370
852.973	21428
853.107	21500
853.242	21359
853.376	21332
853.511	21188
853.645	21131
853.78	21329
853.914	21272
854.048	21085
854.183	21184
854.317	21150
854.451	21397
854.585	21226
854.72	21188
854.854	21443
854.988	21180
855.122	21142
855.256	21116
855.39	21207
855.524	21207
855.658	21127
855.792	21230
855.926	21226
856.06	21386
856.194	21317
856.327	21108
856.461	21157
856.595	21032
856.729	21138
856.862	21275
856.996	21298
857.13	21188
857.263	21458
857.397	21302
857.53	21283
857.664	21359
857.797	21199
857.931	21336
858.064	21306
858.197	21252
858.331	21237
858.464	21154
858.597	21127
858.731	21241
858.864	21173
858.997	21058
859.13	21089
859.263	21161
859.396	21302
859.529	21169
859.662	21161
859.795	21173
859.928	21142
860.061	21268
860.194	21268
860.327	21283
860.46	21192
860.592	21367
860.725	21439
860.858	21348
860.99	21154
861.123	21218
861.256	21138
861.388	21207
861.521	21816
861.653	21108
861.786	21001
861.918	21138
862.05	21112
862.183	21058
862.315	21256
862.447	21165
862.58	21077
862.712	20853
862.844	20986
862.976	21039
863.108	20994
863.24	21184
863.372	20819
863.504	20819
863.636	20902
863.768	20975
863.9	20921
864.032	20899
864.164	20960
864.296	20979
864.428	20975
864.559	20963
864.691	20910
864.823	20895
864.954	20921
865.086	20849
865.217	20864
865.349	20750
865.48	20773
865.612	20800
865.743	20853
865.875	20796
866.006	20796
866.137	20724
866.269	20689
866.4	20823
866.531	20708
866.662	20621
866.793	20609
866.924	20598
867.055	20632
867.186	20735
867.317	20587
867.448	20625
867.579	20899
867.71	20625
867.841	20640
867.972	20724
868.103	20838
868.233	20857
868.364	20773
868.495	20762
868.625	21051
868.756	21112
868.886	20937
869.017	20960
869.147	21096
869.278	21108
869.408	21032
869.539	21032
869.669	21039
869.799	21017
869.929	21043
870.06	21055
870.19	21397
870.32	21199
870.45	21340
870.58	21279
870.71	21515
870.84	21397
870.97	21291
871.1	21428
871.23	21576
871.36	21739
871.489	21462
871.619	21553
871.749	21511
871.879	21660
872.008	21713
872.138	21557
872.267	21507
872.397	21507
872.526	21351
872.656	21374
872.785	21462
872.915	21595
873.044	21724
873.173	21614
873.303	21724
873.432	21720
873.561	21728
873.69	21583
873.819	21671
873.948	21701
874.077	21553
874.206	21538
874.335	21644
874.464	21717
874.593	21759
874.722	21812
874.851	21838
874.979	21781
875.108	21880
875.237	21766
875.365	21557
875.494	21861
875.623	21915
875.751	21762
875.88	21808
876.008	21953
876.136	21968
876.265	22188
876.393	22466
876.521	22280
876.65	22185
876.778	22238
876.906	22097
877.034	22135
877.162	22116
877.29	22192
877.418	22090
877.546	22109
877.674	22207
877.802	22268
877.93	22131
878.058	22128
878.185	22078
878.313	22207
878.441	22284
878.568	22029
878.696	22090
878.824	22143
878.951	22272
879.079	22299
879.206	22470
879.333	22306
879.461	22169
879.588	22268
879.715	22379
879.842	22569
879.97	22303
880.097	21991
880.224	22059
880.351	21960
880.478	21865
880.605	21949
880.732	22017
880.859	22268
880.986	21953
881.112	22063
881.239	21816
881.366	21778
881.493	21667
881.619	21625
881.746	21473
881.872	21599
881.999	21519
882.125	21473
882.252	21504
882.378	21606
882.505	21599
882.631	21424
882.757	21287
882.883	21355
883.01	21176
883.136	21218
883.262	21211
883.388	21043
883.514	21245
883.64	21154
883.766	21188
883.892	21001
884.018	21055
884.143	21180
884.269	21374
884.395	20979
884.52	20811
884.646	20804
884.772	20830
884.897	20826
885.023	20868
885.148	20929
885.274	21161
885.399	21017
885.524	20925
885.65	20902
885.775	20906
885.9	20819
886.025	21020
886.15	20891
886.275	20960
886.4	20823
886.525	20986
886.65	20872
886.775	20765
886.9	20960
887.025	21032
887.149	20777
887.274	20769
887.399	20716
887.523	20682
887.648	20564
887.773	20560
887.897	20788
888.021	20769
888.146	20575
888.27	20632
888.395	20758
888.519	20659
888.643	20678
888.767	20762
888.891	20537
889.015	20598
889.139	20377
889.263	20343
889.387	20575
889.511	20727
889.635	20602
889.759	20457
889.883	20530
890.006	20454
890.13	20438
890.254	20362
890.377	20370
890.501	20199
890.624	20218
890.748	20240
890.871	20092
890.995	20081
891.118	20050
891.241	20092
891.364	20142
891.488	20081
891.611	20050
891.734	20100
891.857	20134
891.98	20035
892.103	20134
892.226	19993
892.349	20081
892.471	19814
892.594	19951
892.717	19913
892.839	19864
892.962	20008
893.085	20115
893.207	20020
893.33	19951
893.452	19803
893.575	19936
893.697	19925
893.819	20039
893.941	20195
894.064	20126
894.186	19913
894.308	19852
894.43	19978
894.552	20195
894.674	19925
894.796	19723
894.918	19932
895.04	19917
895.161	20008
895.283	20024
895.405	19921
895.526	19940
895.648	19921
895.769	20050
895.891	20016
896.012	19989
896.134	19982
896.255	20050
896.376	19921
896.498	19913
896.619	19982
896.74	19902
896.861	20001
896.982	20237
897.103	20389
897.224	20237
897.345	20130
897.466	20145
897.587	20210
897.708	20259
897.828	20145
897.949	20119
898.07	19955
898.19	20016
898.311	20202
898.431	20149
898.552	20081
898.672	20225
898.792	20278
898.913	20176
899.033	20195
899.153	19917
899.273	19849
899.393	19879
899.513	19940
899.633	19833
899.753	19967
899.873	19967
899.993	19814
900.113	19890
900.232	19868
900.352	19818
900.472	19841
900.591	19704
900.711	19670
900.83	19635
900.95	19818
901.069	19822
901.189	19616
901.308	19365
901.427	19301
901.546	19217
901.665	19335
901.784	19327
901.904	19137
902.023	19088
902.141	18760
902.26	18886
902.379	18894
902.498	18806
902.617	18749
902.735	18825
902.854	18776
902.973	18814
903.091	18479
903.21	18517
903.328	18479
903.446	18536
903.565	18292
903.683	18266
903.801	18213
903.919	18163
904.038	18163
904.156	18034
904.274	18136
904.392	18007
904.51	18034
904.627	18003
904.745	18152
904.863	18045
904.981	17798
905.098	17619
905.216	17657
905.334	17764
905.451	17707
905.569	17741
905.686	17726
905.803	17745
905.921	17467
906.038	17600
906.155	17600
906.272	17402
906.389	17269
906.506	17212
906.623	17326
906.74	17227
906.857	17143
906.974	17220
907.091	17269
907.208	17296
907.324	17250
907.441	17105
907.557	16961
907.674	16900
907.79	16854
907.907	16839
908.023	17006
908.139	16930
908.256	16885
908.372	16752
908.488	16854
908.604	16778
908.72	16702
908.836	16809
908.952	16694
909.068	16641
909.184	16755
909.3	16683
909.415	16752
909.531	16687
909.647	16504
909.762	16417
909.878	16333
909.993	16398
910.108	16348
910.224	16402
910.339	16424
910.454	16322
910.57	16204
910.685	16143
910.8	16341
910.915	16379
911.03	16207
911.145	15991
911.259	15926
911.374	16074
911.489	15907
911.604	15819
911.718	15641
911.833	15781
911.947	15713
912.062	15507
912.176	15736
912.291	15800
912.405	15644
912.519	15873
912.633	15994
912.748	15728
912.862	15671
912.976	15561
913.09	15408
913.204	15511
913.318	15576
913.431	15637
913.545	15625
913.659	15701
913.772	15519
913.886	15439
914	15424
914.113	15477
914.226	15466
914.34	15447
914.453	15317
914.566	15348
914.68	15268
914.793	15169
914.906	15161
915.019	14967
915.132	14929
915.245	14975
915.358	14986
915.47	14921
915.583	14963
915.696	15028
915.809	14941
915.921	15085
916.034	14891
916.146	14933
916.259	14857
916.371	14952
916.483	14849
916.595	14811
916.708	14807
916.82	14769
916.932	14864
917.044	14765
917.156	14727
917.268	14670
917.38	14788
917.491	14610
917.603	14610
917.715	14739
917.826	14708
917.938	14514
918.049	14377
918.161	14541
918.272	14777
918.384	14617
918.495	14579
918.606	14362
918.717	14355
918.828	14518
918.939	14446
919.05	14259
919.161	14301
919.272	14142
919.383	14237
919.494	14393
919.604	14507
919.715	14332
919.826	14195
919.936	14332
920.047	14389
920.157	14294
920.267	14667
920.378	14381
920.488	14351
920.598	14594
920.708	14659
920.818	14556
920.928	14518
921.038	14663
921.148	14575
921.258	14210
921.368	14248
921.477	14107
921.587	14119
921.697	13864
921.806	14062
921.916	13974
922.025	13750
922.134	13738
922.244	13708
922.353	13780
922.462	13670
922.571	13571
922.68	13365
922.789	13327
922.898	13400
923.007	13285
923.116	13377
923.224	13350
923.333	13350
923.442	13289
923.55	13179
923.659	13175
923.767	13289
923.876	13228
923.984	13183
924.092	13019
924.201	13145
924.309	13187
924.417	13156
924.525	13053
924.633	13057
924.741	13791
924.849	12901
924.956	13004
925.064	12867
925.172	12703
925.279	12738
925.387	12795
925.494	12894
925.602	12856
925.709	12810
925.816	12692
925.924	12802
926.031	12859
926.138	12703
926.245	12760
926.352	12631
926.459	12764
926.566	12821
926.673	12658
926.779	12665
926.886	12521
926.993	12369
927.099	12357
927.206	12330
927.312	12315
927.419	12414
927.525	12399
927.631	12441
927.737	12258
927.843	12175
927.95	12209
928.056	12311
928.162	12239
928.267	12205
928.373	12844
928.479	12300
928.585	12007
928.69	12148
928.796	12152
928.901	12064
929.007	11897
929.112	11965
929.218	12026
929.323	11935
929.428	11965
929.533	12076
929.638	11866
929.743	11889
929.848	11824
929.953	11889
930.058	11760
930.163	11714
930.267	11646
930.372	11707
930.477	11611
930.581	11809
930.685	11535
930.79	11547
930.894	11615
930.998	11566
931.103	11619
931.207	11315
931.311	11143
931.415	11147
931.519	10862
931.623	10889
