Data from test_V78500241_1495.txt Node
Date: Fri Mar 25 15:20:16 CST 2022
User: usil
Spectrometer: V785-0024
Trigger mode: 0
Integration Time (sec): 4.000000E-1
Scans to average: 1
Nonlinearity correction enabled: false
Boxcar width: 0
Storing dark spectrum: false
XAxis mode: Wavelengths
Number of Pixels in Spectrum: 1024
>>>>>Begin Spectral Data<<<<<
801.071	28082
801.214	28135
801.356	27816
801.499	27705
801.641	27595
801.783	27720
801.926	27713
802.068	27656
802.211	27667
802.353	27545
802.496	27367
802.638	27393
802.78	27268
802.923	27233
803.065	27237
803.208	27230
803.35	27325
803.492	27412
803.635	27416
803.777	27389
803.919	27553
804.061	27720
804.204	27557
804.346	27580
804.488	27561
804.63	27606
804.773	27450
804.915	27526
805.057	27717
805.199	27488
805.341	27549
805.483	27622
805.626	27618
805.768	27599
805.91	27690
806.052	27686
806.194	27652
806.336	27762
806.478	27759
806.62	27778
806.762	27876
806.904	27842
807.046	28109
807.188	28032
807.33	28162
807.472	28166
807.614	27975
807.756	28021
807.898	27869
808.04	27888
808.182	27854
808.324	27983
808.465	28063
808.607	28162
808.749	28386
808.891	28413
809.033	28485
809.174	28375
809.316	28246
809.458	28299
809.6	28276
809.741	28630
809.883	28470
810.025	28596
810.166	28717
810.308	28649
810.45	28504
810.591	28546
810.733	28310
810.875	28352
811.016	28204
811.158	28234
811.299	28436
811.441	28421
811.582	28508
811.724	28337
811.865	28265
812.007	28299
812.148	28333
812.29	28310
812.431	28538
812.573	28706
812.714	28850
812.855	28790
812.997	28984
813.138	29174
813.279	29014
813.421	28961
813.562	28911
813.703	28702
813.845	28535
813.986	28287
814.127	28291
814.268	28112
814.41	28055
814.551	28013
814.692	28112
814.833	27857
814.974	28166
815.115	28040
815.256	27854
815.397	27945
815.539	27937
815.68	27918
815.821	27770
815.962	27808
816.103	27918
816.244	27728
816.385	27587
816.526	27633
816.666	27298
816.807	27272
816.948	27351
817.089	27450
817.23	27427
817.371	27431
817.512	27359
817.653	27249
817.793	27245
817.934	27386
818.075	27378
818.216	27329
818.356	27336
818.497	27173
818.638	27055
818.778	27096
818.919	27142
819.06	27192
819.2	27294
819.341	27268
819.481	27405
819.622	27401
819.762	27690
819.903	27652
820.043	27515
820.184	27545
820.324	27450
820.465	27603
820.605	27568
820.746	27481
820.886	27173
821.026	27431
821.167	27408
821.307	27431
821.447	27412
821.588	27332
821.728	27142
821.868	26914
822.008	26819
822.149	26842
822.289	26769
822.429	26598
822.569	26583
822.709	26495
822.849	26446
822.99	26415
823.13	26206
823.27	26157
823.41	26168
823.55	25959
823.69	26168
823.83	26134
823.97	26107
824.11	25936
824.25	25928
824.389	25989
824.529	26077
824.669	25894
824.809	26062
824.949	25959
825.089	26046
825.228	25951
825.368	25849
825.508	25917
825.648	25879
825.787	25803
825.927	25837
826.067	25852
826.206	25731
826.346	25852
826.485	25860
826.625	25727
826.765	25887
826.904	25921
827.044	25571
827.183	25586
827.323	25681
827.462	25540
827.601	25525
827.741	25529
827.88	25655
828.02	25400
828.159	25590
828.298	25441
828.437	25563
828.577	25529
828.716	25590
828.855	25476
828.994	25396
829.134	25164
829.273	25255
829.412	25247
829.551	25148
829.69	25251
829.829	25228
829.968	25331
830.107	25316
830.246	25266
830.385	25122
830.524	25038
830.663	25133
830.802	24943
830.941	24795
831.08	24837
831.219	24886
831.357	24992
831.496	25042
831.635	24829
831.774	24741
831.913	24677
832.051	24627
832.19	24650
832.329	24616
832.467	24525
832.606	24460
832.744	24357
832.883	24578
833.022	24483
833.16	24479
833.299	24513
833.437	24578
833.576	24726
833.714	24631
833.852	24498
833.991	24715
834.129	24719
834.267	24692
834.406	24532
834.544	24589
834.682	24547
834.821	24395
834.959	24745
835.097	24525
835.235	24681
835.373	24646
835.511	24627
835.65	24429
835.788	24456
835.926	24285
836.064	24186
836.202	24182
836.34	24471
836.478	24528
836.615	24315
836.753	24418
836.891	24521
837.029	24391
837.167	24342
837.305	24277
837.443	24194
837.58	24197
837.718	24289
837.856	24197
837.993	24232
838.131	24235
838.269	24018
838.406	24144
838.544	24091
838.681	23817
838.819	23882
838.956	23748
839.094	23798
839.231	23737
839.369	23878
839.506	24121
839.643	23897
839.781	23646
839.918	23592
840.055	23821
840.193	23604
840.33	23634
840.467	23684
840.604	23600
840.742	23931
840.879	23478
841.016	23505
841.153	23471
841.29	23646
841.427	23611
841.564	23551
841.701	23585
841.838	23497
841.975	23493
842.112	23383
842.249	23402
842.385	23368
842.522	23687
842.659	23490
842.796	23421
842.933	23353
843.069	23322
843.206	23250
843.343	23395
843.479	23330
843.616	23265
843.752	23174
843.889	23018
844.025	23349
844.162	22972
844.298	23117
844.435	23121
844.571	23128
844.708	23185
844.844	23261
844.98	23292
845.117	23284
845.253	23174
845.389	22980
845.525	23010
845.661	23052
845.798	22889
845.934	22965
846.07	22850
846.206	22858
846.342	23025
846.478	22847
846.614	22573
846.75	22668
846.886	22656
847.022	22626
847.158	22561
847.294	22599
847.429	22584
847.565	22554
847.701	22782
847.837	22379
847.972	22169
848.108	22314
848.244	22325
848.379	22402
848.515	22143
848.65	22131
848.786	22223
848.921	22219
849.057	22257
849.192	22341
849.328	22162
849.463	22188
849.598	22044
849.734	22158
849.869	22059
850.004	21892
850.14	22029
850.275	21964
850.41	21888
850.545	21781
850.68	22010
850.815	21918
850.95	21838
851.085	22048
851.22	22051
851.355	21991
851.49	21835
851.625	21964
851.76	21816
851.895	21854
852.03	21827
852.165	21892
852.299	21960
852.434	22002
852.569	21911
852.703	21899
852.838	21960
852.973	22090
853.107	22063
853.242	21922
853.376	21804
853.511	21553
853.645	21846
853.78	21793
853.914	21800
854.048	21747
854.183	21762
854.317	21755
854.451	21998
854.585	21625
854.72	21694
854.854	21728
854.988	21720
855.122	21800
855.256	21724
855.39	21682
855.524	21892
855.658	21812
855.792	21842
855.926	21785
856.06	21747
856.194	21850
856.327	21827
856.461	21774
856.595	21633
856.729	21781
856.862	21895
856.996	21789
857.13	21663
857.263	21930
857.397	21888
857.53	21648
857.664	21797
857.797	21831
857.931	21797
858.064	21774
858.197	21884
858.331	21728
858.464	21701
858.597	21682
858.731	21785
858.864	21660
858.997	21633
859.13	21728
859.263	21713
859.396	21861
859.529	21812
859.662	21808
859.795	21595
859.928	21770
860.061	21827
860.194	21968
860.327	21743
860.46	21739
860.592	21781
860.725	21884
860.858	21861
860.99	21835
861.123	21606
861.256	21694
861.388	21701
861.521	22348
861.653	21698
861.786	21622
861.918	21561
862.05	21572
862.183	21591
862.315	21743
862.447	21652
862.58	21667
862.712	21435
862.844	21321
862.976	21515
863.108	21538
863.24	21861
863.372	21389
863.504	21370
863.636	21420
863.768	21481
863.9	21382
864.032	21439
864.164	21408
864.296	21549
864.428	21652
864.559	21564
864.691	21667
864.823	21549
864.954	21496
865.086	21393
865.217	21488
865.349	21272
865.48	21313
865.612	21279
865.743	21359
865.875	21462
866.006	21374
866.137	21325
866.269	21313
866.4	21325
866.531	21378
866.662	21241
866.793	21340
866.924	21317
867.055	21363
867.186	21310
867.317	21310
867.448	21173
867.579	21237
867.71	21192
867.841	21154
867.972	21382
868.103	21325
868.233	21268
868.364	21355
868.495	21340
868.625	21466
868.756	21534
868.886	21401
869.017	21473
869.147	21618
869.278	21576
869.408	21488
869.539	21572
869.669	21549
869.799	21595
869.929	21625
870.06	21633
870.19	21789
870.32	21854
870.45	21892
870.58	21934
870.71	22128
870.84	22051
870.97	21937
871.1	21930
871.23	22067
871.36	22112
871.489	22013
871.619	22162
871.749	22078
871.879	22181
872.008	22139
872.138	22048
872.267	22029
872.397	21953
872.526	21983
872.656	21991
872.785	21975
872.915	22032
873.044	22185
873.173	22169
873.303	22215
873.432	22246
873.561	22143
873.69	22131
873.819	22116
873.948	22143
874.077	22131
874.206	21975
874.335	22135
874.464	22265
874.593	22280
874.722	22333
874.851	22310
874.979	22428
875.108	22436
875.237	22291
875.365	22363
875.494	22284
875.623	22310
875.751	22318
875.88	22261
876.008	22360
876.136	22500
876.265	22721
876.393	22866
876.521	22904
876.65	22797
876.778	22752
876.906	22713
877.034	22679
877.162	22729
877.29	22580
877.418	22793
877.546	22565
877.674	22774
877.802	22675
877.93	22759
878.058	22641
878.185	22622
878.313	22554
878.441	22656
878.568	22478
878.696	22706
878.824	22649
878.951	22733
879.079	23006
879.206	22991
879.333	22854
879.461	22611
879.588	22824
879.715	22881
879.842	22999
879.97	22782
880.097	22455
880.224	22538
880.351	22497
880.478	22656
880.605	22379
880.732	22466
880.859	22782
880.986	22390
881.112	22653
881.239	22276
881.366	22284
881.493	22067
881.619	22040
881.746	22135
881.872	22055
881.999	21945
882.125	22021
882.252	22040
882.378	22051
882.505	22051
882.631	21953
882.757	21937
882.883	21907
883.01	21876
883.136	21724
883.262	21663
883.388	21656
883.514	21835
883.64	21800
883.766	21743
883.892	21515
884.018	21526
884.143	21819
884.269	21705
884.395	21477
884.52	21378
884.646	21420
884.772	21287
884.897	21302
885.023	21580
885.148	21526
885.274	21583
885.399	21511
885.524	21325
885.65	21348
885.775	21367
885.9	21382
886.025	21454
886.15	21439
886.275	21351
886.4	21355
886.525	21416
886.65	21370
886.775	21329
886.9	21511
887.025	21644
887.149	21428
887.274	21203
887.399	21161
887.523	21089
887.648	21233
887.773	21104
887.897	21184
888.021	21104
888.146	21077
888.27	21211
888.395	21165
888.519	21310
888.643	21207
888.767	21161
888.891	21089
889.015	20975
889.139	21043
889.263	21005
889.387	20990
889.511	21222
889.635	21013
889.759	20902
889.883	21017
890.006	20990
890.13	21024
890.254	20861
890.377	20921
890.501	20773
890.624	20754
890.748	20800
890.871	20682
890.995	20503
891.118	20465
891.241	20640
891.364	20446
891.488	20716
891.611	20545
891.734	20488
891.857	20511
891.98	20457
892.103	20552
892.226	20583
892.349	20408
892.471	20240
892.594	20396
892.717	20446
892.839	20320
892.962	20473
893.085	20564
893.207	20415
893.33	20298
893.452	20404
893.575	20560
893.697	20434
893.819	20609
893.941	20754
894.064	20541
894.186	20377
894.308	20438
894.43	20438
894.552	20705
894.674	20533
894.796	20294
894.918	20332
895.04	20324
895.161	20625
895.283	20465
895.405	20415
895.526	20469
895.648	20423
895.769	20465
895.891	20358
896.012	20594
896.134	20613
896.255	20408
896.376	20431
896.498	20427
896.619	20404
896.74	20442
896.861	20507
896.982	20705
897.103	20906
897.224	20724
897.345	20663
897.466	20632
897.587	20587
897.708	20781
897.828	20667
897.949	20511
898.07	20423
898.19	20492
898.311	20762
898.431	20522
898.552	20590
898.672	20655
898.792	20655
898.913	20743
899.033	20575
899.153	20480
899.273	20267
899.393	20396
899.513	20328
899.633	20244
899.753	20355
899.873	20332
899.993	20313
900.113	20313
900.232	20294
900.352	20233
900.472	20157
900.591	20157
900.711	20176
900.83	20092
900.95	20244
901.069	20256
901.189	19947
901.308	19837
901.427	19708
901.546	19719
901.665	19616
901.784	19651
901.904	19628
902.023	19499
902.141	19358
902.26	19346
902.379	19308
902.498	19152
902.617	19236
902.735	19377
902.854	19285
902.973	19129
903.091	18962
903.21	18814
903.328	18905
903.446	18833
903.565	18787
903.683	18707
903.801	18631
903.919	18673
904.038	18608
904.156	18464
904.274	18608
904.392	18365
904.51	18506
904.627	18479
904.745	18498
904.863	18551
904.981	18235
905.098	18224
905.216	17984
905.334	18167
905.451	18182
905.569	18129
905.686	18319
905.803	18178
905.921	17969
906.038	18015
906.155	17939
906.272	17939
906.389	17832
906.506	17680
906.623	17611
906.74	17771
906.857	17543
906.974	17638
907.091	17676
907.208	17832
907.324	17672
907.441	17482
907.557	17307
907.674	17387
907.79	17322
907.907	17299
908.023	17459
908.139	17341
908.256	17261
908.372	17227
908.488	17258
908.604	17235
908.72	17025
908.836	17094
908.952	17014
909.068	17086
909.184	17132
909.3	17151
909.415	17231
909.531	17045
909.647	16866
909.762	16790
909.878	16778
909.993	16824
910.108	16831
910.224	16858
910.339	16843
910.454	16668
910.57	16592
910.685	16504
910.8	16805
910.915	16816
911.03	16660
911.145	16421
911.259	16306
911.374	16379
911.489	16390
911.604	16306
911.718	16150
911.833	16150
911.947	16029
912.062	15979
912.176	16109
912.291	16124
912.405	16082
912.519	16329
912.633	16299
912.748	16196
912.862	16059
912.976	15968
913.09	15831
913.204	15915
913.318	15937
913.431	16059
913.545	16120
913.659	16120
913.772	15800
913.886	15888
914	15736
914.113	15781
914.226	15873
914.34	15831
914.453	15652
914.566	15762
914.68	15561
914.793	15504
914.906	15435
915.019	15340
915.132	15203
915.245	15367
915.358	15351
915.47	15325
915.583	15313
915.696	15344
915.809	15367
915.921	15405
916.034	15283
916.146	15207
916.259	15173
916.371	15336
916.483	15252
916.595	15154
916.708	15260
916.82	15230
916.932	15097
917.044	15135
917.156	15085
917.268	14933
917.38	15017
917.491	14975
917.603	14963
917.715	15112
917.826	15055
917.938	14986
918.049	14807
918.161	14876
918.272	15100
918.384	15017
918.495	14921
918.606	14811
918.717	14762
918.828	14777
918.939	14693
919.05	14640
919.161	14701
919.272	14556
919.383	14598
919.494	14655
919.604	14921
919.715	14861
919.826	14670
919.936	14674
920.047	14686
920.157	14663
920.267	14864
920.378	14762
920.488	14720
920.598	14857
920.708	14963
920.818	14853
920.928	14804
921.038	14986
921.148	15001
921.258	14701
921.368	14587
921.477	14518
921.587	14404
921.697	14278
921.806	14404
921.916	14320
922.025	14134
922.134	14035
922.244	14084
922.353	14142
922.462	13860
922.571	13837
922.68	13723
922.789	13811
922.898	13772
923.007	13597
923.116	13715
923.224	13677
923.333	13647
923.442	13578
923.55	13430
923.659	13548
923.767	13689
923.876	13521
923.984	13571
924.092	13354
924.201	13556
924.309	13419
924.417	13480
924.525	13304
924.633	13422
924.741	14164
924.849	13198
924.956	13316
925.064	13152
925.172	13023
925.279	13232
925.387	13175
925.494	13168
925.602	13274
925.709	13156
925.816	12981
925.924	13034
926.031	13099
926.138	12970
926.245	13091
926.352	13015
926.459	13103
926.566	13221
926.673	13027
926.779	12878
926.886	12905
926.993	12745
927.099	12673
927.206	12627
927.312	12658
927.419	12692
927.525	12703
927.631	12722
927.737	12582
927.843	12494
927.95	12403
928.056	12547
928.162	12467
928.267	12532
928.373	13198
928.479	12601
928.585	12418
928.69	12426
928.796	12475
928.901	12330
929.007	12220
929.112	12437
929.218	12327
929.323	12216
929.428	12254
929.533	12365
929.638	12216
929.743	12114
929.848	12175
929.953	12144
930.058	12087
930.163	11893
930.267	11942
930.372	12011
930.477	11817
930.581	12114
930.685	11973
930.79	11817
930.894	11824
930.998	11786
931.103	11946
931.207	11585
931.311	11520
931.415	11372
931.519	11117
931.623	11174
