Data from test_V78500241_2307.txt Node
Date: Fri Mar 25 15:25:55 CST 2022
User: usil
Spectrometer: V785-0024
Trigger mode: 0
Integration Time (sec): 4.000000E-1
Scans to average: 1
Nonlinearity correction enabled: false
Boxcar width: 0
Storing dark spectrum: false
XAxis mode: Wavelengths
Number of Pixels in Spectrum: 1024
>>>>>Begin Spectral Data<<<<<
801.071	27226
801.214	27218
801.356	26929
801.499	26990
801.641	26712
801.783	26762
801.926	26765
802.068	26762
802.211	26823
802.353	26446
802.496	26434
802.638	26343
802.78	26358
802.923	26347
803.065	26202
803.208	26214
803.35	26282
803.492	26393
803.635	26438
803.777	26400
803.919	26419
804.061	26807
804.204	26594
804.346	26366
804.488	26438
804.63	26419
804.773	26332
804.915	26507
805.057	26640
805.199	26556
805.341	26499
805.483	26754
805.626	26613
805.768	26404
805.91	26606
806.052	26708
806.194	26530
806.336	26663
806.478	26667
806.62	26621
806.762	26663
806.904	26925
807.046	27077
807.188	27032
807.33	27070
807.472	27039
807.614	26975
807.756	26895
807.898	26929
808.04	26804
808.182	26861
808.324	26788
808.465	26975
808.607	27093
808.749	27157
808.891	27332
809.033	27317
809.174	27131
809.316	27096
809.458	27199
809.6	27188
809.741	27203
809.883	27237
810.025	27412
810.166	27393
810.308	27416
810.45	27382
810.591	27199
810.733	27192
810.875	27142
811.016	26994
811.158	27062
811.299	27268
811.441	27325
811.582	27252
811.724	27222
811.865	27089
812.007	27100
812.148	27218
812.29	27222
812.431	27408
812.573	27618
812.714	27557
812.855	27652
812.997	27686
813.138	27888
813.279	27720
813.421	27564
813.562	27656
813.703	27420
813.845	27249
813.986	27047
814.127	27001
814.268	26785
814.41	26948
814.551	26853
814.692	26883
814.833	26762
814.974	26804
815.115	26845
815.256	26598
815.397	26781
815.539	26625
815.68	26587
815.821	26507
815.962	26594
816.103	26568
816.244	26389
816.385	26343
816.526	26343
816.666	26153
816.807	26096
816.948	26119
817.089	26081
817.23	26119
817.371	26115
817.512	26073
817.653	26043
817.793	25989
817.934	26081
818.075	26069
818.216	26161
818.356	26073
818.497	25894
818.638	25712
818.778	25814
818.919	25868
819.06	25826
819.2	25951
819.341	26096
819.481	26043
819.622	26286
819.762	26480
819.903	26347
820.043	26157
820.184	26187
820.324	26240
820.465	26214
820.605	26142
820.746	26005
820.886	25959
821.026	26081
821.167	26145
821.307	26252
821.447	25993
821.588	25837
821.728	25750
821.868	25719
822.008	25658
822.149	25616
822.289	25449
822.429	25301
822.569	25171
822.709	25095
822.849	25019
822.99	25145
823.13	25114
823.27	24943
823.41	24802
823.55	24715
823.69	24916
823.83	24878
823.97	24916
824.11	24540
824.25	24635
824.389	24753
824.529	24791
824.669	24684
824.809	24703
824.949	24646
825.089	24738
825.228	24795
825.368	24559
825.508	24517
825.648	24570
825.787	24498
825.927	24570
826.067	24536
826.206	24483
826.346	24627
826.485	24490
826.625	24376
826.765	24604
826.904	24566
827.044	24216
827.183	24266
827.323	24098
827.462	24365
827.601	24266
827.741	24289
827.88	24270
828.02	24079
828.159	24258
828.298	24194
828.437	24239
828.577	24053
828.716	24281
828.855	24182
828.994	23992
829.134	23950
829.273	23950
829.412	23889
829.551	23790
829.69	23946
829.829	23946
829.968	24091
830.107	23969
830.246	24022
830.385	23836
830.524	23809
830.663	23802
830.802	23748
830.941	23642
831.08	23467
831.219	23649
831.357	23661
831.496	23729
831.635	23619
831.774	23429
831.913	23440
832.051	23440
832.19	23364
832.329	23246
832.467	23246
832.606	23060
832.744	23277
832.883	23261
833.022	23181
833.16	23273
833.299	23227
833.437	23261
833.576	23250
833.714	23330
833.852	23288
833.991	23273
834.129	23383
834.267	23292
834.406	23181
834.544	23246
834.682	23181
834.821	23170
834.959	23337
835.097	23231
835.235	23303
835.373	23254
835.511	23258
835.65	23254
835.788	23197
835.926	22980
836.064	22934
836.202	22858
836.34	23086
836.478	23185
836.615	23003
836.753	23143
836.891	23216
837.029	23223
837.167	23006
837.305	23075
837.443	23052
837.58	22938
837.718	23189
837.856	22984
837.993	22915
838.131	22968
838.269	22774
838.406	22873
838.544	22729
838.681	22565
838.819	22588
838.956	22398
839.094	22459
839.231	22489
839.369	22565
839.506	22740
839.643	22668
839.781	22447
839.918	22337
840.055	22481
840.193	22409
840.33	22318
840.467	22295
840.604	22375
840.742	22550
840.879	22223
841.016	22303
841.153	22196
841.29	22398
841.427	22379
841.564	22459
841.701	22371
841.838	22348
841.975	22192
842.112	22192
842.249	22230
842.385	22055
842.522	22253
842.659	22211
842.796	22139
842.933	22124
843.069	22017
843.206	22059
843.343	22105
843.479	22188
843.616	22105
843.752	21884
843.889	21945
844.025	22048
844.162	21766
844.298	21987
844.435	21854
844.571	21876
844.708	21835
844.844	22040
844.98	22021
845.117	21979
845.253	21930
845.389	21690
845.525	21838
845.661	21743
845.798	21580
845.934	21591
846.07	21637
846.206	21682
846.342	21705
846.478	21583
846.614	21332
846.75	21249
846.886	21298
847.022	21466
847.158	21389
847.294	21363
847.429	21397
847.565	21325
847.701	21587
847.837	21119
847.972	21032
848.108	21135
848.244	21131
848.379	20990
848.515	20868
848.65	20918
848.786	20895
848.921	20998
849.057	21024
849.192	20963
849.328	21074
849.463	20880
849.598	20979
849.734	20921
849.869	20712
850.004	20678
850.14	20739
850.275	20804
850.41	20659
850.545	20625
850.68	20674
850.815	20636
850.95	20743
851.085	20929
851.22	20781
851.355	20724
851.49	20788
851.625	20716
851.76	20606
851.895	20499
852.03	20590
852.165	20739
852.299	20621
852.434	20785
852.569	20579
852.703	20693
852.838	20724
852.973	20811
853.107	20857
853.242	20629
853.376	20533
853.511	20431
853.645	20545
853.78	20533
853.914	20648
854.048	20408
854.183	20590
854.317	20499
854.451	20765
854.585	20533
854.72	20533
854.854	20598
854.988	20541
855.122	20568
855.256	20438
855.39	20571
855.524	20583
855.658	20636
855.792	20537
855.926	20533
856.06	20590
856.194	20648
856.327	20442
856.461	20461
856.595	20450
856.729	20526
856.862	20617
856.996	20545
857.13	20545
857.263	20575
857.397	20552
857.53	20545
857.664	20587
857.797	20735
857.931	20629
858.064	20617
858.197	20648
858.331	20511
858.464	20484
858.597	20427
858.731	20438
858.864	20461
858.997	20400
859.13	20492
859.263	20606
859.396	20636
859.529	20480
859.662	20480
859.795	20533
859.928	20514
860.061	20758
860.194	20651
860.327	20655
860.46	20530
860.592	20724
860.725	20602
860.858	20583
860.99	20587
861.123	20545
861.256	20465
861.388	20564
861.521	21214
861.653	20332
861.786	20324
861.918	20457
862.05	20408
862.183	20431
862.315	20461
862.447	20511
862.58	20419
862.712	20176
862.844	20237
862.976	20305
863.108	20263
863.24	20781
863.372	20149
863.504	20347
863.636	20298
863.768	20271
863.9	20233
864.032	20225
864.164	20271
864.296	20248
864.428	20400
864.559	20298
864.691	20385
864.823	20259
864.954	20202
865.086	20320
865.217	20199
865.349	20043
865.48	20149
865.612	20301
865.743	20351
865.875	20172
866.006	20225
866.137	20126
866.269	20225
866.4	20172
866.531	20111
866.662	20005
866.793	20050
866.924	20065
867.055	20084
867.186	20050
867.317	20027
867.448	20119
867.579	20031
867.71	19989
867.841	20001
867.972	20073
868.103	20111
868.233	20103
868.364	20035
868.495	20218
868.625	20229
868.756	20431
868.886	20328
869.017	20442
869.147	20385
869.278	20457
869.408	20393
869.539	20244
869.669	20370
869.799	20298
869.929	20473
870.06	20427
870.19	20621
870.32	20590
870.45	20655
870.58	20746
870.71	20815
870.84	20800
870.97	20769
871.1	20731
871.23	20899
871.36	20883
871.489	20891
871.619	20792
871.749	20990
871.879	20982
872.008	21017
872.138	20899
872.267	21005
872.397	20758
872.526	20804
872.656	20697
872.785	20765
872.915	21032
873.044	21017
873.173	20887
873.303	20994
873.432	20998
873.561	21028
873.69	20941
873.819	20906
873.948	21043
874.077	20872
874.206	20918
874.335	20925
874.464	21005
874.593	21233
874.722	21047
874.851	21218
874.979	21211
875.108	21218
875.237	21180
875.365	21062
875.494	21150
875.623	21188
875.751	21036
875.88	21214
876.008	21230
876.136	21454
876.265	21515
876.393	21819
876.521	21736
876.65	21747
876.778	21736
876.906	21443
877.034	21530
877.162	21622
877.29	21477
877.418	21576
877.546	21553
877.674	21614
877.802	21637
877.93	21568
878.058	21492
878.185	21492
878.313	21534
878.441	21496
878.568	21412
878.696	21568
878.824	21637
878.951	21682
879.079	21671
879.206	21816
879.333	21766
879.461	21568
879.588	21660
879.715	21625
879.842	21838
879.97	21629
880.097	21275
880.224	21374
880.351	21412
880.478	21443
880.605	21272
880.732	21450
880.859	21637
880.986	21447
881.112	21344
881.239	21195
881.366	21096
881.493	21028
881.619	21024
881.746	20994
881.872	20902
881.999	20902
882.125	21032
882.252	20918
882.378	20853
882.505	21074
882.631	20777
882.757	20686
882.883	20663
883.01	20716
883.136	20609
883.262	20587
883.388	20499
883.514	20750
883.64	20705
883.766	20571
883.892	20533
884.018	20488
884.143	20674
884.269	20754
884.395	20484
884.52	20313
884.646	20358
884.772	20248
884.897	20259
885.023	20347
885.148	20408
885.274	20419
885.399	20556
885.524	20290
885.65	20256
885.775	20427
885.9	20256
886.025	20473
886.15	20370
886.275	20328
886.4	20202
886.525	20275
886.65	20221
886.775	20168
886.9	20396
887.025	20549
887.149	20358
887.274	20115
887.399	20168
887.523	20161
887.648	20157
887.773	20050
887.897	20062
888.021	20012
888.146	20092
888.27	20119
888.395	20073
888.519	20088
888.643	20153
888.767	20161
888.891	20008
889.015	19894
889.139	19936
889.263	19963
889.387	19993
889.511	20100
889.635	19997
889.759	19852
889.883	19856
890.006	19978
890.13	19913
890.254	19780
890.377	19864
890.501	19769
890.624	19647
890.748	19723
890.871	19643
890.995	19480
891.118	19438
891.241	19632
891.364	19480
891.488	19639
891.611	19480
891.734	19533
891.857	19575
891.98	19377
892.103	19495
892.226	19457
892.349	19502
892.471	19312
892.594	19407
892.717	19373
892.839	19369
892.962	19407
893.085	19460
893.207	19434
893.33	19324
893.452	19384
893.575	19476
893.697	19491
893.819	19510
893.941	19597
894.064	19567
894.186	19381
894.308	19331
894.43	19426
894.552	19559
894.674	19548
894.796	19232
894.918	19392
895.04	19335
895.161	19453
895.283	19559
895.405	19362
895.526	19491
895.648	19362
895.769	19449
895.891	19411
896.012	19419
896.134	19392
896.255	19301
896.376	19400
896.498	19388
896.619	19396
896.74	19407
896.861	19499
896.982	19841
897.103	19822
897.224	19742
897.345	19670
897.466	19552
897.587	19651
897.708	19761
897.828	19651
897.949	19457
898.07	19514
898.19	19582
898.311	19719
898.431	19700
898.552	19776
898.672	19643
898.792	19761
898.913	19605
899.033	19559
899.153	19491
899.273	19354
899.393	19384
899.513	19388
899.633	19472
899.753	19480
899.873	19293
899.993	19426
900.113	19304
900.232	19377
900.352	19327
900.472	19148
900.591	19133
900.711	19217
900.83	19099
900.95	19255
901.069	19358
901.189	19133
901.308	18810
901.427	18817
901.546	18802
901.665	18779
901.784	18894
901.904	18665
902.023	18677
902.141	18399
902.26	18403
902.379	18528
902.498	18281
902.617	18213
902.735	18308
902.854	18300
902.973	18251
903.091	18079
903.21	18019
903.328	17946
903.446	17939
903.565	17920
903.683	17821
903.801	17680
903.919	17920
904.038	17790
904.156	17562
904.274	17695
904.392	17707
904.51	17661
904.627	17627
904.745	17509
904.863	17516
904.981	17379
905.098	17155
905.216	17200
905.334	17231
905.451	17303
905.569	17117
905.686	17227
905.803	17356
905.921	16957
906.038	17136
906.155	17166
906.272	16892
906.389	16915
906.506	16786
906.623	16748
906.74	16698
906.857	16675
906.974	16694
907.091	16786
907.208	16915
907.324	16793
907.441	16668
907.557	16504
907.674	16493
907.79	16363
907.907	16489
908.023	16535
908.139	16462
908.256	16436
908.372	16382
908.488	16314
908.604	16341
908.72	16272
908.836	16257
908.952	16242
909.068	16219
909.184	16280
909.3	16124
909.415	16200
909.531	16291
909.647	16082
909.762	15884
909.878	15911
909.993	15876
910.108	15922
910.224	15846
910.339	15930
910.454	15850
910.57	15842
910.685	15641
910.8	16063
910.915	15937
911.03	15831
911.145	15538
911.259	15580
911.374	15500
911.489	15477
911.604	15393
911.718	15359
911.833	15256
911.947	15336
912.062	15146
912.176	15180
912.291	15214
912.405	15275
912.519	15466
912.633	15500
912.748	15306
912.862	15165
912.976	15169
913.09	15001
913.204	15013
913.318	15097
913.431	15184
913.545	15264
913.659	15154
913.772	15127
913.886	14944
914	14883
914.113	14948
914.226	15081
914.34	14967
914.453	14842
914.566	15005
914.68	14819
914.793	14800
914.906	14541
915.019	14541
915.132	14484
915.245	14533
915.358	14644
915.47	14583
915.583	14518
915.696	14625
915.809	14750
915.921	14625
916.034	14488
916.146	14431
916.259	14427
916.371	14522
916.483	14541
916.595	14465
916.708	14381
916.82	14347
916.932	14309
917.044	14313
917.156	14366
917.268	14256
917.38	14256
917.491	14229
917.603	14237
917.715	14347
917.826	14408
917.938	14176
918.049	14062
918.161	14233
918.272	14305
918.384	14324
918.495	14107
918.606	14100
918.717	13989
918.828	14020
918.939	14111
919.05	13917
919.161	14020
919.272	13753
919.383	13913
919.494	14077
919.604	14240
919.715	13906
919.826	13947
919.936	13947
920.047	13944
920.157	13944
920.267	14225
920.378	13864
920.488	13909
920.598	14138
920.708	14275
920.818	14130
920.928	14123
921.038	14248
921.148	14187
921.258	13868
921.368	13807
921.477	13776
921.587	13696
921.697	13666
921.806	13791
921.916	13605
922.025	13483
922.134	13320
922.244	13289
922.353	13350
922.462	13160
922.571	13236
922.68	13114
922.789	13122
922.898	13023
923.007	13000
923.116	13004
923.224	13050
923.333	12970
923.442	12901
923.55	12848
923.659	12897
923.767	12939
923.876	12844
923.984	12909
924.092	12787
924.201	12852
924.309	12829
924.417	12783
924.525	12722
924.633	12616
924.741	13651
924.849	12525
924.956	12650
925.064	12521
925.172	12418
925.279	12445
925.387	12399
925.494	12494
925.602	12646
925.709	12490
925.816	12327
925.924	12464
926.031	12441
926.138	12399
926.245	12388
926.352	12311
926.459	12494
926.566	12426
926.673	12308
926.779	12239
926.886	12197
926.993	12152
927.099	12148
927.206	11996
927.312	12015
927.419	12015
927.525	12053
927.631	12095
927.737	12003
927.843	11916
927.95	11813
928.056	11893
928.162	11897
928.267	11980
928.373	12437
928.479	11984
928.585	11767
928.69	11843
928.796	11821
928.901	11703
929.007	11547
929.112	11832
929.218	11665
929.323	11661
929.428	11695
929.533	11817
929.638	11482
929.743	11604
929.848	11577
929.953	11581
930.058	11387
930.163	11280
930.267	11326
930.372	11448
930.477	11250
930.581	11474
930.685	11353
930.79	11216
930.894	11220
930.998	11201
931.103	11311
931.207	11006
931.311	10881
931.415	10782
931.519	10649
931.623	10554
