Data from test_V78500241_2713.txt Node
Date: Fri Mar 25 15:28:45 CST 2022
User: usil
Spectrometer: V785-0024
Trigger mode: 0
Integration Time (sec): 4.000000E-1
Scans to average: 1
Nonlinearity correction enabled: false
Boxcar width: 0
Storing dark spectrum: false
XAxis mode: Wavelengths
Number of Pixels in Spectrum: 1024
>>>>>Begin Spectral Data<<<<<
801.071	27192
801.214	27070
801.356	26826
801.499	26746
801.641	26712
801.783	26629
801.926	26667
802.068	26686
802.211	26701
802.353	26625
802.496	26336
802.638	26332
802.78	26233
802.923	26233
803.065	26275
803.208	26301
803.35	26393
803.492	26526
803.635	26400
803.777	26385
803.919	26507
804.061	26773
804.204	26495
804.346	26507
804.488	26511
804.63	26495
804.773	26404
804.915	26484
805.057	26552
805.199	26495
805.341	26503
805.483	26575
805.626	26545
805.768	26632
805.91	26670
806.052	26594
806.194	26423
806.336	26731
806.478	26625
806.62	26453
806.762	26754
806.904	26823
807.046	27100
807.188	27093
807.33	26872
807.472	26910
807.614	26864
807.756	26910
807.898	26781
808.04	26686
808.182	26765
808.324	26853
808.465	26819
808.607	27039
808.749	27218
808.891	27230
809.033	27370
809.174	27169
809.316	27195
809.458	27123
809.6	27123
809.741	27287
809.883	27165
810.025	27329
810.166	27473
810.308	27306
810.45	27374
810.591	27374
810.733	27264
810.875	27123
811.016	27264
811.158	27268
811.299	27233
811.441	27348
811.582	27268
811.724	27233
811.865	27066
812.007	27195
812.148	27055
812.29	27199
812.431	27272
812.573	27473
812.714	27511
812.855	27610
812.997	27656
813.138	28044
813.279	27816
813.421	27610
813.562	27454
813.703	27443
813.845	27458
813.986	27108
814.127	26956
814.268	26925
814.41	26880
814.551	26868
814.692	26868
814.833	26720
814.974	26674
815.115	26902
815.256	26613
815.397	26746
815.539	26895
815.68	26530
815.821	26644
815.962	26575
816.103	26560
816.244	26434
816.385	26461
816.526	26427
816.666	26214
816.807	25963
816.948	26183
817.089	26142
817.23	26130
817.371	26122
817.512	26126
817.653	26077
817.793	26069
817.934	26092
818.075	26024
818.216	26103
818.356	26027
818.497	25974
818.638	25826
818.778	25803
818.919	25845
819.06	25807
819.2	25970
819.341	26039
819.481	26130
819.622	26176
819.762	26347
819.903	26370
820.043	26229
820.184	26164
820.324	26157
820.465	26088
820.605	26183
820.746	26161
820.886	26039
821.026	26218
821.167	26210
821.307	26282
821.447	26043
821.588	25818
821.728	25925
821.868	25651
822.008	25696
822.149	25712
822.289	25548
822.429	25304
822.569	25282
822.709	25232
822.849	24981
822.99	25156
823.13	25057
823.27	24894
823.41	25000
823.55	24783
823.69	24840
823.83	24772
823.97	24821
824.11	24661
824.25	24589
824.389	24700
824.529	24768
824.669	24665
824.809	24768
824.949	24779
825.089	24722
825.228	24688
825.368	24437
825.508	24422
825.648	24502
825.787	24582
825.927	24677
826.067	24620
826.206	24585
826.346	24593
826.485	24707
826.625	24711
826.765	24620
826.904	24528
827.044	24445
827.183	24376
827.323	24350
827.462	24292
827.601	24243
827.741	24311
827.88	24190
828.02	24125
828.159	24254
828.298	24323
828.437	24369
828.577	24232
828.716	24308
828.855	24045
828.994	23908
829.134	23912
829.273	23863
829.412	24041
829.551	23809
829.69	23882
829.829	24030
829.968	24053
830.107	24057
830.246	23935
830.385	23939
830.524	23866
830.663	23786
830.802	23707
830.941	23585
831.08	23535
831.219	23661
831.357	23585
831.496	23710
831.635	23585
831.774	23452
831.913	23429
832.051	23410
832.19	23322
832.329	23440
832.467	23269
832.606	23227
832.744	23178
832.883	23334
833.022	23098
833.16	23288
833.299	23326
833.437	23376
833.576	23356
833.714	23337
833.852	23299
833.991	23368
834.129	23433
834.267	23311
834.406	23383
834.544	23356
834.682	23250
834.821	23307
834.959	23406
835.097	23292
835.235	23364
835.373	23151
835.511	23250
835.65	23048
835.788	23151
835.926	22980
836.064	23041
836.202	23025
836.34	23166
836.478	23197
836.615	23166
836.753	23170
836.891	23242
837.029	23102
837.167	23003
837.305	23132
837.443	22991
837.58	22987
837.718	23128
837.856	23041
837.993	22949
838.131	22908
838.269	22904
838.406	22820
838.544	22797
838.681	22611
838.819	22641
838.956	22500
839.094	22531
839.231	22462
839.369	22580
839.506	22843
839.643	22858
839.781	22470
839.918	22443
840.055	22409
840.193	22485
840.33	22535
840.467	22402
840.604	22447
840.742	22702
840.879	22413
841.016	22295
841.153	22207
841.29	22535
841.427	22497
841.564	22382
841.701	22322
841.838	22291
841.975	22226
842.112	22238
842.249	22291
842.385	22150
842.522	22478
842.659	22287
842.796	22181
842.933	22070
843.069	22211
843.206	22101
843.343	22257
843.479	22131
843.616	22192
843.752	22074
843.889	21964
844.025	22063
844.162	22143
844.298	22120
844.435	21953
844.571	21949
844.708	21972
844.844	22086
844.98	22032
845.117	21915
845.253	21854
845.389	21865
845.525	21819
845.661	21781
845.798	21720
845.934	21823
846.07	21633
846.206	21682
846.342	21793
846.478	21614
846.614	21572
846.75	21462
846.886	21401
847.022	21443
847.158	21405
847.294	21439
847.429	21526
847.565	21302
847.701	21652
847.837	21096
847.972	21279
848.108	21184
848.244	21188
848.379	21036
848.515	21024
848.65	21058
848.786	21085
848.921	21085
849.057	21104
849.192	21062
849.328	21096
849.463	21009
849.598	20868
849.734	20800
849.869	20948
850.004	20842
850.14	20800
850.275	20754
850.41	20724
850.545	20682
850.68	20686
850.815	20864
850.95	20826
851.085	20868
851.22	20914
851.355	20895
851.49	20746
851.625	20800
851.76	20796
851.895	20838
852.03	20765
852.165	20731
852.299	20819
852.434	20929
852.569	20845
852.703	20773
852.838	20838
852.973	20895
853.107	20956
853.242	20705
853.376	20648
853.511	20446
853.645	20621
853.78	20902
853.914	20663
854.048	20454
854.183	20549
854.317	20571
854.451	20750
854.585	20602
854.72	20495
854.854	20712
854.988	20503
855.122	20606
855.256	20518
855.39	20590
855.524	20670
855.658	20648
855.792	20598
855.926	20731
856.06	20697
856.194	20617
856.327	20568
856.461	20533
856.595	20590
856.729	20488
856.862	20708
856.996	20526
857.13	20670
857.263	20651
857.397	20636
857.53	20621
857.664	20579
857.797	20667
857.931	20609
858.064	20499
858.197	20705
858.331	20530
858.464	20564
858.597	20476
858.731	20507
858.864	20549
858.997	20514
859.13	20640
859.263	20571
859.396	20655
859.529	20541
859.662	20480
859.795	20533
859.928	20701
860.061	20674
860.194	20716
860.327	20655
860.46	20636
860.592	20648
860.725	20853
860.858	20731
860.99	20667
861.123	20522
861.256	20613
861.388	20689
861.521	21169
861.653	20412
861.786	20438
861.918	20412
862.05	20488
862.183	20457
862.315	20556
862.447	20583
862.58	20632
862.712	20278
862.844	20313
862.976	20393
863.108	20438
863.24	20861
863.372	20351
863.504	20381
863.636	20317
863.768	20514
863.9	20355
864.032	20381
864.164	20355
864.296	20309
864.428	20332
864.559	20404
864.691	20415
864.823	20377
864.954	20461
865.086	20408
865.217	20092
865.349	20256
865.48	20263
865.612	20290
865.743	20385
865.875	20210
866.006	20233
866.137	20149
866.269	20237
866.4	20202
866.531	20252
866.662	20172
866.793	20126
866.924	20115
867.055	20172
867.186	20240
867.317	20275
867.448	20039
867.579	20073
867.71	20138
867.841	20084
867.972	20199
868.103	20191
868.233	20145
868.364	20305
868.495	20305
868.625	20343
868.756	20606
868.886	20358
869.017	20461
869.147	20617
869.278	20549
869.408	20412
869.539	20408
869.669	20450
869.799	20469
869.929	20568
870.06	20499
870.19	20743
870.32	20792
870.45	20640
870.58	20811
870.71	20910
870.84	20823
870.97	20765
871.1	20731
871.23	20925
871.36	21089
871.489	21001
871.619	20906
871.749	20956
871.879	21058
872.008	21036
872.138	21036
872.267	20899
872.397	20788
872.526	20815
872.656	20952
872.785	20785
872.915	21085
873.044	21020
873.173	21055
873.303	21020
873.432	21058
873.561	21123
873.69	21005
873.819	21032
873.948	21112
874.077	21081
874.206	21047
874.335	21066
874.464	21028
874.593	21294
874.722	21195
874.851	21340
874.979	21329
875.108	21321
875.237	21237
875.365	21119
875.494	21359
875.623	21477
875.751	21203
875.88	21245
876.008	21382
876.136	21462
876.265	21694
876.393	21781
876.521	21690
876.65	21736
876.778	21576
876.906	21473
877.034	21576
877.162	21690
877.29	21542
877.418	21705
877.546	21622
877.674	21542
877.802	21576
877.93	21755
878.058	21698
878.185	21462
878.313	21679
878.441	21561
878.568	21485
878.696	21568
878.824	21774
878.951	21732
879.079	21865
879.206	21949
879.333	21854
879.461	21663
879.588	21690
879.715	21774
879.842	21956
879.97	21694
880.097	21561
880.224	21473
880.351	21507
880.478	21439
880.605	21511
880.732	21530
880.859	21557
880.986	21576
881.112	21428
881.239	21260
881.366	21230
881.493	21089
881.619	21055
881.746	21089
881.872	21146
881.999	21066
882.125	20971
882.252	21047
882.378	21085
882.505	21093
882.631	20941
882.757	20716
882.883	20762
883.01	20765
883.136	20811
883.262	20617
883.388	20495
883.514	20743
883.64	20861
883.766	20587
883.892	20583
884.018	20537
884.143	20758
884.269	20796
884.395	20427
884.52	20442
884.646	20434
884.772	20339
884.897	20301
885.023	20438
885.148	20476
885.274	20556
885.399	20450
885.524	20419
885.65	20446
885.775	20499
885.9	20404
886.025	20370
886.15	20526
886.275	20324
886.4	20237
886.525	20423
886.65	20336
886.775	20271
886.9	20537
887.025	20583
887.149	20240
887.274	20199
887.399	20065
887.523	20115
887.648	20115
887.773	20092
887.897	20214
888.021	20164
888.146	20088
888.27	20278
888.395	20290
888.519	20134
888.643	20183
888.767	20324
888.891	20084
889.015	19967
889.139	20096
889.263	20031
889.387	19951
889.511	20103
889.635	20157
889.759	19906
889.883	19940
890.006	19993
890.13	20024
890.254	19894
890.377	19978
890.501	19750
890.624	19723
890.748	19818
890.871	19655
890.995	19666
891.118	19518
891.241	19677
891.364	19575
891.488	19685
891.611	19594
891.734	19616
891.857	19502
891.98	19514
892.103	19540
892.226	19655
892.349	19506
892.471	19407
892.594	19559
892.717	19544
892.839	19480
892.962	19525
893.085	19567
893.207	19540
893.33	19381
893.452	19358
893.575	19499
893.697	19499
893.819	19544
893.941	19624
894.064	19559
894.186	19362
894.308	19384
894.43	19578
894.552	19738
894.674	19559
894.796	19343
894.918	19635
895.04	19464
895.161	19537
895.283	19556
895.405	19457
895.526	19510
895.648	19472
895.769	19521
895.891	19521
896.012	19525
896.134	19434
896.255	19575
896.376	19373
896.498	19453
896.619	19476
896.74	19499
896.861	19548
896.982	19887
897.103	19833
897.224	19670
897.345	19662
897.466	19670
897.587	19746
897.708	19803
897.828	19753
897.949	19677
898.07	19499
898.19	19563
898.311	19837
898.431	19594
898.552	19799
898.672	19814
898.792	19826
898.913	19704
899.033	19582
899.153	19548
899.273	19445
899.393	19670
899.513	19582
899.633	19537
899.753	19556
899.873	19491
899.993	19506
900.113	19514
900.232	19415
900.352	19445
900.472	19365
900.591	19285
900.711	19206
900.83	19137
900.95	19373
901.069	19339
901.189	19114
901.308	18913
901.427	18821
901.546	18802
901.665	18848
901.784	18795
901.904	18639
902.023	18585
902.141	18471
902.26	18395
902.379	18566
902.498	18292
902.617	18292
902.735	18456
902.854	18346
902.973	18323
903.091	18064
903.21	18015
903.328	18034
903.446	17939
903.565	17935
903.683	17935
903.801	17745
903.919	17851
904.038	17893
904.156	17649
904.274	17672
904.392	17649
904.51	17699
904.627	17680
904.745	17634
904.863	17798
904.981	17505
905.098	17235
905.216	17326
905.334	17311
905.451	17368
905.569	17330
905.686	17280
905.803	17258
905.921	17155
906.038	17147
906.155	17136
906.272	17109
906.389	17098
906.506	16744
906.623	16816
906.74	16968
906.857	16771
906.974	16752
907.091	16858
907.208	17052
907.324	16919
907.441	16702
907.557	16565
907.674	16584
907.79	16386
907.907	16565
908.023	16649
908.139	16535
908.256	16519
908.372	16432
908.488	16500
908.604	16325
908.72	16261
908.836	16314
908.952	16322
909.068	16344
909.184	16451
909.3	16303
909.415	16341
909.531	16352
909.647	16116
909.762	16082
909.878	15991
909.993	16055
910.108	16013
910.224	15922
910.339	15934
910.454	15857
910.57	15876
910.685	15743
910.8	15979
910.915	15922
911.03	15819
911.145	15629
911.259	15572
911.374	15759
911.489	15618
911.604	15412
911.718	15325
911.833	15306
911.947	15325
912.062	15306
912.176	15466
912.291	15458
912.405	15496
912.519	15648
912.633	15542
912.748	15466
912.862	15336
912.976	15184
913.09	15100
913.204	15199
913.318	15226
913.431	15214
913.545	15218
913.659	15230
913.772	15180
913.886	14937
914	14906
914.113	15112
914.226	15009
914.34	15066
914.453	14891
914.566	14979
914.68	14823
914.793	14895
914.906	14651
915.019	14682
915.132	14640
915.245	14689
915.358	14632
915.47	14705
915.583	14503
915.696	14663
915.809	14765
915.921	14746
916.034	14511
916.146	14400
916.259	14419
916.371	14526
916.483	14571
916.595	14396
916.708	14568
916.82	14415
916.932	14469
917.044	14419
917.156	14396
917.268	14275
917.38	14366
917.491	14248
917.603	14282
917.715	14377
917.826	14404
917.938	14347
918.049	14206
918.161	14301
918.272	14313
918.384	14347
918.495	14221
918.606	14012
918.717	13993
918.828	14081
918.939	14027
919.05	14012
919.161	14096
919.272	13818
919.383	13856
919.494	14073
919.604	14199
919.715	14111
919.826	13951
919.936	14031
920.047	14240
920.157	14069
920.267	14202
920.378	14081
920.488	14005
920.598	14271
920.708	14271
920.818	14119
920.928	14153
921.038	14355
921.148	14191
921.258	14039
921.368	13845
921.477	13799
921.587	13772
921.697	13613
921.806	13826
921.916	13624
922.025	13491
922.134	13426
922.244	13415
922.353	13529
922.462	13327
922.571	13236
922.68	13129
922.789	13110
922.898	13027
923.007	13038
923.116	13099
923.224	13110
923.333	12943
923.442	12821
923.55	12966
923.659	12966
923.767	13038
923.876	12833
923.984	12993
924.092	12722
924.201	12897
924.309	12768
924.417	12779
924.525	12753
924.633	12772
924.741	13655
924.849	12551
924.956	12684
925.064	12544
925.172	12448
925.279	12532
925.387	12475
925.494	12502
925.602	12688
925.709	12566
925.816	12369
925.924	12422
926.031	12532
926.138	12479
926.245	12566
926.352	12391
926.459	12574
926.566	12502
926.673	12372
926.779	12403
926.886	12270
926.993	12175
927.099	12121
927.206	12030
927.312	12038
927.419	12053
927.525	12064
927.631	12098
927.737	12003
927.843	11904
927.95	11824
928.056	11908
928.162	11927
928.267	11984
928.373	12448
928.479	11969
928.585	11805
928.69	11794
928.796	11920
928.901	11828
929.007	11581
929.112	11794
929.218	11790
929.323	11634
929.428	11649
929.533	11752
929.638	11570
929.743	11604
929.848	11703
929.953	11589
930.058	11543
930.163	11349
930.267	11337
930.372	11474
930.477	11376
930.581	11547
930.685	11322
930.79	11181
930.894	11280
930.998	11235
931.103	11376
931.207	11094
931.311	11006
931.415	10881
931.519	10660
931.623	10645
