Data from test_V78500241_3579.txt Node
Date: Fri Mar 25 15:34:46 CST 2022
User: usil
Spectrometer: V785-0024
Trigger mode: 0
Integration Time (sec): 4.000000E-1
Scans to average: 1
Nonlinearity correction enabled: false
Boxcar width: 0
Storing dark spectrum: false
XAxis mode: Wavelengths
Number of Pixels in Spectrum: 1024
>>>>>Begin Spectral Data<<<<<
801.071	27344
801.214	27351
801.356	27077
801.499	27173
801.641	26956
801.783	26960
801.926	26960
802.068	26823
802.211	26754
802.353	26861
802.496	26617
802.638	26648
802.78	26571
802.923	26317
803.065	26438
803.208	26503
803.35	26598
803.492	26712
803.635	26762
803.777	26678
803.919	26716
804.061	27192
804.204	26724
804.346	26644
804.488	26594
804.63	26765
804.773	26587
804.915	26579
805.057	26731
805.199	26663
805.341	26823
805.483	26815
805.626	26838
805.768	26762
805.91	26800
806.052	26720
806.194	26678
806.336	27005
806.478	26701
806.62	26689
806.762	26834
806.904	27066
807.046	27252
807.188	27199
807.33	27241
807.472	27245
807.614	27146
807.756	27138
807.898	27085
808.04	26937
808.182	26956
808.324	26994
808.465	27028
808.607	27317
808.749	27500
808.891	27515
809.033	27591
809.174	27454
809.316	27408
809.458	27431
809.6	27412
809.741	27504
809.883	27492
810.025	27610
810.166	27698
810.308	27728
810.45	27583
810.591	27580
810.733	27500
810.875	27420
811.016	27241
811.158	27363
811.299	27473
811.441	27488
811.582	27526
811.724	27416
811.865	27161
812.007	27424
812.148	27374
812.29	27507
812.431	27652
812.573	27728
812.714	27652
812.855	27850
812.997	28055
813.138	28101
813.279	27941
813.421	27903
813.562	27869
813.703	27587
813.845	27583
813.986	27393
814.127	27226
814.268	27119
814.41	27116
814.551	27051
814.692	27142
814.833	27028
814.974	26906
815.115	27150
815.256	26842
815.397	26937
815.539	26990
815.68	26826
815.821	26800
815.962	26815
816.103	26849
816.244	26708
816.385	26648
816.526	26564
816.666	26514
816.807	26301
816.948	26400
817.089	26473
817.23	26431
817.371	26347
817.512	26362
817.653	26275
817.793	26259
817.934	26427
818.075	26317
818.216	26343
818.356	26271
818.497	26191
818.638	26172
818.778	26096
818.919	26043
819.06	26111
819.2	26161
819.341	26183
819.481	26195
819.622	26434
819.762	26716
819.903	26412
820.043	26370
820.184	26423
820.324	26320
820.465	26393
820.605	26552
820.746	26282
820.886	26339
821.026	26423
821.167	26408
821.307	26404
821.447	26252
821.588	26221
821.728	26096
821.868	25978
822.008	25788
822.149	25894
822.289	25651
822.429	25575
822.569	25476
822.709	25343
822.849	25373
822.99	25274
823.13	25206
823.27	25255
823.41	25152
823.55	25095
823.69	25145
823.83	25114
823.97	25061
824.11	24951
824.25	24928
824.389	24973
824.529	25004
824.669	24833
824.809	24962
824.949	24951
825.089	25008
825.228	24981
825.368	24878
825.508	24859
825.648	24646
825.787	24913
825.927	24924
826.067	24726
826.206	24810
826.346	24852
826.485	24856
826.625	24798
826.765	24878
826.904	24875
827.044	24639
827.183	24738
827.323	24551
827.462	24566
827.601	24464
827.741	24441
827.88	24525
828.02	24544
828.159	24502
828.298	24540
828.437	24528
828.577	24490
828.716	24559
828.855	24380
828.994	24197
829.134	24205
829.273	24247
829.412	24106
829.551	24323
829.69	24243
829.829	24327
829.968	24304
830.107	24262
830.246	24289
830.385	24194
830.524	24060
830.663	24163
830.802	24148
830.941	23828
831.08	23752
831.219	23942
831.357	24038
831.496	24072
831.635	23802
831.774	23817
831.913	23748
832.051	23726
832.19	23577
832.329	23596
832.467	23512
832.606	23558
832.744	23467
832.883	23501
833.022	23539
833.16	23493
833.299	23509
833.437	23539
833.576	23627
833.714	23524
833.852	23737
833.991	23615
834.129	23699
834.267	23714
834.406	23676
834.544	23638
834.682	23516
834.821	23646
834.959	23722
835.097	23490
835.235	23573
835.373	23558
835.511	23531
835.65	23471
835.788	23414
835.926	23284
836.064	23166
836.202	23105
836.34	23398
836.478	23509
836.615	23421
836.753	23345
836.891	23467
837.029	23421
837.167	23402
837.305	23273
837.443	23391
837.58	23208
837.718	23372
837.856	23417
837.993	23296
838.131	23288
838.269	23041
838.406	23239
838.544	23075
838.681	23037
838.819	22919
838.956	22797
839.094	22835
839.231	22812
839.369	23052
839.506	23212
839.643	23041
839.781	22790
839.918	22839
840.055	22873
840.193	22790
840.33	22717
840.467	22668
840.604	22782
840.742	22984
840.879	22592
841.016	22656
841.153	22656
841.29	22889
841.427	22679
841.564	22733
841.701	22858
841.838	22664
841.975	22733
842.112	22637
842.249	22630
842.385	22424
842.522	22752
842.659	22535
842.796	22508
842.933	22447
843.069	22500
843.206	22421
843.343	22462
843.479	22485
843.616	22531
843.752	22226
843.889	22375
844.025	22341
844.162	22272
844.298	22314
844.435	22070
844.571	22207
844.708	22303
844.844	22337
844.98	22310
845.117	22344
845.253	22268
845.389	22154
845.525	22128
845.661	22063
845.798	22082
845.934	22048
846.07	21968
846.206	22032
846.342	22253
846.478	22048
846.614	21846
846.75	21698
846.886	21713
847.022	21846
847.158	21713
847.294	21831
847.429	21755
847.565	21679
847.701	21876
847.837	21431
847.972	21374
848.108	21606
848.244	21469
848.379	21412
848.515	21355
848.65	21287
848.786	21359
848.921	21481
849.057	21386
849.192	21363
849.328	21291
849.463	21275
849.598	21313
849.734	21211
849.869	21180
850.004	21058
850.14	21157
850.275	21020
850.41	21051
850.545	21085
850.68	21047
850.815	21104
850.95	21009
851.085	21344
851.22	21138
851.355	21195
851.49	20986
851.625	21001
851.76	21096
851.895	21024
852.03	20944
852.165	21051
852.299	21039
852.434	21058
852.569	21150
852.703	21066
852.838	21017
852.973	21192
853.107	21169
853.242	21100
853.376	20921
853.511	20769
853.645	20902
853.78	21089
853.914	20933
854.048	20883
854.183	20823
854.317	21001
854.451	21112
854.585	20990
854.72	20838
854.854	21005
854.988	20876
855.122	20902
855.256	20838
855.39	20918
855.524	20880
855.658	20933
855.792	21077
855.926	20895
856.06	20842
856.194	21001
856.327	21047
856.461	20807
856.595	20811
856.729	20815
856.862	20944
856.996	20872
857.13	21051
857.263	21009
857.397	21047
857.53	20975
857.664	20998
857.797	21028
857.931	21009
858.064	20982
858.197	21055
858.331	20834
858.464	20861
858.597	20804
858.731	20880
858.864	20842
858.997	20925
859.13	20819
859.263	20921
859.396	21032
859.529	20910
859.662	20823
859.795	20891
859.928	20948
860.061	21074
860.194	21013
860.327	21020
860.46	20883
860.592	20948
860.725	20998
860.858	20956
860.99	20864
861.123	20739
861.256	20845
861.388	20788
861.521	21679
861.653	20765
861.786	20640
861.918	20731
862.05	20819
862.183	20868
862.315	20861
862.447	20952
862.58	20765
862.712	20621
862.844	20670
862.976	20731
863.108	20651
863.24	21055
863.372	20629
863.504	20629
863.636	20670
863.768	20788
863.9	20674
864.032	20579
864.164	20625
864.296	20621
864.428	20762
864.559	20689
864.691	20716
864.823	20629
864.954	20629
865.086	20549
865.217	20530
865.349	20408
865.48	20442
865.612	20522
865.743	20522
865.875	20492
866.006	20480
866.137	20587
866.269	20541
866.4	20473
866.531	20442
866.662	20370
866.793	20438
866.924	20442
867.055	20545
867.186	20492
867.317	20495
867.448	20427
867.579	20556
867.71	20423
867.841	20343
867.972	20438
868.103	20495
868.233	20533
868.364	20465
868.495	20465
868.625	20663
868.756	20834
868.886	20632
869.017	20667
869.147	20925
869.278	20777
869.408	20701
869.539	20682
869.669	20743
869.799	20796
869.929	20876
870.06	20891
870.19	20902
870.32	20994
870.45	21066
870.58	21089
870.71	21275
870.84	21264
870.97	21146
871.1	21066
871.23	21211
871.36	21310
871.489	21146
871.619	21176
871.749	21431
871.879	21412
872.008	21313
872.138	21492
872.267	21268
872.397	21222
872.526	21218
872.656	21165
872.785	21195
872.915	21195
873.044	21363
873.173	21408
873.303	21374
873.432	21363
873.561	21439
873.69	21275
873.819	21302
873.948	21363
874.077	21336
874.206	21199
874.335	21287
874.464	21488
874.593	21644
874.722	21458
874.851	21637
874.979	21564
875.108	21679
875.237	21515
875.365	21443
875.494	21526
875.623	21728
875.751	21515
875.88	21660
876.008	21694
876.136	21778
876.265	22017
876.393	22013
876.521	22147
876.65	21994
876.778	21880
876.906	21926
877.034	21899
877.162	22112
877.29	21994
877.418	21941
877.546	21956
877.674	21983
877.802	21926
877.93	21964
878.058	21876
878.185	21739
878.313	21926
878.441	21937
878.568	21800
878.696	21941
878.824	21975
878.951	21983
879.079	21994
879.206	22299
879.333	22040
879.461	21922
879.588	21998
879.715	21998
879.842	22131
879.97	22032
880.097	21819
880.224	21682
880.351	21846
880.478	21770
880.605	21747
880.732	21854
880.859	22025
880.986	21701
881.112	21751
881.239	21530
881.366	21625
881.493	21488
881.619	21249
881.746	21355
881.872	21397
881.999	21264
882.125	21351
882.252	21431
882.378	21256
882.505	21287
882.631	21199
882.757	21169
882.883	21329
883.01	21081
883.136	20941
883.262	20971
883.388	20891
883.514	20994
883.64	21009
883.766	21036
883.892	20918
884.018	20967
884.143	21036
884.269	21157
884.395	20853
884.52	20712
884.646	20629
884.772	20712
884.897	20636
885.023	20788
885.148	20758
885.274	20853
885.399	20701
885.524	20705
885.65	20636
885.775	20655
885.9	20579
886.025	20823
886.15	20674
886.275	20689
886.4	20457
886.525	20670
886.65	20587
886.775	20655
886.9	20735
887.025	20838
887.149	20606
887.274	20412
887.399	20541
887.523	20454
887.648	20381
887.773	20339
887.897	20549
888.021	20492
888.146	20328
888.27	20503
888.395	20503
888.519	20431
888.643	20469
888.767	20545
888.891	20305
889.015	20172
889.139	20332
889.263	20263
889.387	20438
889.511	20514
889.635	20313
889.759	20180
889.883	20298
890.006	20332
890.13	20336
890.254	20275
890.377	20267
890.501	20145
890.624	19871
890.748	19951
890.871	19944
890.995	19826
891.118	19849
891.241	19700
891.364	19860
891.488	19913
891.611	19883
891.734	19909
891.857	19928
891.98	19795
892.103	19894
892.226	19784
892.349	19666
892.471	19681
892.594	19734
892.717	19674
892.839	19769
892.962	19677
893.085	19841
893.207	19795
893.33	19586
893.452	19761
893.575	19807
893.697	19803
893.819	19833
893.941	19936
894.064	19868
894.186	19731
894.308	19696
894.43	19871
894.552	19822
894.674	19826
894.796	19594
894.918	19662
895.04	19784
895.161	19852
895.283	19811
895.405	19799
895.526	19681
895.648	19571
895.769	19909
895.891	19731
896.012	19826
896.134	19830
896.255	19753
896.376	19845
896.498	19795
896.619	19795
896.74	19666
896.861	19887
896.982	20005
897.103	20328
897.224	19978
897.345	19997
897.466	19906
897.587	19951
897.708	20035
897.828	20058
897.949	20008
898.07	19742
898.19	19887
898.311	20027
898.431	19974
898.552	19970
898.672	19944
898.792	20050
898.913	20035
899.033	19906
899.153	19723
899.273	19643
899.393	19700
899.513	19795
899.633	19685
899.753	19761
899.873	19518
899.993	19704
900.113	19655
900.232	19666
900.352	19575
900.472	19567
900.591	19495
900.711	19559
900.83	19510
900.95	19472
901.069	19510
901.189	19316
901.308	19168
901.427	19091
901.546	19145
901.665	19133
901.784	19031
901.904	18962
902.023	18973
902.141	18589
902.26	18692
902.379	18650
902.498	18547
902.617	18509
902.735	18696
902.854	18513
902.973	18486
903.091	18251
903.21	18228
903.328	18121
903.446	18041
903.565	18098
903.683	18121
903.801	18003
903.919	18011
904.038	18083
904.156	17946
904.274	17931
904.392	17901
904.51	17786
904.627	17893
904.745	17840
904.863	17897
904.981	17657
905.098	17493
905.216	17539
905.334	17547
905.451	17619
905.569	17516
905.686	17615
905.803	17452
905.921	17288
906.038	17505
906.155	17250
906.272	17227
906.389	17307
906.506	17075
906.623	17090
906.74	17094
906.857	17056
906.974	17083
907.091	17147
907.208	17216
907.324	17006
907.441	16980
907.557	16915
907.674	16866
907.79	16763
907.907	16744
908.023	16858
908.139	16782
908.256	16725
908.372	16717
908.488	16607
908.604	16615
908.72	16554
908.836	16455
908.952	16436
909.068	16474
909.184	16664
909.3	16504
909.415	16432
909.531	16352
909.647	16211
909.762	16341
909.878	16112
909.993	16200
910.108	16128
910.224	16166
910.339	16154
910.454	16006
910.57	16006
910.685	15960
910.8	16268
910.915	16181
911.03	16006
911.145	15819
911.259	15884
911.374	15812
911.489	15808
911.604	15698
911.718	15667
911.833	15584
911.947	15462
912.062	15466
912.176	15595
912.291	15580
912.405	15572
912.519	15755
912.633	15785
912.748	15606
912.862	15599
912.976	15431
913.09	15313
913.204	15359
913.318	15450
913.431	15485
913.545	15500
913.659	15572
913.772	15435
913.886	15180
914	15116
914.113	15291
914.226	15378
914.34	15211
914.453	15081
914.566	15268
914.68	15112
914.793	15058
914.906	14807
915.019	14804
915.132	14769
915.245	14739
915.358	14796
915.47	14826
915.583	14914
915.696	14910
915.809	14941
915.921	14986
916.034	14777
916.146	14750
916.259	14701
916.371	14735
916.483	14758
916.595	14670
916.708	14743
916.82	14701
916.932	14667
917.044	14629
917.156	14594
917.268	14362
917.38	14507
917.491	14492
917.603	14423
917.715	14530
917.826	14602
917.938	14427
918.049	14309
918.161	14461
918.272	14564
918.384	14648
918.495	14438
918.606	14362
918.717	14237
918.828	14347
918.939	14240
919.05	14237
919.161	14244
919.272	13974
919.383	14054
919.494	14237
919.604	14377
919.715	14294
919.826	14164
919.936	14267
920.047	14286
920.157	14142
920.267	14415
920.378	14191
920.488	14237
920.598	14298
920.708	14492
920.818	14362
920.928	14286
921.038	14503
921.148	14450
921.258	14096
921.368	14005
921.477	13993
921.587	13909
921.697	13849
921.806	13955
921.916	13852
922.025	13689
922.134	13662
922.244	13514
922.353	13655
922.462	13544
922.571	13468
922.68	13350
922.789	13289
922.898	13327
923.007	13209
923.116	13282
923.224	13209
923.333	13297
923.442	13114
923.55	13057
923.659	13080
923.767	13171
923.876	13065
923.984	13095
924.092	12913
924.201	13031
924.309	12970
924.417	12958
924.525	13015
924.633	12913
924.741	13807
924.849	12738
924.956	12920
925.064	12741
925.172	12654
925.279	12719
925.387	12642
925.494	12700
925.602	12738
925.709	12703
925.816	12570
925.924	12597
926.031	12722
926.138	12639
926.245	12711
926.352	12563
926.459	12753
926.566	12662
926.673	12604
926.779	12498
926.886	12452
926.993	12353
927.099	12277
927.206	12163
927.312	12159
927.419	12292
927.525	12117
927.631	12232
927.737	12125
927.843	12079
927.95	12079
928.056	12114
928.162	12171
928.267	12155
928.373	12654
928.479	12114
928.585	11942
928.69	12034
928.796	12106
928.901	11942
929.007	11847
929.112	11882
929.218	11931
929.323	11809
929.428	11866
929.533	11931
929.638	11790
929.743	11802
929.848	11794
929.953	11798
930.058	11653
930.163	11551
930.267	11562
930.372	11600
930.477	11512
930.581	11684
930.685	11512
930.79	11433
930.894	11501
930.998	11376
931.103	11501
931.207	11185
931.311	11136
931.415	10980
931.519	10740
931.623	10782
