Data from test_V78500241_246.txt Node
Date: Fri Mar 25 15:11:34 CST 2022
User: usil
Spectrometer: V785-0024
Trigger mode: 0
Integration Time (sec): 4.000000E-1
Scans to average: 1
Nonlinearity correction enabled: false
Boxcar width: 0
Storing dark spectrum: false
XAxis mode: Wavelengths
Number of Pixels in Spectrum: 1024
>>>>>Begin Spectral Data<<<<<
801.071	28246
801.214	28223
801.356	27934
801.499	27975
801.641	27903
801.783	27842
801.926	27808
802.068	27842
802.211	27797
802.353	27603
802.496	27530
802.638	27466
802.78	27511
802.923	27363
803.065	27447
803.208	27310
803.35	27542
803.492	27488
803.635	27648
803.777	27496
803.919	27694
804.061	27926
804.204	27679
804.346	27401
804.488	27447
804.63	27515
804.773	27363
804.915	27633
805.057	27545
805.199	27652
805.341	27648
805.483	27709
805.626	27469
805.768	27568
805.91	27580
806.052	27682
806.194	27561
806.336	27922
806.478	27713
806.62	27656
806.762	27884
806.904	27979
807.046	28185
807.188	28067
807.33	28044
807.472	28135
807.614	27960
807.756	28029
807.898	27922
808.04	27766
808.182	27789
808.324	27895
808.465	27983
808.607	28036
808.749	28139
808.891	28356
809.033	28401
809.174	28436
809.316	28173
809.458	28112
809.6	28139
809.741	28375
809.883	28154
810.025	28478
810.166	28516
810.308	28561
810.45	28512
810.591	28497
810.733	28291
810.875	28219
811.016	28196
811.158	28055
811.299	28112
811.441	28306
811.582	28215
811.724	28211
811.865	28173
812.007	28196
812.148	28230
812.29	28318
812.431	28447
812.573	28390
812.714	28603
812.855	28733
812.997	28721
813.138	28888
813.279	28691
813.421	28774
813.562	28656
813.703	28565
813.845	28527
813.986	28051
814.127	28006
814.268	27846
814.41	27827
814.551	27812
814.692	27880
814.833	27720
814.974	27804
815.115	27930
815.256	27610
815.397	27709
815.539	27713
815.68	27606
815.821	27519
815.962	27728
816.103	27603
816.244	27329
816.385	27393
816.526	27424
816.666	27355
816.807	26979
816.948	27180
817.089	27142
817.23	27028
817.371	26963
817.512	27199
817.653	26967
817.793	27055
817.934	27058
818.075	26830
818.216	27032
818.356	26990
818.497	26864
818.638	26686
818.778	26792
818.919	26785
819.06	26857
819.2	26895
819.341	26986
819.481	26956
819.622	27195
819.762	27344
819.903	27218
820.043	27207
820.184	27043
820.324	27173
820.465	27119
820.605	27154
820.746	27165
820.886	26975
821.026	27226
821.167	27028
821.307	27058
821.447	27070
821.588	26811
821.728	26716
821.868	26583
822.008	26571
822.149	26476
822.289	26488
822.429	26172
822.569	26161
822.709	26278
822.849	25887
822.99	25932
823.13	25913
823.27	26001
823.41	25753
823.55	25696
823.69	25731
823.83	25811
823.97	25658
824.11	25529
824.25	25559
824.389	25624
824.529	25556
824.669	25609
824.809	25601
824.949	25556
825.089	25674
825.228	25514
825.368	25491
825.508	25358
825.648	25381
825.787	25445
825.927	25426
826.067	25464
826.206	25411
826.346	25472
826.485	25487
826.625	25308
826.765	25559
826.904	25510
827.044	25141
827.183	25099
827.323	25148
827.462	25080
827.601	25206
827.741	25012
827.88	25122
828.02	25069
828.159	24989
828.298	25141
828.437	25129
828.577	25000
828.716	25027
828.855	25000
828.994	24886
829.134	24882
829.273	24821
829.412	24840
829.551	24753
829.69	24768
829.829	24947
829.968	24920
830.107	24711
830.246	24795
830.385	24909
830.524	24665
830.663	24597
830.802	24422
830.941	24369
831.08	24197
831.219	24407
831.357	24376
831.496	24608
831.635	24357
831.774	24281
831.913	24079
832.051	24144
832.19	24144
832.329	24182
832.467	24095
832.606	24026
832.744	23999
832.883	23984
833.022	23897
833.16	23954
833.299	24022
833.437	24110
833.576	24197
833.714	24121
833.852	24140
833.991	24011
834.129	24155
834.267	24136
834.406	24064
834.544	24098
834.682	24072
834.821	24060
834.959	24201
835.097	23996
835.235	24140
835.373	23950
835.511	23961
835.65	23893
835.788	23999
835.926	23786
836.064	23634
836.202	23619
836.34	23863
836.478	23912
836.615	23870
836.753	23870
836.891	24034
837.029	23984
837.167	23942
837.305	23668
837.443	23767
837.58	23665
837.718	23775
837.856	23790
837.993	23649
838.131	23687
838.269	23520
838.406	23539
838.544	23505
838.681	23364
838.819	23307
838.956	23185
839.094	23178
839.231	23231
839.369	23341
839.506	23611
839.643	23337
839.781	23113
839.918	22999
840.055	23178
840.193	23102
840.33	23098
840.467	23117
840.604	23162
840.742	23345
840.879	22908
841.016	23003
841.153	22991
841.29	23132
841.427	23014
841.564	23067
841.701	23094
841.838	22968
841.975	22854
842.112	22915
842.249	22812
842.385	22759
842.522	22949
842.659	22892
842.796	22694
842.933	22793
843.069	22656
843.206	22717
843.343	22904
843.479	22763
843.616	22778
843.752	22634
843.889	22557
844.025	22630
844.162	22577
844.298	22516
844.435	22653
844.571	22440
844.708	22611
844.844	22793
844.98	22653
845.117	22759
845.253	22508
845.389	22474
845.525	22390
845.661	22493
845.798	22188
845.934	22306
846.07	22215
846.206	22272
846.342	22341
846.478	22219
846.614	22124
846.75	21953
846.886	22002
847.022	22097
847.158	22021
847.294	21994
847.429	22002
847.565	22010
847.701	22265
847.837	21713
847.972	21728
848.108	21701
848.244	21736
848.379	21633
848.515	21561
848.65	21633
848.786	21625
848.921	21625
849.057	21690
849.192	21637
849.328	21644
849.463	21679
849.598	21507
849.734	21618
849.869	21344
850.004	21249
850.14	21340
850.275	21386
850.41	21173
850.545	21249
850.68	21214
850.815	21351
850.95	21256
851.085	21439
851.22	21393
851.355	21355
851.49	21291
851.625	21222
851.76	21298
851.895	21226
852.03	21138
852.165	21222
852.299	21237
852.434	21428
852.569	21321
852.703	21424
852.838	21462
852.973	21477
853.107	21507
853.242	21245
853.376	21176
853.511	20952
853.645	21089
853.78	21226
853.914	21142
854.048	21001
854.183	21104
854.317	21218
854.451	21237
854.585	20982
854.72	21055
854.854	21199
854.988	21024
855.122	21161
855.256	20937
855.39	21123
855.524	21188
855.658	21142
855.792	21154
855.926	21154
856.06	21211
856.194	21173
856.327	21077
856.461	21146
856.595	21089
856.729	21093
856.862	21161
856.996	21055
857.13	21116
857.263	21249
857.397	21146
857.53	21127
857.664	21199
857.797	21150
857.931	21089
858.064	21089
858.197	21218
858.331	21005
858.464	21001
858.597	20960
858.731	21089
858.864	21085
858.997	21062
859.13	21199
859.263	21058
859.396	21119
859.529	21032
859.662	21127
859.795	21024
859.928	21100
860.061	21237
860.194	21230
860.327	21154
860.46	21127
860.592	21173
860.725	21142
860.858	21203
860.99	21074
861.123	20994
861.256	20975
861.388	21066
861.521	21755
861.653	20952
861.786	20921
861.918	20880
862.05	21184
862.183	21047
862.315	20994
862.447	21188
862.58	20902
862.712	20880
862.844	20785
862.976	20887
863.108	20849
863.24	21264
863.372	20739
863.504	20686
863.636	20819
863.768	20792
863.9	20689
864.032	20727
864.164	20765
864.296	20765
864.428	20864
864.559	20823
864.691	20864
864.823	20887
864.954	20834
865.086	20674
865.217	20773
865.349	20594
865.48	20727
865.612	20636
865.743	20727
865.875	20613
866.006	20609
866.137	20716
866.269	20663
866.4	20697
866.531	20617
866.662	20541
866.793	20617
866.924	20549
867.055	20636
867.186	20629
867.317	20568
867.448	20492
867.579	20476
867.71	20541
867.841	20514
867.972	20511
868.103	20602
868.233	20579
868.364	20499
868.495	20720
868.625	20895
868.756	20887
868.886	20781
869.017	20804
869.147	20929
869.278	20914
869.408	20826
869.539	20876
869.669	20944
869.799	20849
869.929	20986
870.06	20899
870.19	21211
870.32	21161
870.45	21199
870.58	21313
870.71	21256
870.84	21302
870.97	21237
871.1	21184
871.23	21420
871.36	21454
871.489	21302
871.619	21466
871.749	21424
871.879	21416
872.008	21622
872.138	21519
872.267	21561
872.397	21302
872.526	21260
872.656	21287
872.785	21302
872.915	21515
873.044	21454
873.173	21393
873.303	21538
873.432	21473
873.561	21492
873.69	21625
873.819	21420
873.948	21492
874.077	21557
874.206	21412
874.335	21576
874.464	21557
874.593	21751
874.722	21587
874.851	21736
874.979	21606
875.108	21728
875.237	21610
875.365	21720
875.494	21625
875.623	21873
875.751	21610
875.88	21720
876.008	21819
876.136	21861
876.265	22059
876.393	22280
876.521	22166
876.65	22253
876.778	21934
876.906	21926
877.034	21941
877.162	22070
877.29	22063
877.418	22112
877.546	22112
877.674	22150
877.802	22025
877.93	22112
878.058	22025
878.185	21998
878.313	22010
878.441	22032
878.568	21842
878.696	21937
878.824	22090
878.951	22154
879.079	22325
879.206	22242
879.333	22131
879.461	22070
879.588	22173
879.715	22120
879.842	22310
879.97	22143
880.097	22017
880.224	21869
880.351	21968
880.478	21854
880.605	21781
880.732	21983
880.859	22093
880.986	21865
881.112	21876
881.239	21770
881.366	21644
881.493	21431
881.619	21344
881.746	21561
881.872	21477
881.999	21469
882.125	21401
882.252	21462
882.378	21447
882.505	21538
882.631	21351
882.757	21024
882.883	21241
883.01	21123
883.136	21116
883.262	20971
883.388	20979
883.514	21249
883.64	21085
883.766	21154
883.892	20807
884.018	20963
884.143	21096
884.269	21211
884.395	20819
884.52	20823
884.646	20830
884.772	20785
884.897	20663
885.023	20750
885.148	20971
885.274	20845
885.399	20834
885.524	20842
885.65	20708
885.775	20815
885.9	20743
886.025	20925
886.15	20864
886.275	20739
886.4	20689
886.525	20758
886.65	20655
886.775	20621
886.9	20941
887.025	21043
887.149	20792
887.274	20606
887.399	20530
887.523	20590
887.648	20412
887.773	20370
887.897	20712
888.021	20617
888.146	20545
888.27	20659
888.395	20689
888.519	20613
888.643	20598
888.767	20625
888.891	20396
889.015	20454
889.139	20492
889.263	20336
889.387	20415
889.511	20537
889.635	20328
889.759	20347
889.883	20351
890.006	20385
890.13	20393
890.254	20309
890.377	20225
890.501	20126
890.624	20058
890.748	20168
890.871	20027
890.995	19852
891.118	19803
891.241	20008
891.364	19894
891.488	19970
891.611	19997
891.734	19989
891.857	19970
891.98	19970
892.103	20069
892.226	19963
892.349	19860
892.471	19605
892.594	19845
892.717	19811
892.839	19738
892.962	19879
893.085	19856
893.207	19860
893.33	19605
893.452	19761
893.575	19890
893.697	19750
893.819	20020
893.941	20111
894.064	19955
894.186	19856
894.308	19727
894.43	19947
894.552	19811
894.674	19932
894.796	19769
894.918	19833
895.04	19826
895.161	19807
895.283	19841
895.405	19849
895.526	19757
895.648	19890
895.769	19913
895.891	19837
896.012	19909
896.134	19909
896.255	19894
896.376	19852
896.498	19826
896.619	19967
896.74	19925
896.861	19955
896.982	20111
897.103	20336
897.224	20111
897.345	20077
897.466	20103
897.587	20020
897.708	20149
897.828	20084
897.949	19970
898.07	19928
898.19	20126
898.311	20206
898.431	20024
898.552	20065
898.672	20164
898.792	20039
898.913	20035
899.033	19890
899.153	19959
899.273	19693
899.393	19822
899.513	19750
899.633	19894
899.753	19753
899.873	19753
899.993	19852
900.113	19715
900.232	19845
900.352	19651
900.472	19529
900.591	19605
900.711	19620
900.83	19616
900.95	19662
901.069	19723
901.189	19449
901.308	19403
901.427	19137
901.546	19042
901.665	19225
901.784	19110
901.904	18989
902.023	19061
902.141	18760
902.26	18650
902.379	18726
902.498	18669
902.617	18563
902.735	18707
902.854	18707
902.973	18574
903.091	18182
903.21	18300
903.328	18353
903.446	18228
903.565	18190
903.683	18034
903.801	18087
903.919	18095
904.038	18152
904.156	17935
904.274	17866
904.392	17901
904.51	17889
904.627	17889
904.745	17901
904.863	18011
904.981	17714
905.098	17608
905.216	17592
905.334	17611
905.451	17604
905.569	17623
905.686	17687
905.803	17554
905.921	17486
906.038	17455
906.155	17364
906.272	17311
906.389	17330
906.506	17094
906.623	17162
906.74	17052
906.857	16957
906.974	17029
907.091	17200
907.208	17227
907.324	17022
907.441	16953
907.557	16839
907.674	16710
907.79	16839
907.907	16771
908.023	16774
908.139	16850
908.256	16744
908.372	16729
908.488	16755
908.604	16455
908.72	16405
908.836	16672
908.952	16592
909.068	16466
909.184	16637
909.3	16538
909.415	16615
909.531	16481
909.647	16303
909.762	16261
909.878	16143
909.993	16223
910.108	16211
910.224	16207
910.339	16185
910.454	16010
910.57	15941
910.685	15983
910.8	16226
910.915	16196
911.03	16067
911.145	15884
911.259	15736
911.374	15876
911.489	15717
911.604	15561
911.718	15637
911.833	15561
911.947	15416
912.062	15367
912.176	15584
912.291	15507
912.405	15526
912.519	15675
912.633	15686
912.748	15564
912.862	15545
912.976	15397
913.09	15332
913.204	15424
913.318	15340
913.431	15469
913.545	15386
913.659	15431
913.772	15298
913.886	15237
914	15100
914.113	15348
914.226	15272
914.34	15233
914.453	15135
914.566	15302
914.68	15089
914.793	15009
914.906	14769
915.019	14804
915.132	14811
915.245	14849
915.358	14910
915.47	14811
915.583	14762
915.696	14777
915.809	14914
915.921	14895
916.034	14701
916.146	14674
916.259	14712
916.371	14720
916.483	14758
916.595	14663
916.708	14667
916.82	14598
916.932	14621
917.044	14571
917.156	14617
917.268	14419
917.38	14507
917.491	14389
917.603	14473
917.715	14488
917.826	14552
917.938	14518
918.049	14244
918.161	14469
918.272	14484
918.384	14530
918.495	14492
918.606	14237
918.717	14153
918.828	14149
918.939	14298
919.05	14054
919.161	14248
919.272	14035
919.383	14008
919.494	14233
919.604	14480
919.715	14183
919.826	14107
919.936	14115
920.047	14199
920.157	14157
920.267	14320
920.378	14153
920.488	14187
920.598	14290
920.708	14461
920.818	14377
920.928	14275
921.038	14404
921.148	14351
921.258	14084
921.368	13982
921.477	13944
921.587	13906
921.697	13879
921.806	13830
921.916	13784
922.025	13624
922.134	13616
922.244	13563
922.353	13655
922.462	13457
922.571	13346
922.68	13327
922.789	13213
922.898	13278
923.007	13114
923.116	13179
923.224	13107
923.333	13126
923.442	12970
923.55	13061
923.659	13057
923.767	13065
923.876	12943
923.984	13023
924.092	12856
924.201	12993
924.309	12916
924.417	12894
924.525	12859
924.633	12932
924.741	13662
924.849	12673
924.956	12817
925.064	12604
925.172	12574
925.279	12623
925.387	12703
925.494	12631
925.602	12711
925.709	12719
925.816	12547
925.924	12635
926.031	12665
926.138	12601
926.245	12563
926.352	12464
926.459	12654
926.566	12665
926.673	12525
926.779	12418
926.886	12376
926.993	12235
927.099	12281
927.206	12178
927.312	12125
927.419	12235
927.525	12254
927.631	12114
927.737	12079
927.843	12053
927.95	11916
928.056	11908
928.162	12011
928.267	12136
928.373	12486
928.479	12121
928.585	11794
928.69	11988
928.796	12079
928.901	11866
929.007	11748
929.112	11939
929.218	11786
929.323	11794
929.428	11718
929.533	11916
929.638	11653
929.743	11642
929.848	11760
929.953	11680
930.058	11615
930.163	11497
930.267	11490
930.372	11539
930.477	11425
930.581	11741
930.685	11429
930.79	11330
930.894	11334
930.998	11280
931.103	11391
931.207	11121
931.311	10968
931.415	10896
931.519	10725
931.623	10698
