Data from test_V78500241_501.txt Node
Date: Fri Mar 25 15:13:20 CST 2022
User: usil
Spectrometer: V785-0024
Trigger mode: 0
Integration Time (sec): 4.000000E-1
Scans to average: 1
Nonlinearity correction enabled: false
Boxcar width: 0
Storing dark spectrum: false
XAxis mode: Wavelengths
Number of Pixels in Spectrum: 1024
>>>>>Begin Spectral Data<<<<<
801.071	27496
801.214	27545
801.356	27272
801.499	27237
801.641	27169
801.783	27020
801.926	27165
802.068	27169
802.211	27013
802.353	26864
802.496	26815
802.638	26796
802.78	26781
802.923	26800
803.065	26670
803.208	26678
803.35	26674
803.492	26937
803.635	26861
803.777	26868
803.919	26811
804.061	27108
804.204	26925
804.346	26697
804.488	26800
804.63	26956
804.773	26731
804.915	26781
805.057	27085
805.199	27005
805.341	27077
805.483	27024
805.626	26990
805.768	26838
805.91	27123
806.052	27135
806.194	26944
806.336	27218
806.478	27032
806.62	27058
806.762	27116
806.904	27340
807.046	27641
807.188	27481
807.33	27351
807.472	27370
807.614	27397
807.756	27367
807.898	27298
808.04	27245
808.182	27230
808.324	27264
808.465	27355
808.607	27431
808.749	27606
808.891	27663
809.033	27903
809.174	27663
809.316	27747
809.458	27618
809.6	27770
809.741	27804
809.883	27751
810.025	27953
810.166	27922
810.308	27937
810.45	28074
810.591	27949
810.733	27762
810.875	27808
811.016	27545
811.158	27568
811.299	27618
811.441	27766
811.582	27660
811.724	27629
811.865	27511
812.007	27618
812.148	27519
812.29	27599
812.431	27778
812.573	27926
812.714	27972
812.855	28162
812.997	28322
813.138	28421
813.279	28459
813.421	28234
813.562	28219
813.703	28040
813.845	27850
813.986	27637
814.127	27431
814.268	27306
814.41	27473
814.551	27325
814.692	27408
814.833	27302
814.974	27252
815.115	27207
815.256	27363
815.397	27252
815.539	27279
815.68	27173
815.821	27043
815.962	27199
816.103	26963
816.244	27024
816.385	26864
816.526	26914
816.666	26682
816.807	26568
816.948	26682
817.089	26689
817.23	26571
817.371	26568
817.512	26632
817.653	26640
817.793	26484
817.934	26693
818.075	26720
818.216	26541
818.356	26396
818.497	26427
818.638	26351
818.778	26461
818.919	26317
819.06	26419
819.2	26495
819.341	26564
819.481	26552
819.622	26785
819.762	26956
819.903	27001
820.043	26689
820.184	26651
820.324	26830
820.465	26845
820.605	26788
820.746	26754
820.886	26606
821.026	26670
821.167	26826
821.307	26842
821.447	26693
821.588	26583
821.728	26339
821.868	26126
822.008	26077
822.149	26081
822.289	26027
822.429	25845
822.569	25651
822.709	25715
822.849	25594
822.99	25548
823.13	25563
823.27	25544
823.41	25354
823.55	25293
823.69	25445
823.83	25464
823.97	25384
824.11	25244
824.25	25278
824.389	25282
824.529	25259
824.669	25247
824.809	25293
824.949	25304
825.089	25327
825.228	25145
825.368	25152
825.508	25004
825.648	25088
825.787	25122
825.927	25156
826.067	25148
826.206	25061
826.346	25065
826.485	25118
826.625	25053
826.765	25198
826.904	25042
827.044	24852
827.183	24795
827.323	24894
827.462	24787
827.601	24829
827.741	24738
827.88	24833
828.02	24749
828.159	24806
828.298	24802
828.437	24764
828.577	24635
828.716	24867
828.855	24696
828.994	24623
829.134	24513
829.273	24525
829.412	24441
829.551	24391
829.69	24441
829.829	24635
829.968	24544
830.107	24585
830.246	24467
830.385	24521
830.524	24479
830.663	24330
830.802	24106
830.941	24060
831.08	24117
831.219	24140
831.357	24171
831.496	24365
831.635	24106
831.774	24087
831.913	24003
832.051	23790
832.19	24011
832.329	23904
832.467	23946
832.606	23847
832.744	23813
832.883	23764
833.022	23859
833.16	23805
833.299	23908
833.437	23843
833.576	23878
833.714	23946
833.852	23901
833.991	24117
834.129	23878
834.267	23942
834.406	23893
834.544	23935
834.682	23832
834.821	23958
834.959	24015
835.097	23760
835.235	23977
835.373	23931
835.511	23863
835.65	23661
835.788	23748
835.926	23531
836.064	23649
836.202	23611
836.34	23748
836.478	23870
836.615	23676
836.753	23779
836.891	23851
837.029	23775
837.167	23611
837.305	23592
837.443	23649
837.58	23570
837.718	23642
837.856	23604
837.993	23627
838.131	23493
838.269	23322
838.406	23505
838.544	23341
838.681	23223
838.819	23227
838.956	22908
839.094	23090
839.231	23003
839.369	23223
839.506	23406
839.643	23337
839.781	22976
839.918	23041
840.055	23060
840.193	23044
840.33	22946
840.467	22889
840.604	23071
840.742	23193
840.879	22809
841.016	22892
841.153	22942
841.29	23090
841.427	23003
841.564	22908
841.701	23010
841.838	22908
841.975	22915
842.112	22949
842.249	22740
842.385	22744
842.522	22953
842.659	22752
842.796	22588
842.933	22702
843.069	22626
843.206	22577
843.343	22801
843.479	22603
843.616	22812
843.752	22436
843.889	22542
844.025	22626
844.162	22409
844.298	22618
844.435	22470
844.571	22421
844.708	22607
844.844	22596
844.98	22664
845.117	22607
845.253	22417
845.389	22440
845.525	22363
845.661	22413
845.798	22284
845.934	22337
846.07	22128
846.206	22177
846.342	22337
846.478	22242
846.614	22044
846.75	21876
846.886	21930
847.022	22044
847.158	21975
847.294	22131
847.429	21987
847.565	21873
847.701	22147
847.837	21739
847.972	21751
848.108	21751
848.244	21724
848.379	21629
848.515	21656
848.65	21622
848.786	21580
848.921	21538
849.057	21686
849.192	21682
849.328	21629
849.463	21610
849.598	21603
849.734	21431
849.869	21363
850.004	21298
850.14	21397
850.275	21336
850.41	21298
850.545	21233
850.68	21279
850.815	21420
850.95	21310
851.085	21606
851.22	21393
851.355	21367
851.49	21256
851.625	21416
851.76	21332
851.895	21245
852.03	21245
852.165	21302
852.299	21370
852.434	21450
852.569	21359
852.703	21367
852.838	21382
852.973	21561
853.107	21466
853.242	21386
853.376	21180
853.511	20986
853.645	21131
853.78	21237
853.914	21195
854.048	21249
854.183	21024
854.317	21230
854.451	21420
854.585	21214
854.72	21260
854.854	21298
854.988	21192
855.122	21180
855.256	21001
855.39	21199
855.524	21154
855.658	21188
855.792	21310
855.926	21150
856.06	21241
856.194	21279
856.327	21287
856.461	21062
856.595	21222
856.729	21260
856.862	21275
856.996	21135
857.13	21302
857.263	21237
857.397	21233
857.53	21135
857.664	21180
857.797	21207
857.931	21325
858.064	21218
858.197	21218
858.331	21123
858.464	21154
858.597	21131
858.731	21020
858.864	21108
858.997	21123
859.13	21043
859.263	21066
859.396	21226
859.529	21176
859.662	21184
859.795	21089
859.928	21108
860.061	21397
860.194	21332
860.327	21123
860.46	21154
860.592	21249
860.725	21382
860.858	21294
860.99	21192
861.123	20994
861.256	21051
861.388	21249
861.521	21892
861.653	21070
861.786	20921
861.918	21036
862.05	21093
862.183	20998
862.315	21165
862.447	21176
862.58	21066
862.712	20883
862.844	20845
862.976	21013
863.108	20845
863.24	21260
863.372	20811
863.504	20925
863.636	20952
863.768	20750
863.9	20876
864.032	20796
864.164	20781
864.296	20815
864.428	21020
864.559	20952
864.691	20864
864.823	20762
864.954	20925
865.086	20979
865.217	20819
865.349	20750
865.48	20746
865.612	20800
865.743	20842
865.875	20800
866.006	20727
866.137	20727
866.269	20777
866.4	20625
866.531	20693
866.662	20697
866.793	20785
866.924	20765
867.055	20804
867.186	20758
867.317	20720
867.448	20564
867.579	20686
867.71	20644
867.841	20621
867.972	20682
868.103	20739
868.233	20743
868.364	20754
868.495	20842
868.625	20899
868.756	21039
868.886	20823
869.017	20998
869.147	21028
869.278	21150
869.408	21028
869.539	20849
869.669	20982
869.799	21001
869.929	21024
870.06	20998
870.19	21302
870.32	21233
870.45	21386
870.58	21359
870.71	21469
870.84	21443
870.97	21348
871.1	21370
871.23	21561
871.36	21519
871.489	21401
871.619	21523
871.749	21492
871.879	21538
872.008	21717
872.138	21523
872.267	21572
872.397	21393
872.526	21454
872.656	21393
872.785	21401
872.915	21576
873.044	21789
873.173	21614
873.303	21644
873.432	21580
873.561	21701
873.69	21469
873.819	21507
873.948	21682
874.077	21599
874.206	21511
874.335	21576
874.464	21667
874.593	21770
874.722	21694
874.851	21884
874.979	21892
875.108	21854
875.237	21766
875.365	21629
875.494	21709
875.623	21911
875.751	21667
875.88	21781
876.008	22025
876.136	21983
876.265	22242
876.393	22200
876.521	22105
876.65	22234
876.778	22128
876.906	22173
877.034	22124
877.162	22139
877.29	22173
877.418	22097
877.546	22124
877.674	22169
877.802	22147
877.93	22067
878.058	22139
878.185	21922
878.313	22036
878.441	22017
878.568	21975
878.696	22090
878.824	22177
878.951	22162
879.079	22219
879.206	22436
879.333	22280
879.461	22166
879.588	22291
879.715	22287
879.842	22352
879.97	22192
880.097	22036
880.224	21987
880.351	21899
880.478	21953
880.605	21873
880.732	22013
880.859	22333
880.986	21987
881.112	21937
881.239	21903
881.366	21652
881.493	21717
881.619	21553
881.746	21545
881.872	21542
881.999	21553
882.125	21473
882.252	21466
882.378	21526
882.505	21549
882.631	21405
882.757	21264
882.883	21439
883.01	21233
883.136	21226
883.262	21127
883.388	21047
883.514	21131
883.64	21264
883.766	21089
883.892	20986
884.018	21154
884.143	21222
884.269	21264
884.395	20994
884.52	20849
884.646	20902
884.772	20777
884.897	20750
885.023	20796
885.148	20971
885.274	20944
885.399	20971
885.524	20918
885.65	20849
885.775	20815
885.9	20834
886.025	20929
886.15	20967
886.275	20788
886.4	20830
886.525	20868
886.65	20686
886.775	20857
886.9	21043
887.025	21104
887.149	20819
887.274	20667
887.399	20644
887.523	20678
887.648	20720
887.773	20686
887.897	20590
888.021	20720
888.146	20625
888.27	20746
888.395	20792
888.519	20648
888.643	20693
888.767	20716
888.891	20511
889.015	20507
889.139	20526
889.263	20454
889.387	20533
889.511	20655
889.635	20674
889.759	20415
889.883	20358
890.006	20377
890.13	20617
890.254	20370
890.377	20469
890.501	20313
890.624	20161
890.748	20244
890.871	20050
890.995	19913
891.118	19959
891.241	20065
891.364	20035
891.488	20111
891.611	19982
891.734	20069
891.857	20122
891.98	20062
892.103	20016
892.226	20054
892.349	19982
892.471	19803
892.594	19944
892.717	19875
892.839	19989
892.962	19993
893.085	20020
893.207	19807
893.33	19849
893.452	19833
893.575	20039
893.697	19932
893.819	20149
893.941	20043
894.064	20024
894.186	19849
894.308	19982
894.43	19925
894.552	20062
894.674	19959
894.796	19780
894.918	19944
895.04	19902
895.161	20065
895.283	19993
895.405	19879
895.526	19871
895.648	19955
895.769	19944
895.891	19932
896.012	19932
896.134	19974
896.255	19909
896.376	19951
896.498	19982
896.619	19928
896.74	20001
896.861	20054
896.982	20320
897.103	20393
897.224	20176
897.345	20183
897.466	20035
897.587	20161
897.708	20278
897.828	20286
897.949	20119
898.07	19928
898.19	20020
898.311	20187
898.431	20058
898.552	20111
898.672	20240
898.792	20157
898.913	20024
899.033	20092
899.153	19970
899.273	19913
899.393	19868
899.513	19993
899.633	19947
899.753	19959
899.873	19898
899.993	19970
900.113	19814
900.232	19875
900.352	19780
900.472	19731
900.591	19643
900.711	19757
900.83	19594
900.95	19704
901.069	19689
901.189	19514
901.308	19327
901.427	19312
901.546	19304
901.665	19251
901.784	19206
901.904	19126
902.023	19057
902.141	18844
902.26	18795
902.379	18817
902.498	18715
902.617	18745
902.735	18707
902.854	18859
902.973	18734
903.091	18475
903.21	18445
903.328	18407
903.446	18319
903.565	18315
903.683	18262
903.801	18064
903.919	18129
904.038	18235
904.156	17977
904.274	18133
904.392	18087
904.51	18022
904.627	17988
904.745	18133
904.863	18064
904.981	17786
905.098	17691
905.216	17714
905.334	17733
905.451	17756
905.569	17684
905.686	17794
905.803	17687
905.921	17558
906.038	17649
906.155	17539
906.272	17410
906.389	17452
906.506	17288
906.623	17265
906.74	17311
906.857	17094
906.974	17258
907.091	17368
907.208	17292
907.324	17299
907.441	17124
907.557	16934
907.674	16957
907.79	16858
907.907	16980
908.023	16938
908.139	16938
908.256	16987
908.372	16938
908.488	16900
908.604	16645
908.72	16634
908.836	16767
908.952	16653
909.068	16645
909.184	16835
909.3	16565
909.415	16774
909.531	16683
909.647	16459
909.762	16337
909.878	16440
909.993	16390
910.108	16348
910.224	16280
910.339	16382
910.454	16177
910.57	16147
910.685	16135
910.8	16470
910.915	16451
911.03	16192
911.145	15998
911.259	15949
911.374	15979
911.489	15983
911.604	15819
911.718	15766
911.833	15751
911.947	15549
912.062	15667
912.176	15804
912.291	15679
912.405	15637
912.519	15899
912.633	15892
912.748	15823
912.862	15637
912.976	15545
913.09	15378
913.204	15538
913.318	15500
913.431	15633
913.545	15686
913.659	15564
913.772	15538
913.886	15325
914	15363
914.113	15401
914.226	15386
914.34	15336
914.453	15260
914.566	15370
914.68	15230
914.793	15218
914.906	15039
915.019	14967
915.132	14895
915.245	14899
915.358	14952
915.47	14967
915.583	14982
915.696	15020
915.809	15055
915.921	15077
916.034	14750
916.146	14842
916.259	14800
916.371	15039
916.483	15028
916.595	14967
916.708	14838
916.82	14800
916.932	14746
917.044	14785
917.156	14743
917.268	14602
917.38	14693
917.491	14629
917.603	14632
917.715	14750
917.826	14712
917.938	14549
918.049	14450
918.161	14583
918.272	14651
918.384	14708
918.495	14530
918.606	14415
918.717	14328
918.828	14332
918.939	14442
919.05	14336
919.161	14404
919.272	14138
919.383	14259
919.494	14404
919.604	14583
919.715	14332
919.826	14237
919.936	14309
920.047	14366
920.157	14374
920.267	14518
920.378	14343
920.488	14370
920.598	14537
920.708	14640
920.818	14442
920.928	14488
921.038	14674
921.148	14583
921.258	14328
921.368	14218
921.477	14100
921.587	14100
921.697	13978
921.806	14111
921.916	13921
922.025	13928
922.134	13780
922.244	13696
922.353	13757
922.462	13529
922.571	13601
922.68	13403
922.789	13354
922.898	13415
923.007	13297
923.116	13388
923.224	13297
923.333	13327
923.442	13301
923.55	13225
923.659	13236
923.767	13358
923.876	13152
923.984	13168
924.092	13107
924.201	13107
924.309	13156
924.417	13183
924.525	13072
924.633	13027
924.741	13890
924.849	12878
924.956	13042
925.064	12821
925.172	12856
925.279	12810
925.387	12905
925.494	12760
925.602	13019
925.709	12886
925.816	12681
925.924	12700
926.031	12837
926.138	12730
926.245	12806
926.352	12627
926.459	12798
926.566	12875
926.673	12730
926.779	12620
926.886	12506
926.993	12407
927.099	12388
927.206	12361
927.312	12281
927.419	12342
927.525	12346
927.631	12399
927.737	12228
927.843	12239
927.95	12171
928.056	12228
928.162	12171
928.267	12258
928.373	12741
928.479	12273
928.585	12007
928.69	12159
928.796	12121
928.901	12098
929.007	11946
929.112	12068
929.218	12049
929.323	11969
929.428	11889
929.533	12026
929.638	11870
929.743	11885
929.848	11824
929.953	11950
930.058	11882
930.163	11627
930.267	11676
930.372	11771
930.477	11539
930.581	11847
930.685	11699
930.79	11493
930.894	11566
930.998	11414
931.103	11646
931.207	11235
931.311	11227
931.415	11117
931.519	10850
931.623	10896
