Data from test_V78500241_2427.txt Node
Date: Fri Mar 25 15:26:45 CST 2022
User: usil
Spectrometer: V785-0024
Trigger mode: 0
Integration Time (sec): 4.000000E-1
Scans to average: 1
Nonlinearity correction enabled: false
Boxcar width: 0
Storing dark spectrum: false
XAxis mode: Wavelengths
Number of Pixels in Spectrum: 1024
>>>>>Begin Spectral Data<<<<<
801.071	27260
801.214	27180
801.356	26883
801.499	26956
801.641	26804
801.783	26758
801.926	26735
802.068	26754
802.211	26804
802.353	26758
802.496	26488
802.638	26385
802.78	26400
802.923	26381
803.065	26248
803.208	26218
803.35	26385
803.492	26518
803.635	26659
803.777	26514
803.919	26450
804.061	26899
804.204	26602
804.346	26499
804.488	26453
804.63	26514
804.773	26438
804.915	26453
805.057	26480
805.199	26617
805.341	26606
805.483	26636
805.626	26556
805.768	26617
805.91	26678
806.052	26640
806.194	26423
806.336	26838
806.478	26556
806.62	26609
806.762	26838
806.904	26914
807.046	27176
807.188	26986
807.33	26986
807.472	27112
807.614	27096
807.756	27013
807.898	27070
808.04	26937
808.182	26880
808.324	26918
808.465	27005
808.607	27074
808.749	27256
808.891	27378
809.033	27370
809.174	27317
809.316	27260
809.458	27260
809.6	27370
809.741	27416
809.883	27378
810.025	27568
810.166	27515
810.308	27511
810.45	27545
810.591	27393
810.733	27291
810.875	27279
811.016	27077
811.158	27043
811.299	27112
811.441	27344
811.582	27420
811.724	27184
811.865	27157
812.007	27085
812.148	27074
812.29	27340
812.431	27458
812.573	27549
812.714	27686
812.855	27728
812.997	27778
813.138	28090
813.279	27804
813.421	27937
813.562	27743
813.703	27538
813.845	27492
813.986	27066
814.127	26982
814.268	26887
814.41	26994
814.551	26914
814.692	27135
814.833	26880
814.974	26876
815.115	27001
815.256	26819
815.397	26617
815.539	26746
815.68	26739
815.821	26667
815.962	26735
816.103	26648
816.244	26488
816.385	26427
816.526	26507
816.666	26244
816.807	26119
816.948	26282
817.089	26347
817.23	26271
817.371	26149
817.512	26126
817.653	26206
817.793	26122
817.934	26100
818.075	26126
818.216	26263
818.356	26069
818.497	26046
818.638	25841
818.778	25887
818.919	25902
819.06	26046
819.2	25982
819.341	26195
819.481	26115
819.622	26317
819.762	26526
819.903	26453
820.043	26309
820.184	26351
820.324	26221
820.465	26294
820.605	26259
820.746	26259
820.886	26100
821.026	26259
821.167	26092
821.307	26145
821.447	26172
821.588	26119
821.728	25887
821.868	25761
822.008	25677
822.149	25655
822.289	25601
822.429	25362
822.569	25259
822.709	25320
822.849	25148
822.99	25133
823.13	25183
823.27	25114
823.41	24966
823.55	24962
823.69	24932
823.83	24989
823.97	24833
824.11	24768
824.25	24677
824.389	24802
824.529	24837
824.669	24730
824.809	24806
824.949	24810
825.089	24840
825.228	24707
825.368	24623
825.508	24597
825.648	24620
825.787	24639
825.927	24707
826.067	24540
826.206	24661
826.346	24684
826.485	24585
826.625	24658
826.765	24578
826.904	24776
827.044	24456
827.183	24456
827.323	24277
827.462	24445
827.601	24414
827.741	24376
827.88	24422
828.02	24247
828.159	24426
828.298	24433
828.437	24437
828.577	24350
828.716	24395
828.855	24178
828.994	24155
829.134	24083
829.273	24057
829.412	24045
829.551	23946
829.69	23999
829.829	24076
829.968	24129
830.107	24247
830.246	24125
830.385	24079
830.524	24022
830.663	23843
830.802	23824
830.941	23646
831.08	23668
831.219	23771
831.357	23790
831.496	24015
831.635	23520
831.774	23531
831.913	23596
832.051	23516
832.19	23410
832.329	23387
832.467	23391
832.606	23406
832.744	23277
832.883	23307
833.022	23246
833.16	23307
833.299	23318
833.437	23444
833.576	23421
833.714	23417
833.852	23501
833.991	23497
834.129	23478
834.267	23547
834.406	23349
834.544	23474
834.682	23444
834.821	23379
834.959	23592
835.097	23383
835.235	23501
835.373	23425
835.511	23406
835.65	23273
835.788	23269
835.926	23162
836.064	23064
836.202	23151
836.34	23181
836.478	23379
836.615	23258
836.753	23223
836.891	23277
837.029	23212
837.167	23216
837.305	23246
837.443	23079
837.58	23037
837.718	23136
837.856	23014
837.993	23048
838.131	23052
838.269	22991
838.406	23044
838.544	22942
838.681	22729
838.819	22733
838.956	22634
839.094	22596
839.231	22550
839.369	22946
839.506	23014
839.643	22790
839.781	22535
839.918	22512
840.055	22588
840.193	22580
840.33	22546
840.467	22497
840.604	22542
840.742	22839
840.879	22200
841.016	22379
841.153	22390
841.29	22531
841.427	22493
841.564	22538
841.701	22478
841.838	22588
841.975	22474
842.112	22367
842.249	22280
842.385	22211
842.522	22455
842.659	22390
842.796	22169
842.933	22215
843.069	22268
843.206	22265
843.343	22367
843.479	22272
843.616	22253
843.752	22177
843.889	22116
844.025	22257
844.162	21975
844.298	22169
844.435	21994
844.571	22059
844.708	22036
844.844	22185
844.98	22265
845.117	22154
845.253	22063
845.389	21930
845.525	21884
845.661	21793
845.798	21857
845.934	21960
846.07	21724
846.206	21812
846.342	21873
846.478	21686
846.614	21701
846.75	21477
846.886	21496
847.022	21606
847.158	21526
847.294	21458
847.429	21557
847.565	21389
847.701	21720
847.837	21275
847.972	21325
848.108	21450
848.244	21416
848.379	21138
848.515	21036
848.65	21264
848.786	21119
848.921	21150
849.057	21192
849.192	21127
849.328	21214
849.463	21085
849.598	20990
849.734	20914
849.869	20868
850.004	20777
850.14	20883
850.275	20933
850.41	20807
850.545	20834
850.68	20872
850.815	20960
850.95	20891
851.085	21009
851.22	20975
851.355	20792
851.49	20872
851.625	20838
851.76	20880
851.895	20765
852.03	20792
852.165	20811
852.299	20861
852.434	20925
852.569	20902
852.703	20792
852.838	20933
852.973	21009
853.107	21043
853.242	20796
853.376	20712
853.511	20613
853.645	20769
853.78	20800
853.914	20800
854.048	20674
854.183	20708
854.317	20697
854.451	20845
854.585	20765
854.72	20705
854.854	20891
854.988	20701
855.122	20724
855.256	20492
855.39	20590
855.524	20769
855.658	20758
855.792	20792
855.926	20792
856.06	20754
856.194	20758
856.327	20667
856.461	20602
856.595	20693
856.729	20758
856.862	20746
856.996	20712
857.13	20826
857.263	20872
857.397	20830
857.53	20682
857.664	20739
857.797	20834
857.931	20754
858.064	20716
858.197	20823
858.331	20625
858.464	20621
858.597	20579
858.731	20781
858.864	20800
858.997	20682
859.13	20773
859.263	20743
859.396	20777
859.529	20739
859.662	20632
859.795	20674
859.928	20674
860.061	20735
860.194	20880
860.327	20762
860.46	20727
860.592	20914
860.725	20788
860.858	20788
860.99	20655
861.123	20598
861.256	20697
861.388	20682
861.521	21230
861.653	20537
861.786	20339
861.918	20613
862.05	20556
862.183	20495
862.315	20674
862.447	20773
862.58	20640
862.712	20514
862.844	20320
862.976	20492
863.108	20499
863.24	20826
863.372	20355
863.504	20332
863.636	20434
863.768	20434
863.9	20385
864.032	20324
864.164	20385
864.296	20473
864.428	20476
864.559	20454
864.691	20514
864.823	20412
864.954	20320
865.086	20313
865.217	20320
865.349	20149
865.48	20415
865.612	20347
865.743	20408
865.875	20393
866.006	20309
866.137	20343
866.269	20358
866.4	20271
866.531	20282
866.662	20294
866.793	20256
866.924	20366
867.055	20157
867.186	20248
867.317	20229
867.448	20134
867.579	20221
867.71	20145
867.841	20180
867.972	20419
868.103	20225
868.233	20259
868.364	20259
868.495	20396
868.625	20476
868.756	20629
868.886	20526
869.017	20476
869.147	20568
869.278	20640
869.408	20568
869.539	20575
869.669	20488
869.799	20454
869.929	20648
870.06	20667
870.19	20796
870.32	20868
870.45	20895
870.58	20929
870.71	21119
870.84	21043
870.97	20792
871.1	20842
871.23	21005
871.36	21116
871.489	21081
871.619	21131
871.749	21104
871.879	21173
872.008	21096
872.138	21131
872.267	21096
872.397	21032
872.526	20948
872.656	21032
872.785	20986
872.915	21135
873.044	21188
873.173	21036
873.303	21188
873.432	21104
873.561	21146
873.69	21226
873.819	21043
873.948	21252
874.077	21104
874.206	21055
874.335	21100
874.464	21268
874.593	21378
874.722	21302
874.851	21408
874.979	21332
875.108	21416
875.237	21473
875.365	21291
875.494	21264
875.623	21435
875.751	21245
875.88	21348
876.008	21367
876.136	21682
876.265	21698
876.393	21964
876.521	21774
876.65	21819
876.778	21762
876.906	21671
877.034	21641
877.162	21759
877.29	21641
877.418	21751
877.546	21618
877.674	21686
877.802	21762
877.93	21663
878.058	21762
878.185	21667
878.313	21648
878.441	21641
878.568	21587
878.696	21698
878.824	21804
878.951	21838
879.079	21895
879.206	22044
879.333	21892
879.461	21762
879.588	21797
879.715	21842
879.842	22006
879.97	21895
880.097	21526
880.224	21583
880.351	21530
880.478	21580
880.605	21435
880.732	21690
880.859	21709
880.986	21576
881.112	21488
881.239	21488
881.366	21294
881.493	21203
881.619	21138
881.746	21222
881.872	21005
881.999	21173
882.125	21001
882.252	21085
882.378	21036
882.505	21131
882.631	21058
882.757	20842
882.883	21024
883.01	20819
883.136	20826
883.262	20644
883.388	20632
883.514	20796
883.64	20785
883.766	20785
883.892	20632
884.018	20678
884.143	20712
884.269	20792
884.395	20526
884.52	20434
884.646	20492
884.772	20320
884.897	20362
885.023	20431
885.148	20583
885.274	20613
885.399	20503
885.524	20492
885.65	20568
885.775	20514
885.9	20579
886.025	20526
886.15	20541
886.275	20320
886.4	20366
886.525	20404
886.65	20393
886.775	20362
886.9	20488
887.025	20621
887.149	20499
887.274	20278
887.399	20210
887.523	20164
887.648	20195
887.773	20157
887.897	20317
888.021	20290
888.146	20122
888.27	20339
888.395	20339
888.519	20377
888.643	20320
888.767	20240
888.891	20202
889.015	20031
889.139	20138
889.263	20107
889.387	20202
889.511	20309
889.635	20103
889.759	19955
889.883	20172
890.006	20126
890.13	20161
890.254	19909
890.377	19947
890.501	19890
890.624	19723
890.748	19875
890.871	19719
890.995	19605
891.118	19590
891.241	19689
891.364	19582
891.488	19734
891.611	19624
891.734	19696
891.857	19662
891.98	19575
892.103	19681
892.226	19700
892.349	19567
892.471	19521
892.594	19502
892.717	19567
892.839	19472
892.962	19597
893.085	19700
893.207	19540
893.33	19426
893.452	19499
893.575	19578
893.697	19540
893.819	19761
893.941	19803
894.064	19674
894.186	19510
894.308	19468
894.43	19552
894.552	19757
894.674	19582
894.796	19430
894.918	19518
895.04	19495
895.161	19624
895.283	19643
895.405	19491
895.526	19601
895.648	19521
895.769	19563
895.891	19571
896.012	19635
896.134	19632
896.255	19464
896.376	19582
896.498	19586
896.619	19738
896.74	19529
896.861	19605
896.982	19917
897.103	19913
897.224	19852
897.345	19715
897.466	19833
897.587	19761
897.708	19989
897.828	19925
897.949	19700
898.07	19635
898.19	19769
898.311	19852
898.431	19696
898.552	19818
898.672	19826
898.792	19947
898.913	19776
899.033	19689
899.153	19677
899.273	19559
899.393	19510
899.513	19487
899.633	19590
899.753	19590
899.873	19506
899.993	19548
900.113	19476
900.232	19548
900.352	19514
900.472	19472
900.591	19419
900.711	19464
900.83	19327
900.95	19400
901.069	19472
901.189	19320
901.308	19084
901.427	18916
901.546	18916
901.665	18909
901.784	19046
901.904	18722
902.023	18707
902.141	18551
902.26	18369
902.379	18551
902.498	18494
902.617	18441
902.735	18433
902.854	18380
902.973	18437
903.091	18148
903.21	18011
903.328	18068
903.446	18072
903.565	18007
903.683	17916
903.801	17882
903.919	17927
904.038	17741
904.156	17710
904.274	17878
904.392	17741
904.51	17524
904.627	17714
904.745	17786
904.863	17729
904.981	17573
905.098	17364
905.216	17277
905.334	17471
905.451	17471
905.569	17296
905.686	17406
905.803	17379
905.921	17166
906.038	17235
906.155	17185
906.272	17045
906.389	17181
906.506	16923
906.623	16904
906.74	16900
906.857	16858
906.974	16892
907.091	16911
907.208	17048
907.324	16881
907.441	16752
907.557	16637
907.674	16706
907.79	16565
907.907	16645
908.023	16660
908.139	16675
908.256	16660
908.372	16470
908.488	16443
908.604	16402
908.72	16417
908.836	16310
908.952	16455
909.068	16367
909.184	16497
909.3	16333
909.415	16375
909.531	16287
909.647	16101
909.762	16078
909.878	16223
909.993	16116
910.108	16147
910.224	16029
910.339	15975
910.454	15922
910.57	15918
910.685	15793
910.8	16120
910.915	15937
911.03	15915
911.145	15644
911.259	15793
911.374	15747
911.489	15614
911.604	15542
911.718	15332
911.833	15408
911.947	15313
912.062	15237
912.176	15382
912.291	15378
912.405	15344
912.519	15530
912.633	15625
912.748	15511
912.862	15378
912.976	15218
913.09	15268
913.204	15165
913.318	15287
913.431	15252
913.545	15226
913.659	15374
913.772	15138
913.886	15108
914	15013
914.113	15104
914.226	15108
914.34	15184
914.453	14918
914.566	15066
914.68	14895
914.793	14929
914.906	14758
915.019	14727
915.132	14701
915.245	14667
915.358	14678
915.47	14610
915.583	14644
915.696	14701
915.809	14796
915.921	14739
916.034	14564
916.146	14613
916.259	14613
916.371	14712
916.483	14716
916.595	14583
916.708	14503
916.82	14419
916.932	14434
917.044	14480
917.156	14533
917.268	14320
917.38	14389
917.491	14298
917.603	14362
917.715	14313
917.826	14423
917.938	14252
918.049	14157
918.161	14328
918.272	14514
918.384	14408
918.495	14168
918.606	14290
918.717	14035
918.828	14115
918.939	14214
919.05	13978
919.161	14050
919.272	13826
919.383	13974
919.494	14119
919.604	14351
919.715	14024
919.826	14069
919.936	14035
920.047	14149
920.157	14084
920.267	14206
920.378	14199
920.488	14115
920.598	14221
920.708	14355
920.818	14218
920.928	14210
921.038	14298
921.148	14298
921.258	14001
921.368	13887
921.477	13852
921.587	13761
921.697	13719
921.806	13833
921.916	13704
922.025	13521
922.134	13658
922.244	13419
922.353	13422
922.462	13350
922.571	13289
922.68	13122
922.789	13091
922.898	13133
923.007	13103
923.116	13065
923.224	13133
923.333	13046
923.442	12977
923.55	12954
923.659	12977
923.767	13000
923.876	12848
923.984	12951
924.092	12806
924.201	12825
924.309	12909
924.417	12913
924.525	12852
924.633	12715
924.741	13696
924.849	12589
924.956	12722
925.064	12540
925.172	12486
925.279	12563
925.387	12616
925.494	12521
925.602	12589
925.709	12578
925.816	12483
925.924	12483
926.031	12631
926.138	12498
926.245	12479
926.352	12464
926.459	12589
926.566	12517
926.673	12323
926.779	12429
926.886	12285
926.993	12194
927.099	12144
927.206	12167
927.312	12163
927.419	12216
927.525	12087
927.631	12057
927.737	12110
927.843	12030
927.95	11946
928.056	11992
928.162	12019
928.267	11950
928.373	12544
928.479	12076
928.585	11802
928.69	12003
928.796	11969
928.901	11817
929.007	11741
929.112	11870
929.218	11786
929.323	11745
929.428	11733
929.533	11851
929.638	11737
929.743	11714
929.848	11775
929.953	11672
930.058	11615
930.163	11391
930.267	11440
930.372	11539
930.477	11452
930.581	11653
930.685	11493
930.79	11360
930.894	11288
930.998	11284
931.103	11398
931.207	11083
931.311	11052
931.415	10934
931.519	10774
931.623	10721
