Data from test_V78500241_1049.txt Node
Date: Fri Mar 25 15:17:09 CST 2022
User: usil
Spectrometer: V785-0024
Trigger mode: 0
Integration Time (sec): 4.000000E-1
Scans to average: 1
Nonlinearity correction enabled: false
Boxcar width: 0
Storing dark spectrum: false
XAxis mode: Wavelengths
Number of Pixels in Spectrum: 1024
>>>>>Begin Spectral Data<<<<<
801.071	28135
801.214	28070
801.356	27861
801.499	27937
801.641	27633
801.783	27869
801.926	27808
802.068	27751
802.211	27682
802.353	27599
802.496	27431
802.638	27405
802.78	27382
802.923	27412
803.065	27481
803.208	27348
803.35	27420
803.492	27519
803.635	27534
803.777	27553
803.919	27572
804.061	27850
804.204	27667
804.346	27583
804.488	27370
804.63	27576
804.773	27427
804.915	27679
805.057	27690
805.199	27576
805.341	27694
805.483	27774
805.626	27720
805.768	27637
805.91	27682
806.052	27804
806.194	27690
806.336	27987
806.478	27903
806.62	27869
806.762	27983
806.904	28097
807.046	28299
807.188	28105
807.33	28169
807.472	28192
807.614	28002
807.756	28131
807.898	28044
808.04	28029
808.182	28147
808.324	28074
808.465	28093
808.607	28284
808.749	28356
808.891	28500
809.033	28615
809.174	28523
809.316	28352
809.458	28417
809.6	28432
809.741	28557
809.883	28577
810.025	28805
810.166	28664
810.308	28554
810.45	28577
810.591	28698
810.733	28497
810.875	28348
811.016	28272
811.158	28238
811.299	28493
811.441	28557
811.582	28615
811.724	28508
811.865	28356
812.007	28329
812.148	28455
812.29	28413
812.431	28664
812.573	28710
812.714	28588
812.855	28968
812.997	29014
813.138	29208
813.279	29090
813.421	29086
813.562	28911
813.703	28774
813.845	28634
813.986	28421
814.127	28268
814.268	28139
814.41	28329
814.551	28029
814.692	28097
814.833	28021
814.974	28139
815.115	28082
815.256	28116
815.397	27892
815.539	27987
815.68	27903
815.821	27888
815.962	27911
816.103	28029
816.244	27781
816.385	27690
816.526	27724
816.666	27500
816.807	27450
816.948	27530
817.089	27523
817.23	27526
817.371	27523
817.512	27530
817.653	27340
817.793	27412
817.934	27523
818.075	27561
818.216	27488
818.356	27329
818.497	27355
818.638	27249
818.778	27222
818.919	27329
819.06	27275
819.2	27302
819.341	27504
819.481	27367
819.622	27534
819.762	27873
819.903	27625
820.043	27568
820.184	27564
820.324	27545
820.465	27568
820.605	27656
820.746	27633
820.886	27557
821.026	27599
821.167	27530
821.307	27519
821.447	27408
821.588	27382
821.728	27279
821.868	27039
822.008	26937
822.149	26925
822.289	26910
822.429	26644
822.569	26674
822.709	26564
822.849	26389
822.99	26370
823.13	26374
823.27	26393
823.41	26278
823.55	26050
823.69	26313
823.83	26256
823.97	26164
824.11	25978
824.25	26107
824.389	26172
824.529	26191
824.669	26069
824.809	26332
824.949	26195
825.089	26202
825.228	26035
825.368	25940
825.508	25959
825.648	25970
825.787	26050
825.927	25959
826.067	25997
826.206	25921
826.346	25997
826.485	26016
826.625	25997
826.765	25997
826.904	25940
827.044	25670
827.183	25871
827.323	25685
827.462	25852
827.601	25753
827.741	25628
827.88	25753
828.02	25556
828.159	25670
828.298	25822
828.437	25674
828.577	25548
828.716	25852
828.855	25594
828.994	25472
829.134	25297
829.273	25430
829.412	25377
829.551	25247
829.69	25400
829.829	25472
829.968	25400
830.107	25434
830.246	25426
830.385	25282
830.524	25259
830.663	25057
830.802	25088
830.941	25015
831.08	24970
831.219	25038
831.357	25133
831.496	25312
831.635	24989
831.774	24875
831.913	24878
832.051	24787
832.19	24764
832.329	24886
832.467	24821
832.606	24669
832.744	24692
832.883	24612
833.022	24593
833.16	24597
833.299	24696
833.437	24829
833.576	24722
833.714	24779
833.852	24734
833.991	24787
834.129	24867
834.267	24745
834.406	24878
834.544	24764
834.682	24627
834.821	24707
834.959	24905
835.097	24730
835.235	24837
835.373	24787
835.511	24791
835.65	24665
835.788	24566
835.926	24456
836.064	24399
836.202	24445
836.34	24597
836.478	24551
836.615	24483
836.753	24608
836.891	24566
837.029	24719
837.167	24540
837.305	24513
837.443	24479
837.58	24403
837.718	24559
837.856	24437
837.993	24376
838.131	24467
838.269	24304
838.406	24239
838.544	24133
838.681	23984
838.819	23984
838.956	23958
839.094	23897
839.231	23999
839.369	24038
839.506	24258
839.643	24174
839.781	23927
839.918	23961
840.055	23912
840.193	23897
840.33	23992
840.467	23882
840.604	23889
840.742	23931
840.879	23646
841.016	23687
841.153	23722
841.29	23942
841.427	23813
841.564	23756
841.701	23805
841.838	23790
841.975	23653
842.112	23707
842.249	23604
842.385	23524
842.522	23809
842.659	23627
842.796	23539
842.933	23585
843.069	23558
843.206	23558
843.343	23482
843.479	23611
843.616	23687
843.752	23436
843.889	23341
844.025	23551
844.162	23387
844.298	23471
844.435	23322
844.571	23193
844.708	23334
844.844	23455
844.98	23387
845.117	23493
845.253	23197
845.389	23261
845.525	23223
845.661	23083
845.798	23041
845.934	23056
846.07	23044
846.206	23193
846.342	23174
846.478	23010
846.614	22771
846.75	22797
846.886	22744
847.022	22877
847.158	22968
847.294	22839
847.429	22774
847.565	22748
847.701	23052
847.837	22565
847.972	22500
848.108	22577
848.244	22630
848.379	22493
848.515	22367
848.65	22322
848.786	22409
848.921	22390
849.057	22573
849.192	22382
849.328	22394
849.463	22481
849.598	22287
849.734	22280
849.869	22211
850.004	22215
850.14	22154
850.275	22211
850.41	22059
850.545	22055
850.68	21964
850.815	22166
850.95	22112
851.085	22447
851.22	22200
851.355	22154
851.49	22055
851.625	22120
851.76	22169
851.895	22128
852.03	22082
852.165	22196
852.299	22154
852.434	22185
852.569	22223
852.703	22154
852.838	22120
852.973	22329
853.107	22192
853.242	22131
853.376	22059
853.511	21835
853.645	21907
853.78	22032
853.914	21869
854.048	21941
854.183	21865
854.317	21987
854.451	22200
854.585	21945
854.72	21960
854.854	22093
854.988	21835
855.122	22044
855.256	21739
855.39	21903
855.524	22032
855.658	22002
855.792	22082
855.926	21994
856.06	22090
856.194	22093
856.327	22067
856.461	21953
856.595	21895
856.729	21778
856.862	22074
856.996	21922
857.13	22166
857.263	22135
857.397	22112
857.53	22010
857.664	21953
857.797	21945
857.931	22002
858.064	21930
858.197	22093
858.331	21949
858.464	21949
858.597	21926
858.731	21918
858.864	21911
858.997	21930
859.13	21899
859.263	21991
859.396	22010
859.529	21922
859.662	21968
859.795	21937
859.928	22040
860.061	22051
860.194	22185
860.327	22097
860.46	22036
860.592	22124
860.725	22112
860.858	22116
860.99	21907
861.123	21857
861.256	21899
861.388	22002
861.521	22702
861.653	21842
861.786	21831
861.918	21781
862.05	21842
862.183	22044
862.315	21960
862.447	21949
862.58	21861
862.712	21751
862.844	21652
862.976	21705
863.108	21622
863.24	22082
863.372	21625
863.504	21701
863.636	21667
863.768	21789
863.9	21523
864.032	21679
864.164	21686
864.296	21641
864.428	21816
864.559	21663
864.691	21732
864.823	21690
864.954	21595
865.086	21610
865.217	21656
865.349	21485
865.48	21572
865.612	21652
865.743	21564
865.875	21587
866.006	21568
866.137	21587
866.269	21553
866.4	21587
866.531	21507
866.662	21481
866.793	21447
866.924	21568
867.055	21496
867.186	21488
867.317	21511
867.448	21435
867.579	21477
867.71	21245
867.841	21340
867.972	21393
868.103	21492
868.233	21458
868.364	21481
868.495	21610
868.625	21770
868.756	21819
868.886	21633
869.017	21732
869.147	21850
869.278	21812
869.408	21762
869.539	21747
869.669	21892
869.799	21759
869.929	21998
870.06	21945
870.19	22017
870.32	21941
870.45	22078
870.58	22124
870.71	22242
870.84	22280
870.97	22059
871.1	22086
871.23	22261
871.36	22265
871.489	22238
871.619	22280
871.749	22322
871.879	22310
872.008	22409
872.138	22215
872.267	22421
872.397	22234
872.526	22196
872.656	22192
872.785	22166
872.915	22352
873.044	22398
873.173	22322
873.303	22516
873.432	22424
873.561	22443
873.69	22371
873.819	22337
873.948	22523
874.077	22318
874.206	22322
874.335	22424
874.464	22512
874.593	22497
874.722	22527
874.851	22660
874.979	22577
875.108	22717
875.237	22527
875.365	22375
875.494	22573
875.623	22538
875.751	22592
875.88	22557
876.008	22615
876.136	22733
876.265	22987
876.393	22965
876.521	22968
876.65	22991
876.778	23052
876.906	22953
877.034	22786
877.162	22908
877.29	22725
877.418	22885
877.546	23003
877.674	22847
877.802	22843
877.93	22946
878.058	22820
878.185	22850
878.313	22881
878.441	22858
878.568	22797
878.696	22824
878.824	23048
878.951	23052
879.079	23189
879.206	23155
879.333	23079
879.461	23060
879.588	22930
879.715	23071
879.842	23041
879.97	23025
880.097	22809
880.224	22809
880.351	22854
880.478	22645
880.605	22664
880.732	22733
880.859	22923
880.986	22694
881.112	22637
881.239	22573
881.366	22641
881.493	22409
881.619	22352
881.746	22253
881.872	22360
881.999	22367
882.125	22192
882.252	22249
882.378	22329
882.505	22470
882.631	22139
882.757	21979
882.883	22025
883.01	21922
883.136	21945
883.262	21857
883.388	21785
883.514	22010
883.64	22036
883.766	21934
883.892	21747
884.018	21724
884.143	21972
884.269	21861
884.395	21583
884.52	21530
884.646	21580
884.772	21534
884.897	21538
885.023	21568
885.148	21774
885.274	21679
885.399	21797
885.524	21599
885.65	21568
885.775	21698
885.9	21595
886.025	21808
886.15	21728
886.275	21648
886.4	21473
886.525	21545
886.65	21454
886.775	21458
886.9	21686
887.025	21819
887.149	21447
887.274	21397
887.399	21374
887.523	21488
887.648	21355
887.773	21233
887.897	21473
888.021	21310
888.146	21363
888.27	21439
888.395	21439
888.519	21477
888.643	21348
888.767	21389
888.891	21363
889.015	21252
889.139	21233
889.263	21233
889.387	21313
889.511	21313
889.635	21310
889.759	21188
889.883	21176
890.006	21195
890.13	21355
890.254	21146
890.377	21188
890.501	20902
890.624	20769
890.748	21047
890.871	20735
890.995	20785
891.118	20739
891.241	20674
891.364	20769
891.488	20891
891.611	20773
891.734	20750
891.857	20781
891.98	20739
892.103	20781
892.226	20781
892.349	20602
892.471	20484
892.594	20731
892.717	20750
892.839	20602
892.962	20617
893.085	20788
893.207	20746
893.33	20590
893.452	20701
893.575	20788
893.697	20708
893.819	20712
893.941	20861
894.064	20785
894.186	20583
894.308	20556
894.43	20842
894.552	20815
894.674	20731
894.796	20526
894.918	20617
895.04	20575
895.161	20648
895.283	20678
895.405	20526
895.526	20708
895.648	20621
895.769	20762
895.891	20590
896.012	20746
896.134	20724
896.255	20583
896.376	20682
896.498	20598
896.619	20667
896.74	20640
896.861	20636
896.982	20925
897.103	21085
897.224	20895
897.345	20819
897.466	20781
897.587	21005
897.708	21001
897.828	20807
897.949	20845
898.07	20670
898.19	20735
898.311	20975
898.431	20735
898.552	20731
898.672	20914
898.792	21020
898.913	20823
899.033	20769
899.153	20693
899.273	20503
899.393	20640
899.513	20640
899.633	20617
899.753	20625
899.873	20594
899.993	20602
900.113	20556
900.232	20545
900.352	20488
900.472	20495
900.591	20301
900.711	20492
900.83	20339
900.95	20465
901.069	20431
901.189	20317
901.308	20081
901.427	19864
901.546	19936
901.665	19883
901.784	19978
901.904	19830
902.023	19670
902.141	19491
902.26	19499
902.379	19548
902.498	19464
902.617	19521
902.735	19525
902.854	19483
902.973	19362
903.091	19206
903.21	19084
903.328	19110
903.446	19015
903.565	18867
903.683	18825
903.801	18810
903.919	18856
904.038	18886
904.156	18681
904.274	18684
904.392	18582
904.51	18517
904.627	18627
904.745	18776
904.863	18650
904.981	18391
905.098	18311
905.216	18277
905.334	18418
905.451	18353
905.569	18285
905.686	18399
905.803	18414
905.921	18182
906.038	18258
906.155	18140
906.272	18079
906.389	18064
906.506	17878
906.623	17832
906.74	17809
906.857	17779
906.974	17748
907.091	17969
907.208	17992
907.324	17813
907.441	17752
907.557	17722
907.674	17543
907.79	17566
907.907	17520
908.023	17684
908.139	17528
908.256	17558
908.372	17543
908.488	17570
908.604	17337
908.72	17216
908.836	17284
908.952	17174
909.068	17269
909.184	17528
909.3	17376
909.415	17322
909.531	17258
909.647	17010
909.762	17025
909.878	17010
909.993	17025
910.108	16957
910.224	17003
910.339	17010
910.454	16866
910.57	16786
910.685	16759
910.8	17048
910.915	16984
911.03	16786
911.145	16607
911.259	16660
911.374	16584
911.489	16451
911.604	16436
911.718	16306
911.833	16310
911.947	16246
912.062	16154
912.176	16329
912.291	16375
912.405	16329
912.519	16489
912.633	16512
912.748	16367
912.862	16310
912.976	16150
913.09	16169
913.204	16032
913.318	16116
913.431	16226
913.545	16219
913.659	16306
913.772	16071
913.886	16006
914	16010
914.113	16006
914.226	16029
914.34	16010
914.453	15884
914.566	16025
914.68	15781
914.793	15717
914.906	15633
915.019	15549
915.132	15572
915.245	15428
915.358	15507
915.47	15454
915.583	15549
915.696	15584
915.809	15679
915.921	15633
916.034	15496
916.146	15412
916.259	15428
916.371	15428
916.483	15477
916.595	15310
916.708	15336
916.82	15420
916.932	15294
917.044	15283
917.156	15249
917.268	15233
917.38	15226
917.491	15218
917.603	15116
917.715	15108
917.826	15294
917.938	15199
918.049	14937
918.161	15146
918.272	15317
918.384	15275
918.495	15070
918.606	14887
918.717	14910
918.828	14929
918.939	14982
919.05	14880
919.161	14895
919.272	14701
919.383	14826
919.494	14975
919.604	15135
919.715	14853
919.826	14872
919.936	14864
920.047	14963
920.157	14811
920.267	15051
920.378	14830
920.488	14834
920.598	15032
920.708	15123
920.818	14963
920.928	14971
921.038	15085
921.148	15093
921.258	14971
921.368	14708
921.477	14590
921.587	14579
921.697	14438
921.806	14571
921.916	14514
922.025	14385
922.134	14305
922.244	14172
922.353	14278
922.462	14168
922.571	14077
922.68	13845
922.789	13871
922.898	13830
923.007	13970
923.116	13909
923.224	13955
923.333	13776
923.442	13708
923.55	13666
923.659	13681
923.767	13811
923.876	13571
923.984	13655
924.092	13590
924.201	13677
924.309	13651
924.417	13540
924.525	13518
924.633	13544
924.741	14537
924.849	13324
924.956	13453
925.064	13388
925.172	13187
925.279	13183
925.387	13316
925.494	13198
925.602	13339
925.709	13392
925.816	13141
925.924	13232
926.031	13324
926.138	13339
926.245	13221
926.352	13091
926.459	13278
926.566	13293
926.673	13217
926.779	12973
926.886	13042
926.993	12905
927.099	12719
927.206	12878
927.312	12791
927.419	12856
927.525	12783
927.631	12745
927.737	12707
927.843	12589
927.95	12551
928.056	12684
928.162	12642
928.267	12654
928.373	13183
928.479	12688
928.585	12532
928.69	12483
928.796	12601
928.901	12422
929.007	12315
929.112	12551
929.218	12471
929.323	12361
929.428	12369
929.533	12486
929.638	12300
929.743	12281
929.848	12353
929.953	12243
930.058	12098
930.163	12022
930.267	12148
930.372	12133
930.477	12041
930.581	12270
930.685	12049
930.79	11984
930.894	11920
930.998	11847
931.103	11980
931.207	11630
931.311	11566
931.415	11459
931.519	11265
931.623	11242
