Data from test_V78500241_968.txt Node
Date: Fri Mar 25 15:16:35 CST 2022
User: usil
Spectrometer: V785-0024
Trigger mode: 0
Integration Time (sec): 4.000000E-1
Scans to average: 1
Nonlinearity correction enabled: false
Boxcar width: 0
Storing dark spectrum: false
XAxis mode: Wavelengths
Number of Pixels in Spectrum: 1024
>>>>>Begin Spectral Data<<<<<
801.071	28040
801.214	27945
801.356	27854
801.499	27808
801.641	27747
801.783	27736
801.926	27755
802.068	27606
802.211	27629
802.353	27500
802.496	27469
802.638	27317
802.78	27154
802.923	27313
803.065	27237
803.208	27321
803.35	27252
803.492	27351
803.635	27515
803.777	27370
803.919	27488
804.061	27743
804.204	27648
804.346	27431
804.488	27355
804.63	27587
804.773	27443
804.915	27504
805.057	27603
805.199	27488
805.341	27610
805.483	27576
805.626	27724
805.768	27496
805.91	27682
806.052	27682
806.194	27690
806.336	27907
806.478	27625
806.62	27667
806.762	27823
806.904	27861
807.046	28242
807.188	28059
807.33	28090
807.472	28093
807.614	28105
807.756	28097
807.898	27941
808.04	27922
808.182	28010
808.324	27968
808.465	28109
808.607	28215
808.749	28303
808.891	28329
809.033	28451
809.174	28478
809.316	28284
809.458	28299
809.6	28318
809.741	28561
809.883	28428
810.025	28577
810.166	28637
810.308	28634
810.45	28584
810.591	28573
810.733	28401
810.875	28356
811.016	28257
811.158	28078
811.299	28276
811.441	28405
811.582	28462
811.724	28348
811.865	28268
812.007	28352
812.148	28238
812.29	28443
812.431	28615
812.573	28660
812.714	28748
812.855	29025
812.997	28938
813.138	29109
813.279	29109
813.421	28968
813.562	28816
813.703	28729
813.845	28535
813.986	28329
814.127	28169
814.268	27914
814.41	28002
814.551	27998
814.692	27979
814.833	28055
814.974	28120
815.115	28029
815.256	27800
815.397	27968
815.539	27724
815.68	27770
815.821	27762
815.962	27895
816.103	27899
816.244	27648
816.385	27644
816.526	27728
816.666	27519
816.807	27329
816.948	27367
817.089	27401
817.23	27424
817.371	27256
817.512	27397
817.653	27275
817.793	27287
817.934	27256
818.075	27283
818.216	27412
818.356	27329
818.497	27310
818.638	26948
818.778	27070
818.919	27043
819.06	27230
819.2	27431
819.341	27313
819.481	27332
819.622	27481
819.762	27606
819.903	27587
820.043	27595
820.184	27507
820.324	27473
820.465	27485
820.605	27519
820.746	27447
820.886	27374
821.026	27348
821.167	27378
821.307	27485
821.447	27192
821.588	27389
821.728	27192
821.868	26956
822.008	26940
822.149	26819
822.289	26929
822.429	26587
822.569	26480
822.709	26400
822.849	26423
822.99	26366
823.13	26267
823.27	26351
823.41	26054
823.55	26065
823.69	26210
823.83	26153
823.97	26157
824.11	25780
824.25	25966
824.389	25894
824.529	26142
824.669	25830
824.809	26039
824.949	26062
825.089	26180
825.228	26046
825.368	25864
825.508	25932
825.648	25860
825.787	25818
825.927	25925
826.067	25833
826.206	25932
826.346	25970
826.485	25932
826.625	25849
826.765	25917
826.904	25811
827.044	25689
827.183	25670
827.323	25662
827.462	25453
827.601	25483
827.741	25506
827.88	25651
828.02	25388
828.159	25533
828.298	25681
828.437	25635
828.577	25441
828.716	25734
828.855	25506
828.994	25308
829.134	25270
829.273	25388
829.412	25362
829.551	25236
829.69	25331
829.829	25324
829.968	25346
830.107	25365
830.246	25316
830.385	25308
830.524	25145
830.663	25126
830.802	24996
830.941	24821
831.08	24913
831.219	25034
831.357	25072
831.496	25183
831.635	25034
831.774	24939
831.913	24954
832.051	24692
832.19	24661
832.329	24703
832.467	24601
832.606	24456
832.744	24414
832.883	24582
833.022	24642
833.16	24525
833.299	24536
833.437	24722
833.576	24681
833.714	24593
833.852	24779
833.991	24779
834.129	24795
834.267	24692
834.406	24700
834.544	24646
834.682	24631
834.821	24650
834.959	24856
835.097	24677
835.235	24711
835.373	24696
835.511	24631
835.65	24608
835.788	24445
835.926	24376
836.064	24270
836.202	24270
836.34	24532
836.478	24544
836.615	24582
836.753	24418
836.891	24437
837.029	24475
837.167	24479
837.305	24433
837.443	24418
837.58	24205
837.718	24391
837.856	24361
837.993	24319
838.131	24334
838.269	24140
838.406	24110
838.544	24068
838.681	23866
838.819	23931
838.956	23817
839.094	23752
839.231	23897
839.369	23954
839.506	24148
839.643	24018
839.781	23824
839.918	23767
840.055	23615
840.193	23726
840.33	23767
840.467	23809
840.604	23703
840.742	23901
840.879	23524
841.016	23543
841.153	23429
841.29	23764
841.427	23687
841.564	23687
841.701	23684
841.838	23516
841.975	23535
842.112	23630
842.249	23528
842.385	23471
842.522	23703
842.659	23547
842.796	23509
842.933	23611
843.069	23376
843.206	23452
843.343	23520
843.479	23387
843.616	23379
843.752	23246
843.889	23178
844.025	23353
844.162	23254
844.298	23280
844.435	23345
844.571	23147
844.708	23318
844.844	23509
844.98	23299
845.117	23311
845.253	23166
845.389	23216
845.525	23105
845.661	23029
845.798	22835
845.934	23075
846.07	22873
846.206	22980
846.342	23090
846.478	23033
846.614	22733
846.75	22691
846.886	22820
847.022	22854
847.158	22668
847.294	22660
847.429	22630
847.565	22767
847.701	22938
847.837	22367
847.972	22447
848.108	22592
848.244	22417
848.379	22284
848.515	22325
848.65	22371
848.786	22249
848.921	22303
849.057	22409
849.192	22344
849.328	22337
849.463	22341
849.598	22249
849.734	22154
849.869	22166
850.004	22109
850.14	22154
850.275	22032
850.41	22032
850.545	22044
850.68	22017
850.815	21903
850.95	22070
851.085	22265
851.22	22112
851.355	22128
851.49	22051
851.625	21956
851.76	22040
851.895	21983
852.03	21953
852.165	22082
852.299	22048
852.434	22185
852.569	22181
852.703	22021
852.838	22154
852.973	22181
853.107	22257
853.242	22059
853.376	21701
853.511	21743
853.645	21892
853.78	21991
853.914	21945
854.048	21876
854.183	21831
854.317	22029
854.451	22128
854.585	21816
854.72	21850
854.854	22029
854.988	21762
855.122	21751
855.256	21701
855.39	21850
855.524	21964
855.658	21911
855.792	22017
855.926	21998
856.06	21850
856.194	21968
856.327	21857
856.461	21644
856.595	21793
856.729	21907
856.862	21968
856.996	21899
857.13	21888
857.263	21953
857.397	21975
857.53	21778
857.664	21903
857.797	21884
857.931	22029
858.064	21903
858.197	21975
858.331	21895
858.464	21778
858.597	21785
858.731	21804
858.864	21747
858.997	21895
859.13	21861
859.263	21876
859.396	21968
859.529	21838
859.662	21922
859.795	21797
859.928	21766
860.061	22101
860.194	22196
860.327	21964
860.46	21930
860.592	21945
860.725	22032
860.858	22013
860.99	21945
861.123	21797
861.256	21713
861.388	21964
861.521	22645
861.653	21656
861.786	21701
861.918	21576
862.05	21759
862.183	21831
862.315	21701
862.447	21922
862.58	21941
862.712	21610
862.844	21488
862.976	21580
863.108	21667
863.24	21895
863.372	21504
863.504	21606
863.636	21561
863.768	21660
863.9	21534
864.032	21610
864.164	21530
864.296	21557
864.428	21660
864.559	21629
864.691	21709
864.823	21496
864.954	21530
865.086	21572
865.217	21610
865.349	21374
865.48	21447
865.612	21477
865.743	21599
865.875	21469
866.006	21336
866.137	21515
866.269	21507
866.4	21469
866.531	21488
866.662	21447
866.793	21389
866.924	21435
867.055	21336
867.186	21344
867.317	21462
867.448	21237
867.579	21329
867.71	21306
867.841	21401
867.972	21439
868.103	21367
868.233	21469
868.364	21412
868.495	21443
868.625	21583
868.756	21755
868.886	21568
869.017	21568
869.147	21770
869.278	21698
869.408	21568
869.539	21633
869.669	21622
869.799	21580
869.929	21698
870.06	21694
870.19	21968
870.32	21876
870.45	21926
870.58	21949
870.71	22086
870.84	22029
870.97	22021
871.1	22010
871.23	22154
871.36	22352
871.489	22139
871.619	22166
871.749	22147
871.879	22169
872.008	22352
872.138	22219
872.267	22261
872.397	22040
872.526	22036
872.656	22124
872.785	21903
872.915	22192
873.044	22257
873.173	22356
873.303	22238
873.432	22234
873.561	22344
873.69	22280
873.819	22253
873.948	22249
874.077	22257
874.206	22295
874.335	22219
874.464	22352
874.593	22394
874.722	22481
874.851	22390
874.979	22462
875.108	22432
875.237	22284
875.365	22341
875.494	22405
875.623	22573
875.751	22424
875.88	22523
876.008	22569
876.136	22653
876.265	22831
876.393	22949
876.521	22877
876.65	22991
876.778	22843
876.906	22828
877.034	22774
877.162	22869
877.29	22752
877.418	22854
877.546	22774
877.674	22774
877.802	22672
877.93	22793
878.058	22755
878.185	22694
878.313	22763
878.441	22725
878.568	22592
878.696	22767
878.824	22850
878.951	22858
879.079	22889
879.206	23033
879.333	22949
879.461	22812
879.588	22915
879.715	22991
879.842	22984
879.97	22904
880.097	22645
880.224	22557
880.351	22611
880.478	22626
880.605	22554
880.732	22596
880.859	22828
880.986	22584
881.112	22500
881.239	22481
881.366	22295
881.493	22234
881.619	22200
881.746	22166
881.872	22219
881.999	22093
882.125	22124
882.252	22173
882.378	22188
882.505	22314
882.631	22044
882.757	21888
882.883	21922
883.01	21998
883.136	21835
883.262	21781
883.388	21660
883.514	21964
883.64	21861
883.766	21903
883.892	21622
884.018	21629
884.143	21842
884.269	21819
884.395	21557
884.52	21542
884.646	21568
884.772	21488
884.897	21412
885.023	21496
885.148	21599
885.274	21705
885.399	21652
885.524	21603
885.65	21568
885.775	21469
885.9	21504
886.025	21568
886.15	21561
886.275	21481
886.4	21416
886.525	21618
886.65	21302
886.775	21370
886.9	21606
887.025	21713
887.149	21507
887.274	21367
887.399	21260
887.523	21374
887.648	21260
887.773	21268
887.897	21340
888.021	21428
888.146	21173
888.27	21317
888.395	21447
888.519	21332
888.643	21298
888.767	21321
888.891	21214
889.015	21024
889.139	21150
889.263	21039
889.387	21188
889.511	21203
889.635	21169
889.759	21017
889.883	21123
890.006	21024
890.13	21176
890.254	20933
890.377	21013
890.501	20921
890.624	20857
890.748	20861
890.871	20735
890.995	20644
891.118	20640
891.241	20575
891.364	20648
891.488	20724
891.611	20594
891.734	20720
891.857	20720
891.98	20575
892.103	20621
892.226	20644
892.349	20564
892.471	20518
892.594	20499
892.717	20575
892.839	20457
892.962	20537
893.085	20530
893.207	20473
893.33	20473
893.452	20362
893.575	20667
893.697	20492
893.819	20640
893.941	20724
894.064	20693
894.186	20488
894.308	20446
894.43	20488
894.552	20625
894.674	20469
894.796	20492
894.918	20499
895.04	20461
895.161	20613
895.283	20629
895.405	20431
895.526	20541
895.648	20617
895.769	20602
895.891	20495
896.012	20648
896.134	20617
896.255	20552
896.376	20533
896.498	20461
896.619	20412
896.74	20575
896.861	20484
896.982	20887
897.103	20891
897.224	20788
897.345	20667
897.466	20708
897.587	20606
897.708	20579
897.828	20731
897.949	20697
898.07	20602
898.19	20727
898.311	20762
898.431	20640
898.552	20659
898.672	20792
898.792	20788
898.913	20682
899.033	20625
899.153	20446
899.273	20389
899.393	20457
899.513	20431
899.633	20476
899.753	20374
899.873	20366
899.993	20526
900.113	20454
900.232	20495
900.352	20313
900.472	20263
900.591	20142
900.711	20301
900.83	20278
900.95	20252
901.069	20404
901.189	20126
901.308	19875
901.427	19776
901.546	19852
901.665	19826
901.784	19658
901.904	19708
902.023	19594
902.141	19373
902.26	19331
902.379	19381
902.498	19369
902.617	19282
902.735	19304
902.854	19301
902.973	19225
903.091	19072
903.21	19095
903.328	18916
903.446	18920
903.565	18825
903.683	18825
903.801	18772
903.919	18764
904.038	18620
904.156	18597
904.274	18612
904.392	18639
904.51	18536
904.627	18494
904.745	18639
904.863	18616
904.981	18319
905.098	18319
905.216	18239
905.334	18205
905.451	18213
905.569	18228
905.686	18171
905.803	18213
905.921	18003
906.038	18171
906.155	18030
906.272	18038
906.389	17980
906.506	17863
906.623	17764
906.74	17756
906.857	17699
906.974	17596
907.091	17843
907.208	17859
907.324	17756
907.441	17672
907.557	17585
907.674	17467
907.79	17493
907.907	17429
908.023	17528
908.139	17429
908.256	17398
908.372	17406
908.488	17433
908.604	17246
908.72	17117
908.836	17208
908.952	17200
909.068	17170
909.184	17200
909.3	17189
909.415	17250
909.531	17117
909.647	16976
909.762	17022
909.878	16881
909.993	16946
910.108	16824
910.224	16797
910.339	16831
910.454	16816
910.57	16668
910.685	16660
910.8	16980
910.915	16866
911.03	16664
911.145	16588
911.259	16481
911.374	16493
911.489	16360
911.604	16344
911.718	16246
911.833	16196
911.947	16207
912.062	16021
912.176	16188
912.291	16268
912.405	16109
912.519	16417
912.633	16398
912.748	16196
912.862	16109
912.976	15975
913.09	15926
913.204	15987
913.318	16055
913.431	15953
913.545	16143
913.659	16131
913.772	15953
913.886	15956
914	15751
914.113	15907
914.226	15956
914.34	15903
914.453	15751
914.566	15861
914.68	15812
914.793	15679
914.906	15549
915.019	15351
915.132	15450
915.245	15416
915.358	15401
915.47	15401
915.583	15389
915.696	15424
915.809	15473
915.921	15435
916.034	15397
916.146	15359
916.259	15287
916.371	15458
916.483	15408
916.595	15260
916.708	15298
916.82	15192
916.932	15302
917.044	15264
917.156	15146
917.268	15077
917.38	15165
917.491	15020
917.603	15135
917.715	15058
917.826	15108
917.938	15028
918.049	14826
918.161	14979
918.272	15157
918.384	15131
918.495	15043
918.606	14941
918.717	14819
918.828	14880
918.939	14830
919.05	14678
919.161	14830
919.272	14640
919.383	14564
919.494	14895
919.604	15005
919.715	14872
919.826	14716
919.936	14708
920.047	14857
920.157	14708
920.267	14979
920.378	14754
920.488	14682
920.598	14914
920.708	15157
920.818	14872
920.928	14925
921.038	15028
921.148	15070
921.258	14651
921.368	14564
921.477	14530
921.587	14473
921.697	14320
921.806	14415
921.916	14317
922.025	14233
922.134	14195
922.244	14100
922.353	14237
922.462	13978
922.571	13974
922.68	13845
922.789	13814
922.898	13731
923.007	13666
923.116	13845
923.224	13712
923.333	13727
923.442	13601
923.55	13540
923.659	13662
923.767	13643
923.876	13594
923.984	13795
924.092	13571
924.201	13502
924.309	13559
924.417	13540
924.525	13514
924.633	13521
924.741	14301
924.849	13198
924.956	13324
925.064	13282
925.172	13065
925.279	13198
925.387	13217
925.494	13187
925.602	13308
925.709	13225
925.816	13088
925.924	13088
926.031	13251
926.138	12993
926.245	13221
926.352	13034
926.459	13209
926.566	13194
926.673	13015
926.779	12924
926.886	12966
926.993	12779
927.099	12783
927.206	12696
927.312	12582
927.419	12909
927.525	12798
927.631	12810
927.737	12707
927.843	12525
927.95	12456
928.056	12540
928.162	12559
928.267	12627
928.373	13160
928.479	12578
928.585	12399
928.69	12506
928.796	12570
928.901	12445
929.007	12304
929.112	12475
929.218	12258
929.323	12456
929.428	12197
929.533	12388
929.638	12247
929.743	12182
929.848	12258
929.953	12311
930.058	12194
930.163	12026
930.267	11992
930.372	12167
930.477	11916
930.581	12186
930.685	11973
930.79	11870
930.894	11859
930.998	11813
931.103	11958
931.207	11592
931.311	11459
931.415	11493
931.519	11261
931.623	11132
