Data from test_V78500241_2532.txt Node
Date: Fri Mar 25 15:27:29 CST 2022
User: usil
Spectrometer: V785-0024
Trigger mode: 0
Integration Time (sec): 4.000000E-1
Scans to average: 1
Nonlinearity correction enabled: false
Boxcar width: 0
Storing dark spectrum: false
XAxis mode: Wavelengths
Number of Pixels in Spectrum: 1024
>>>>>Begin Spectral Data<<<<<
801.071	27264
801.214	27192
801.356	26887
801.499	26823
801.641	26758
801.783	26781
801.926	26838
802.068	26769
802.211	26568
802.353	26621
802.496	26298
802.638	26343
802.78	26381
802.923	26465
803.065	26172
803.208	26202
803.35	26465
803.492	26511
803.635	26518
803.777	26339
803.919	26450
804.061	26887
804.204	26625
804.346	26530
804.488	26358
804.63	26594
804.773	26400
804.915	26632
805.057	26686
805.199	26396
805.341	26594
805.483	26617
805.626	26507
805.768	26492
805.91	26552
806.052	26705
806.194	26575
806.336	26739
806.478	26746
806.62	26606
806.762	26689
806.904	26986
807.046	27074
807.188	27081
807.33	27138
807.472	27123
807.614	26876
807.756	26868
807.898	26944
808.04	26746
808.182	26754
808.324	26834
808.465	26891
808.607	27062
808.749	27112
808.891	27332
809.033	27424
809.174	27188
809.316	27142
809.458	27188
809.6	27085
809.741	27260
809.883	27275
810.025	27454
810.166	27481
810.308	27496
810.45	27412
810.591	27447
810.733	27230
810.875	27119
811.016	27089
811.158	27146
811.299	27203
811.441	27401
811.582	27454
811.724	27142
811.865	27123
812.007	27173
812.148	27230
812.29	27310
812.431	27397
812.573	27511
812.714	27629
812.855	27694
812.997	27679
813.138	27762
813.279	27857
813.421	27743
813.562	27492
813.703	27526
813.845	27378
813.986	27074
814.127	26960
814.268	26864
814.41	26823
814.551	26853
814.692	26785
814.833	26765
814.974	26876
815.115	26777
815.256	26701
815.397	26636
815.539	26686
815.68	26705
815.821	26568
815.962	26701
816.103	26617
816.244	26473
816.385	26396
816.526	26438
816.666	26278
816.807	26157
816.948	26252
817.089	26263
817.23	26111
817.371	26092
817.512	26088
817.653	26107
817.793	26050
817.934	26130
818.075	26191
818.216	26145
818.356	26142
818.497	25925
818.638	25860
818.778	25784
818.919	26027
819.06	25833
819.2	25951
819.341	26046
819.481	26126
819.622	26271
819.762	26278
819.903	26473
820.043	26244
820.184	26187
820.324	26199
820.465	26320
820.605	26161
820.746	26088
820.886	26005
821.026	26092
821.167	26157
821.307	26225
821.447	26134
821.588	26062
821.728	25936
821.868	25776
822.008	25662
822.149	25704
822.289	25544
822.429	25422
822.569	25381
822.709	25289
822.849	25099
822.99	25133
823.13	25251
823.27	25027
823.41	24954
823.55	24844
823.69	24977
823.83	24943
823.97	24844
824.11	24703
824.25	24833
824.389	24654
824.529	24882
824.669	24684
824.809	24852
824.949	24779
825.089	24825
825.228	24787
825.368	24612
825.508	24688
825.648	24612
825.787	24650
825.927	24612
826.067	24589
826.206	24582
826.346	24791
826.485	24623
826.625	24665
826.765	24711
826.904	24726
827.044	24350
827.183	24418
827.323	24418
827.462	24376
827.601	24342
827.741	24201
827.88	24258
828.02	24224
828.159	24414
828.298	24239
828.437	24441
828.577	24330
828.716	24407
828.855	24277
828.994	23980
829.134	24049
829.273	24117
829.412	24079
829.551	24068
829.69	24148
829.829	24102
829.968	24178
830.107	24239
830.246	24034
830.385	23992
830.524	23863
830.663	23984
830.802	23779
830.941	23509
831.08	23558
831.219	23843
831.357	23722
831.496	23923
831.635	23695
831.774	23623
831.913	23531
832.051	23573
832.19	23505
832.329	23368
832.467	23452
832.606	23345
832.744	23204
832.883	23368
833.022	23277
833.16	23368
833.299	23395
833.437	23341
833.576	23482
833.714	23497
833.852	23566
833.991	23433
834.129	23611
834.267	23459
834.406	23345
834.544	23436
834.682	23315
834.821	23425
834.959	23665
835.097	23383
835.235	23459
835.373	23512
835.511	23406
835.65	23406
835.788	23379
835.926	23151
836.064	23121
836.202	23269
836.34	23162
836.478	23345
836.615	23284
836.753	23231
836.891	23387
837.029	23220
837.167	23250
837.305	23189
837.443	23280
837.58	23102
837.718	23151
837.856	23235
837.993	23029
838.131	22984
838.269	22934
838.406	23086
838.544	22839
838.681	22801
838.819	22831
838.956	22573
839.094	22687
839.231	22580
839.369	22831
839.506	23014
839.643	22828
839.781	22523
839.918	22660
840.055	22630
840.193	22459
840.33	22637
840.467	22535
840.604	22580
840.742	22930
840.879	22386
841.016	22474
841.153	22421
841.29	22660
841.427	22436
841.564	22500
841.701	22736
841.838	22459
841.975	22405
842.112	22443
842.249	22474
842.385	22352
842.522	22577
842.659	22337
842.796	22204
842.933	22356
843.069	22226
843.206	22185
843.343	22272
843.479	22196
843.616	22280
843.752	21998
843.889	22040
844.025	22234
844.162	22036
844.298	22276
844.435	22086
844.571	22032
844.708	22086
844.844	22265
844.98	22322
845.117	22215
845.253	21975
845.389	21998
845.525	21926
845.661	21941
845.798	21774
845.934	21850
846.07	21778
846.206	21911
846.342	21994
846.478	21842
846.614	21709
846.75	21523
846.886	21568
847.022	21583
847.158	21583
847.294	21454
847.429	21633
847.565	21534
847.701	21804
847.837	21226
847.972	21214
848.108	21321
848.244	21462
848.379	21150
848.515	21135
848.65	21150
848.786	21203
848.921	21218
849.057	21317
849.192	21306
849.328	21237
849.463	21039
849.598	21154
849.734	21001
849.869	20994
850.004	20883
850.14	20880
850.275	20902
850.41	20830
850.545	20815
850.68	20853
850.815	20994
850.95	20765
851.085	21047
851.22	21066
851.355	21074
851.49	20876
851.625	20857
851.76	20906
851.895	20838
852.03	20899
852.165	20864
852.299	20986
852.434	20933
852.569	21085
852.703	20971
852.838	20895
852.973	21009
853.107	20887
853.242	20868
853.376	20880
853.511	20712
853.645	20762
853.78	20895
853.914	20708
854.048	20785
854.183	20670
854.317	20746
854.451	20906
854.585	20842
854.72	20754
854.854	20864
854.988	20689
855.122	20800
855.256	20511
855.39	20674
855.524	20819
855.658	20750
855.792	20724
855.926	20739
856.06	20800
856.194	20883
856.327	20807
856.461	20678
856.595	20606
856.729	20705
856.862	20857
856.996	20727
857.13	20853
857.263	20716
857.397	20861
857.53	20769
857.664	20705
857.797	20777
857.931	20868
858.064	20777
858.197	20781
858.331	20796
858.464	20617
858.597	20716
858.731	20739
858.864	20746
858.997	20663
859.13	20705
859.263	20762
859.396	20788
859.529	20716
859.662	20777
859.795	20731
859.928	20693
860.061	20807
860.194	20941
860.327	20800
860.46	20758
860.592	20872
860.725	20883
860.858	20819
860.99	20788
861.123	20720
861.256	20724
861.388	20705
861.521	21542
861.653	20560
861.786	20606
861.918	20594
862.05	20594
862.183	20617
862.315	20636
862.447	20621
862.58	20720
862.712	20396
862.844	20454
862.976	20552
863.108	20446
863.24	20876
863.372	20332
863.504	20507
863.636	20415
863.768	20552
863.9	20431
864.032	20347
864.164	20427
864.296	20431
864.428	20511
864.559	20446
864.691	20560
864.823	20564
864.954	20400
865.086	20488
865.217	20286
865.349	20275
865.48	20358
865.612	20244
865.743	20549
865.875	20366
866.006	20347
866.137	20286
866.269	20370
866.4	20351
866.531	20366
866.662	20389
866.793	20343
866.924	20328
867.055	20393
867.186	20313
867.317	20358
867.448	20180
867.579	20252
867.71	20248
867.841	20214
867.972	20362
868.103	20438
868.233	20313
868.364	20374
868.495	20442
868.625	20526
868.756	20590
868.886	20476
869.017	20552
869.147	20663
869.278	20579
869.408	20686
869.539	20518
869.669	20613
869.799	20530
869.929	20651
870.06	20644
870.19	20811
870.32	20830
870.45	20823
870.58	20937
870.71	21199
870.84	21135
870.97	20929
871.1	20963
871.23	21173
871.36	21157
871.489	21131
871.619	21108
871.749	21150
871.879	21226
872.008	21359
872.138	21119
872.267	21093
872.397	21058
872.526	20998
872.656	20944
872.785	20994
872.915	21104
873.044	21176
873.173	21252
873.303	21119
873.432	21325
873.561	21348
873.69	21116
873.819	21184
873.948	21176
874.077	21203
874.206	21112
874.335	21066
874.464	21310
874.593	21397
874.722	21226
874.851	21485
874.979	21454
875.108	21359
875.237	21252
875.365	21412
875.494	21447
875.623	21485
875.751	21408
875.88	21416
876.008	21500
876.136	21679
876.265	21732
876.393	21926
876.521	21846
876.65	21831
876.778	21857
876.906	21797
877.034	21785
877.162	21854
877.29	21694
877.418	21781
877.546	21781
877.674	21766
877.802	21671
877.93	21781
878.058	21819
878.185	21625
878.313	21698
878.441	21739
878.568	21576
878.696	21732
878.824	21800
878.951	21755
879.079	21926
879.206	21926
879.333	21846
879.461	21781
879.588	21892
879.715	21854
879.842	22074
879.97	21892
880.097	21694
880.224	21629
880.351	21572
880.478	21534
880.605	21538
880.732	21572
880.859	21770
880.986	21583
881.112	21553
881.239	21473
881.366	21321
881.493	21222
881.619	21157
881.746	21199
881.872	21154
881.999	21245
882.125	21074
882.252	21233
882.378	21123
882.505	21161
882.631	20990
882.757	20937
882.883	21009
883.01	20929
883.136	20765
883.262	20807
883.388	20663
883.514	20880
883.64	20861
883.766	20826
883.892	20648
884.018	20625
884.143	20834
884.269	20800
884.395	20659
884.52	20526
884.646	20587
884.772	20499
884.897	20488
885.023	20511
885.148	20613
885.274	20663
885.399	20537
885.524	20495
885.65	20583
885.775	20545
885.9	20476
886.025	20648
886.15	20636
886.275	20389
886.4	20400
886.525	20419
886.65	20328
886.775	20419
886.9	20651
887.025	20621
887.149	20396
887.274	20366
887.399	20263
887.523	20286
887.648	20237
887.773	20183
887.897	20317
888.021	20275
888.146	20206
888.27	20400
888.395	20457
888.519	20351
888.643	20267
888.767	20366
888.891	20145
889.015	20058
889.139	20199
889.263	20119
889.387	20168
889.511	20343
889.635	20130
889.759	19951
889.883	20058
890.006	20195
890.13	20119
890.254	20119
890.377	20039
890.501	19822
890.624	19799
890.748	19845
890.871	19795
890.995	19624
891.118	19605
891.241	19753
891.364	19715
891.488	19864
891.611	19693
891.734	19693
891.857	19807
891.98	19746
892.103	19689
892.226	19700
892.349	19571
892.471	19441
892.594	19582
892.717	19620
892.839	19563
892.962	19616
893.085	19734
893.207	19575
893.33	19460
893.452	19529
893.575	19567
893.697	19578
893.819	19769
893.941	19830
894.064	19674
894.186	19426
894.308	19495
894.43	19635
894.552	19727
894.674	19597
894.796	19525
894.918	19559
895.04	19499
895.161	19613
895.283	19620
895.405	19491
895.526	19590
895.648	19506
895.769	19590
895.891	19632
896.012	19655
896.134	19708
896.255	19571
896.376	19582
896.498	19597
896.619	19674
896.74	19563
896.861	19548
896.982	19906
897.103	20046
897.224	19906
897.345	19761
897.466	19693
897.587	19791
897.708	19883
897.828	19788
897.949	19811
898.07	19715
898.19	19761
898.311	19940
898.431	19693
898.552	19811
898.672	19868
898.792	19833
898.913	19788
899.033	19757
899.153	19582
899.273	19464
899.393	19544
899.513	19586
899.633	19712
899.753	19537
899.873	19514
899.993	19693
900.113	19529
900.232	19537
900.352	19540
900.472	19430
900.591	19301
900.711	19422
900.83	19346
900.95	19384
901.069	19392
901.189	19198
901.308	18920
901.427	18924
901.546	18932
901.665	18985
901.784	18973
901.904	18985
902.023	18646
902.141	18620
902.26	18536
902.379	18475
902.498	18429
902.617	18479
902.735	18544
902.854	18509
902.973	18422
903.091	18258
903.21	18049
903.328	18076
903.446	18064
903.565	17931
903.683	18060
903.801	17859
903.919	17973
904.038	17988
904.156	17737
904.274	17885
904.392	17733
904.51	17756
904.627	17790
904.745	17767
904.863	17779
904.981	17539
905.098	17391
905.216	17383
905.334	17471
905.451	17440
905.569	17433
905.686	17433
905.803	17353
905.921	17166
906.038	17254
906.155	17292
906.272	17181
906.389	17098
906.506	16984
906.623	16942
906.74	16927
906.857	16866
906.974	16866
907.091	16904
907.208	17022
907.324	16930
907.441	16847
907.557	16668
907.674	16649
907.79	16592
907.907	16698
908.023	16683
908.139	16687
908.256	16675
908.372	16519
908.488	16508
908.604	16382
908.72	16303
908.836	16432
908.952	16363
909.068	16455
909.184	16546
909.3	16447
909.415	16462
909.531	16280
909.647	16071
909.762	16223
909.878	16082
909.993	16162
910.108	16158
910.224	16059
910.339	16067
910.454	16002
910.57	15907
910.685	15789
910.8	16158
910.915	16120
911.03	15945
911.145	15728
911.259	15660
911.374	15800
911.489	15679
911.604	15614
911.718	15443
911.833	15481
911.947	15329
912.062	15405
912.176	15549
912.291	15511
912.405	15553
912.519	15603
912.633	15713
912.748	15496
912.862	15378
912.976	15351
913.09	15180
913.204	15252
913.318	15218
913.431	15374
913.545	15313
913.659	15317
913.772	15218
913.886	15112
914	15039
914.113	15142
914.226	15093
914.34	15116
914.453	15066
914.566	15093
914.68	15036
914.793	14941
914.906	14765
915.019	14693
915.132	14636
915.245	14667
915.358	14705
915.47	14674
915.583	14644
915.696	14705
915.809	14735
915.921	14823
916.034	14689
916.146	14556
916.259	14556
916.371	14720
916.483	14613
916.595	14537
916.708	14579
916.82	14575
916.932	14431
917.044	14499
917.156	14419
917.268	14362
917.38	14351
917.491	14324
917.603	14396
917.715	14385
917.826	14461
917.938	14355
918.049	14259
918.161	14267
918.272	14423
918.384	14442
918.495	14275
918.606	14138
918.717	14020
918.828	14149
918.939	14119
919.05	14005
919.161	14164
919.272	13955
919.383	14069
919.494	14191
919.604	14263
919.715	14149
919.826	14016
919.936	14111
920.047	14244
920.157	14103
920.267	14305
920.378	14050
920.488	14024
920.598	14278
920.708	14400
920.818	14142
920.928	14225
921.038	14473
921.148	14434
921.258	14027
921.368	13906
921.477	13860
921.587	13784
921.697	13734
921.806	13841
921.916	13674
922.025	13639
922.134	13521
922.244	13590
922.353	13597
922.462	13377
922.571	13343
922.68	13244
922.789	13194
922.898	13228
923.007	13171
923.116	13194
923.224	13126
923.333	13053
923.442	13050
923.55	12924
923.659	12993
923.767	13034
923.876	12913
923.984	12973
924.092	12871
924.201	12985
924.309	12886
924.417	12882
924.525	12722
924.633	12791
924.741	13708
924.849	12578
924.956	12821
925.064	12585
925.172	12486
925.279	12513
925.387	12555
925.494	12570
925.602	12631
925.709	12650
925.816	12528
925.924	12536
926.031	12570
926.138	12555
926.245	12574
926.352	12452
926.459	12555
926.566	12551
926.673	12422
926.779	12353
926.886	12350
926.993	12159
927.099	12117
927.206	12152
927.312	12041
927.419	12201
927.525	12106
927.631	12190
927.737	12041
927.843	12026
927.95	11813
928.056	11897
928.162	11977
928.267	12041
928.373	12703
928.479	12083
928.585	11870
928.69	11923
928.796	11969
928.901	11904
929.007	11672
929.112	11836
929.218	11684
929.323	11786
929.428	11684
929.533	11824
929.638	11642
929.743	11710
929.848	11691
929.953	11627
930.058	11566
930.163	11440
930.267	11455
930.372	11452
930.477	11372
930.581	11634
930.685	11528
930.79	11254
930.894	11414
930.998	11273
931.103	11452
931.207	11079
931.311	11018
931.415	10881
931.519	10736
931.623	10668
