Data from test_V78500241_2700.txt Node
Date: Fri Mar 25 15:28:39 CST 2022
User: usil
Spectrometer: V785-0024
Trigger mode: 0
Integration Time (sec): 4.000000E-1
Scans to average: 1
Nonlinearity correction enabled: false
Boxcar width: 0
Storing dark spectrum: false
XAxis mode: Wavelengths
Number of Pixels in Spectrum: 1024
>>>>>Begin Spectral Data<<<<<
801.071	27310
801.214	27157
801.356	26883
801.499	26785
801.641	26629
801.783	26587
801.926	26788
802.068	26644
802.211	26777
802.353	26678
802.496	26339
802.638	26278
802.78	26328
802.923	26168
803.065	26218
803.208	26103
803.35	26278
803.492	26427
803.635	26473
803.777	26317
803.919	26347
804.061	26750
804.204	26571
804.346	26389
804.488	26336
804.63	26343
804.773	26313
804.915	26503
805.057	26537
805.199	26453
805.341	26522
805.483	26598
805.626	26511
805.768	26495
805.91	26469
806.052	26526
806.194	26381
806.336	26739
806.478	26606
806.62	26484
806.762	26667
806.904	26762
807.046	27001
807.188	26944
807.33	27024
807.472	27074
807.614	26792
807.756	27013
807.898	26834
808.04	26842
808.182	26792
808.324	26880
808.465	26853
808.607	27013
808.749	27165
808.891	27165
809.033	27146
809.174	27188
809.316	27093
809.458	27218
809.6	27100
809.741	27188
809.883	27260
810.025	27325
810.166	27359
810.308	27420
810.45	27245
810.591	27348
810.733	27180
810.875	27169
811.016	27028
811.158	27157
811.299	27214
811.441	27264
811.582	27230
811.724	27093
811.865	27005
812.007	27024
812.148	27024
812.29	27077
812.431	27401
812.573	27427
812.714	27439
812.855	27618
812.997	27648
813.138	27675
813.279	27671
813.421	27561
813.562	27488
813.703	27538
813.845	27306
813.986	27043
814.127	26891
814.268	26872
814.41	26701
814.551	26693
814.692	26944
814.833	26750
814.974	26743
815.115	26735
815.256	26727
815.397	26678
815.539	26575
815.68	26473
815.821	26438
815.962	26571
816.103	26461
816.244	26366
816.385	26324
816.526	26313
816.666	26145
816.807	26134
816.948	26058
817.089	26077
817.23	26073
817.371	25936
817.512	26031
817.653	26001
817.793	25947
817.934	26020
818.075	25993
818.216	26008
818.356	26020
818.497	25989
818.638	25868
818.778	25685
818.919	25765
819.06	25830
819.2	25894
819.341	26107
819.481	25986
819.622	25940
819.762	26244
819.903	26202
820.043	26134
820.184	26138
820.324	26115
820.465	26351
820.605	26202
820.746	26084
820.886	25913
821.026	26050
821.167	26115
821.307	26161
821.447	26065
821.588	25917
821.728	25811
821.868	25677
822.008	25548
822.149	25514
822.289	25582
822.429	25426
822.569	25080
822.709	25293
822.849	25050
822.99	24970
823.13	25027
823.27	24920
823.41	24943
823.55	24703
823.69	24688
823.83	24894
823.97	24661
824.11	24673
824.25	24700
824.389	24521
824.529	24654
824.669	24574
824.809	24627
824.949	24544
825.089	24627
825.228	24673
825.368	24448
825.508	24517
825.648	24418
825.787	24555
825.927	24623
826.067	24376
826.206	24551
826.346	24528
826.485	24639
826.625	24426
826.765	24574
826.904	24426
827.044	24296
827.183	24285
827.323	24155
827.462	24254
827.601	24285
827.741	24159
827.88	24159
828.02	24178
828.159	24228
828.298	24292
828.437	24277
828.577	24167
828.716	24296
828.855	24155
828.994	23874
829.134	23942
829.273	23931
829.412	23954
829.551	23821
829.69	23980
829.829	24022
829.968	24007
830.107	24026
830.246	23832
830.385	23946
830.524	23847
830.663	23794
830.802	23638
830.941	23505
831.08	23528
831.219	23672
831.357	23646
831.496	23729
831.635	23505
831.774	23337
831.913	23490
832.051	23334
832.19	23258
832.329	23337
832.467	23166
832.606	23140
832.744	23197
832.883	23022
833.022	23231
833.16	23261
833.299	23216
833.437	23208
833.576	23353
833.714	23235
833.852	23307
833.991	23421
834.129	23341
834.267	23223
834.406	23174
834.544	23292
834.682	23280
834.821	23341
834.959	23360
835.097	23212
835.235	23250
835.373	23231
835.511	23212
835.65	23128
835.788	23208
835.926	22919
836.064	22991
836.202	22911
836.34	23124
836.478	23193
836.615	23010
836.753	23159
836.891	23155
837.029	23052
837.167	23079
837.305	23033
837.443	22953
837.58	22847
837.718	22976
837.856	23010
837.993	22972
838.131	22934
838.269	22809
838.406	22843
838.544	22801
838.681	22630
838.819	22504
838.956	22497
839.094	22394
839.231	22367
839.369	22596
839.506	22801
839.643	22771
839.781	22436
839.918	22348
840.055	22386
840.193	22329
840.33	22306
840.467	22306
840.604	22371
840.742	22736
840.879	22131
841.016	22390
841.153	22337
841.29	22580
841.427	22352
841.564	22428
841.701	22303
841.838	22348
841.975	22314
842.112	22280
842.249	22265
842.385	22204
842.522	22390
842.659	22143
842.796	21953
842.933	22169
843.069	22055
843.206	22109
843.343	22112
843.479	22169
843.616	22093
843.752	21895
843.889	21956
844.025	22021
844.162	21869
844.298	21926
844.435	21888
844.571	21865
844.708	21975
844.844	22166
844.98	22059
845.117	21975
845.253	21797
845.389	21755
845.525	21831
845.661	21667
845.798	21629
845.934	21739
846.07	21583
846.206	21644
846.342	21717
846.478	21644
846.614	21431
846.75	21264
846.886	21363
847.022	21526
847.158	21389
847.294	21302
847.429	21416
847.565	21279
847.701	21568
847.837	21039
847.972	21005
848.108	21241
848.244	21096
848.379	20906
848.515	21047
848.65	20921
848.786	20906
848.921	20921
849.057	21169
849.192	21036
849.328	20929
849.463	21024
849.598	20883
849.734	20921
849.869	20895
850.004	20883
850.14	20895
850.275	20773
850.41	20659
850.545	20629
850.68	20632
850.815	20777
850.95	20670
851.085	20895
851.22	20872
851.355	20849
851.49	20686
851.625	20724
851.76	20754
851.895	20693
852.03	20655
852.165	20697
852.299	20792
852.434	20754
852.569	20853
852.703	20804
852.838	20762
852.973	20765
853.107	20807
853.242	20590
853.376	20522
853.511	20434
853.645	20419
853.78	20617
853.914	20625
854.048	20450
854.183	20590
854.317	20579
854.451	20754
854.585	20492
854.72	20530
854.854	20629
854.988	20419
855.122	20511
855.256	20400
855.39	20609
855.524	20575
855.658	20564
855.792	20541
855.926	20632
856.06	20575
856.194	20632
856.327	20461
856.461	20530
856.595	20434
856.729	20579
856.862	20701
856.996	20514
857.13	20499
857.263	20712
857.397	20537
857.53	20454
857.664	20552
857.797	20590
857.931	20609
858.064	20495
858.197	20549
858.331	20629
858.464	20488
858.597	20533
858.731	20552
858.864	20480
858.997	20541
859.13	20583
859.263	20518
859.396	20552
859.529	20514
859.662	20613
859.795	20412
859.928	20533
860.061	20769
860.194	20682
860.327	20617
860.46	20689
860.592	20678
860.725	20663
860.858	20594
860.99	20537
861.123	20560
861.256	20476
861.388	20530
861.521	21237
861.653	20400
861.786	20408
861.918	20442
862.05	20351
862.183	20377
862.315	20480
862.447	20575
862.58	20495
862.712	20317
862.844	20210
862.976	20328
863.108	20355
863.24	20746
863.372	20206
863.504	20252
863.636	20282
863.768	20400
863.9	20286
864.032	20256
864.164	20252
864.296	20248
864.428	20355
864.559	20370
864.691	20339
864.823	20294
864.954	20202
865.086	20328
865.217	20191
865.349	20096
865.48	20092
865.612	20218
865.743	20362
865.875	20259
866.006	20206
866.137	20134
866.269	20134
866.4	20153
866.531	20138
866.662	20088
866.793	20096
866.924	20145
867.055	20176
867.186	20157
867.317	20157
867.448	20039
867.579	20172
867.71	19989
867.841	19913
867.972	20191
868.103	20134
868.233	20054
868.364	20199
868.495	20290
868.625	20381
868.756	20488
868.886	20377
869.017	20305
869.147	20499
869.278	20415
869.408	20259
869.539	20256
869.669	20427
869.799	20408
869.929	20423
870.06	20465
870.19	20621
870.32	20541
870.45	20758
870.58	20781
870.71	20853
870.84	20800
870.97	20621
871.1	20773
871.23	20864
871.36	20990
871.489	20781
871.619	20925
871.749	20880
871.879	20845
872.008	21077
872.138	20880
872.267	20937
872.397	20868
872.526	20712
872.656	20762
872.785	20712
872.915	20929
873.044	21093
873.173	21032
873.303	21096
873.432	20990
873.561	21009
873.69	21032
873.819	20960
873.948	21047
874.077	20986
874.206	20960
874.335	20979
874.464	21157
874.593	21230
874.722	21116
874.851	21222
874.979	21272
875.108	21355
875.237	21085
875.365	21268
875.494	21119
875.623	21226
875.751	21127
875.88	21192
876.008	21317
876.136	21359
876.265	21701
876.393	21644
876.521	21717
876.65	21759
876.778	21644
876.906	21519
877.034	21595
877.162	21618
877.29	21561
877.418	21542
877.546	21603
877.674	21568
877.802	21378
877.93	21625
878.058	21576
878.185	21523
878.313	21526
878.441	21599
878.568	21367
878.696	21469
878.824	21629
878.951	21778
879.079	21663
879.206	22006
879.333	21850
879.461	21671
879.588	21663
879.715	21770
879.842	21899
879.97	21599
880.097	21450
880.224	21325
880.351	21367
880.478	21431
880.605	21428
880.732	21473
880.859	21523
880.986	21424
881.112	21313
881.239	21351
881.366	21100
881.493	21119
881.619	20941
881.746	20937
881.872	21001
881.999	20925
882.125	20883
882.252	21017
882.378	21001
882.505	20944
882.631	20777
882.757	20693
882.883	20686
883.01	20731
883.136	20686
883.262	20480
883.388	20450
883.514	20743
883.64	20731
883.766	20564
883.892	20457
884.018	20499
884.143	20518
884.269	20712
884.395	20282
884.52	20328
884.646	20358
884.772	20252
884.897	20229
885.023	20332
885.148	20514
885.274	20545
885.399	20332
885.524	20301
885.65	20218
885.775	20396
885.9	20290
886.025	20469
886.15	20320
886.275	20339
886.4	20225
886.525	20164
886.65	20294
886.775	20259
886.9	20427
887.025	20579
887.149	20320
887.274	20164
887.399	20088
887.523	20168
887.648	20027
887.773	20065
887.897	20157
888.021	20176
888.146	20065
888.27	20317
888.395	20252
888.519	20126
888.643	20161
888.767	20084
888.891	20016
889.015	19936
889.139	19925
889.263	19856
889.387	20016
889.511	20115
889.635	20103
889.759	19925
889.883	19955
890.006	19921
890.13	19989
890.254	19795
890.377	19879
890.501	19700
890.624	19571
890.748	19772
890.871	19506
890.995	19422
891.118	19495
891.241	19468
891.364	19499
891.488	19693
891.611	19411
891.734	19407
891.857	19559
891.98	19559
892.103	19556
892.226	19434
892.349	19537
892.471	19270
892.594	19449
892.717	19533
892.839	19422
892.962	19422
893.085	19529
893.207	19388
893.33	19316
893.452	19324
893.575	19411
893.697	19388
893.819	19628
893.941	19738
894.064	19559
894.186	19327
894.308	19331
894.43	19449
894.552	19643
894.674	19544
894.796	19266
894.918	19445
895.04	19377
895.161	19635
895.283	19403
895.405	19441
895.526	19358
895.648	19270
895.769	19350
895.891	19502
896.012	19487
896.134	19533
896.255	19419
896.376	19434
896.498	19407
896.619	19476
896.74	19350
896.861	19476
896.982	19723
897.103	19875
897.224	19662
897.345	19674
897.466	19594
897.587	19674
897.708	19738
897.828	19746
897.949	19651
898.07	19464
898.19	19495
898.311	19757
898.431	19525
898.552	19586
898.672	19818
898.792	19719
898.913	19540
899.033	19609
899.153	19483
899.273	19430
899.393	19472
899.513	19407
899.633	19434
899.753	19563
899.873	19392
899.993	19438
900.113	19453
900.232	19415
900.352	19324
900.472	19247
900.591	19126
900.711	19221
900.83	19156
900.95	19263
901.069	19259
901.189	19198
901.308	18947
901.427	18772
901.546	18890
901.665	18890
901.784	18787
901.904	18726
902.023	18513
902.141	18403
902.26	18350
902.379	18445
902.498	18315
902.617	18296
902.735	18346
902.854	18262
902.973	18308
903.091	18019
903.21	18007
903.328	18011
903.446	17878
903.565	17863
903.683	17847
903.801	17646
903.919	17771
904.038	17775
904.156	17573
904.274	17710
904.392	17539
904.51	17687
904.627	17532
904.745	17653
904.863	17604
904.981	17395
905.098	17151
905.216	17265
905.334	17345
905.451	17220
905.569	17258
905.686	17231
905.803	17140
905.921	17136
906.038	17098
906.155	17162
906.272	16915
906.389	17029
906.506	16930
906.623	16816
906.74	16782
906.857	16611
906.974	16774
907.091	16923
907.208	16866
907.324	16866
907.441	16615
907.557	16561
907.674	16535
907.79	16462
907.907	16489
908.023	16527
908.139	16512
908.256	16386
908.372	16481
908.488	16375
908.604	16337
908.72	16207
908.836	16272
908.952	16246
909.068	16337
909.184	16318
909.3	16181
909.415	16352
909.531	16261
909.647	15930
909.762	15934
909.878	15937
909.993	15945
910.108	15979
910.224	15846
910.339	15930
910.454	15884
910.57	15739
910.685	15709
910.8	16071
910.915	15941
911.03	15838
911.145	15667
911.259	15511
911.374	15591
911.489	15496
911.604	15378
911.718	15374
911.833	15317
911.947	15249
912.062	15260
912.176	15439
912.291	15332
912.405	15348
912.519	15622
912.633	15584
912.748	15389
912.862	15256
912.976	15195
913.09	15093
913.204	15108
913.318	15233
913.431	15355
913.545	15157
913.659	15245
913.772	15055
913.886	14994
914	14952
914.113	15062
914.226	15039
914.34	15066
914.453	14849
914.566	14960
914.68	14819
914.793	14811
914.906	14651
915.019	14507
915.132	14598
915.245	14499
915.358	14594
915.47	14621
915.583	14552
915.696	14617
915.809	14716
915.921	14735
916.034	14450
916.146	14518
916.259	14511
916.371	14564
916.483	14495
916.595	14476
916.708	14400
916.82	14438
916.932	14362
917.044	14339
917.156	14320
917.268	14271
917.38	14252
917.491	14157
917.603	14202
917.715	14412
917.826	14377
917.938	14237
918.049	14054
918.161	14248
918.272	14377
918.384	14313
918.495	14138
918.606	14058
918.717	13944
918.828	14016
918.939	14069
919.05	13970
919.161	13970
919.272	13795
919.383	13814
919.494	14008
919.604	14225
919.715	13978
919.826	13928
919.936	13917
920.047	14100
920.157	14008
920.267	14157
920.378	13963
920.488	13917
920.598	14134
920.708	14347
920.818	14065
920.928	14157
921.038	14256
921.148	14225
921.258	13909
921.368	13875
921.477	13738
921.587	13753
921.697	13575
921.806	13753
921.916	13491
922.025	13422
922.134	13476
922.244	13403
922.353	13460
922.462	13282
922.571	13179
922.68	13160
922.789	13015
922.898	12993
923.007	12970
923.116	12996
923.224	13012
923.333	12962
923.442	12844
923.55	12878
923.659	12886
923.767	12954
923.876	12837
923.984	12844
924.092	12798
924.201	12848
924.309	12791
924.417	12852
924.525	12681
924.633	12783
924.741	13582
924.849	12471
924.956	12711
925.064	12521
925.172	12403
925.279	12506
925.387	12532
925.494	12521
925.602	12616
925.709	12513
925.816	12311
925.924	12353
926.031	12570
926.138	12445
926.245	12498
926.352	12323
926.459	12452
926.566	12486
926.673	12311
926.779	12281
926.886	12258
926.993	12140
927.099	12049
927.206	12053
927.312	11954
927.419	12083
927.525	12083
927.631	12121
927.737	11931
927.843	11897
927.95	11863
928.056	11935
928.162	11859
928.267	12007
928.373	12426
928.479	11965
928.585	11604
928.69	11824
928.796	11893
928.901	11771
929.007	11630
929.112	11821
929.218	11646
929.323	11592
929.428	11585
929.533	11798
929.638	11532
929.743	11520
929.848	11615
929.953	11585
930.058	11474
930.163	11334
930.267	11391
930.372	11535
930.477	11227
930.581	11501
930.685	11410
930.79	11212
930.894	11265
930.998	11235
931.103	11292
931.207	10965
931.311	10946
931.415	10801
931.519	10637
931.623	10611
