Data from test_V78500241_922.txt Node
Date: Fri Mar 25 15:16:16 CST 2022
User: usil
Spectrometer: V785-0024
Trigger mode: 0
Integration Time (sec): 4.000000E-1
Scans to average: 1
Nonlinearity correction enabled: false
Boxcar width: 0
Storing dark spectrum: false
XAxis mode: Wavelengths
Number of Pixels in Spectrum: 1024
>>>>>Begin Spectral Data<<<<<
801.071	28139
801.214	28147
801.356	27899
801.499	27892
801.641	27614
801.783	27671
801.926	27717
802.068	27743
802.211	27542
802.353	27671
802.496	27344
802.638	27302
802.78	27344
802.923	27329
803.065	27249
803.208	27344
803.35	27298
803.492	27496
803.635	27458
803.777	27549
803.919	27633
804.061	27785
804.204	27694
804.346	27496
804.488	27359
804.63	27469
804.773	27416
804.915	27587
805.057	27671
805.199	27507
805.341	27766
805.483	27739
805.626	27625
805.768	27538
805.91	27580
806.052	27618
806.194	27633
806.336	27842
806.478	27709
806.62	27694
806.762	27812
806.904	28067
807.046	28143
807.188	28082
807.33	28196
807.472	28154
807.614	28116
807.756	28139
807.898	27979
808.04	27960
808.182	27937
808.324	27964
808.465	28135
808.607	28204
808.749	28333
808.891	28329
809.033	28451
809.174	28500
809.316	28360
809.458	28299
809.6	28466
809.741	28398
809.883	28424
810.025	28535
810.166	28729
810.308	28592
810.45	28588
810.591	28535
810.733	28398
810.875	28249
811.016	28360
811.158	28230
811.299	28356
811.441	28519
811.582	28485
811.724	28257
811.865	28306
812.007	28192
812.148	28356
812.29	28451
812.431	28588
812.573	28713
812.714	28820
812.855	28831
812.997	29018
813.138	29204
813.279	29128
813.421	29010
813.562	28961
813.703	28755
813.845	28713
813.986	28276
814.127	28325
814.268	28109
814.41	28181
814.551	28128
814.692	28181
814.833	27975
814.974	28128
815.115	28086
815.256	27857
815.397	27987
815.539	27907
815.68	27994
815.821	27816
815.962	27975
816.103	27857
816.244	27724
816.385	27698
816.526	27625
816.666	27378
816.807	27408
816.948	27408
817.089	27412
817.23	27500
817.371	27287
817.512	27454
817.653	27447
817.793	27310
817.934	27496
818.075	27355
818.216	27332
818.356	27485
818.497	27112
818.638	27020
818.778	27104
818.919	27161
819.06	27268
819.2	27313
819.341	27325
819.481	27435
819.622	27549
819.762	27797
819.903	27698
820.043	27606
820.184	27572
820.324	27382
820.465	27481
820.605	27534
820.746	27496
820.886	27317
821.026	27344
821.167	27534
821.307	27466
821.447	27313
821.588	27222
821.728	27127
821.868	27013
822.008	26918
822.149	26880
822.289	26788
822.429	26705
822.569	26495
822.709	26461
822.849	26374
822.99	26400
823.13	26412
823.27	26419
823.41	26122
823.55	26088
823.69	26259
823.83	26202
823.97	26088
824.11	26020
824.25	25993
824.389	25966
824.529	26065
824.669	26008
824.809	26088
824.949	26202
825.089	26126
825.228	25974
825.368	25883
825.508	25765
825.648	25902
825.787	25894
825.927	26058
826.067	25951
826.206	26008
826.346	25989
826.485	25879
826.625	26012
826.765	26054
826.904	25978
827.044	25700
827.183	25586
827.323	25624
827.462	25647
827.601	25518
827.741	25772
827.88	25556
828.02	25575
828.159	25502
828.298	25575
828.437	25674
828.577	25521
828.716	25712
828.855	25632
828.994	25453
829.134	25362
829.273	25449
829.412	25217
829.551	25198
829.69	25339
829.829	25434
829.968	25438
830.107	25362
830.246	25396
830.385	25206
830.524	25183
830.663	25247
830.802	25141
830.941	24878
831.08	24920
831.219	25000
831.357	24966
831.496	25168
831.635	24905
831.774	24932
831.913	24738
832.051	24684
832.19	24688
832.329	24730
832.467	24692
832.606	24783
832.744	24597
832.883	24525
833.022	24547
833.16	24692
833.299	24673
833.437	24559
833.576	24875
833.714	24840
833.852	24639
833.991	24806
834.129	24677
834.267	24673
834.406	24738
834.544	24749
834.682	24673
834.821	24738
834.959	24757
835.097	24623
835.235	24684
835.373	24711
835.511	24715
835.65	24544
835.788	24597
835.926	24486
836.064	24319
836.202	24300
836.34	24521
836.478	24711
836.615	24414
836.753	24559
836.891	24479
837.029	24422
837.167	24357
837.305	24365
837.443	24475
837.58	24410
837.718	24395
837.856	24308
837.993	24319
838.131	24239
838.269	24155
838.406	24254
838.544	24171
838.681	23965
838.819	23958
838.956	23821
839.094	23786
839.231	23843
839.369	24053
839.506	24251
839.643	24026
839.781	23870
839.918	23798
840.055	23756
840.193	23771
840.33	23562
840.467	23748
840.604	23882
840.742	24026
840.879	23573
841.016	23615
841.153	23596
841.29	23901
841.427	23718
841.564	23691
841.701	23745
841.838	23661
841.975	23630
842.112	23535
842.249	23619
842.385	23448
842.522	23680
842.659	23516
842.796	23353
842.933	23581
843.069	23337
843.206	23486
843.343	23600
843.479	23531
843.616	23474
843.752	23197
843.889	23326
844.025	23379
844.162	23311
844.298	23265
844.435	23269
844.571	23159
844.708	23296
844.844	23482
844.98	23421
845.117	23318
845.253	23200
845.389	23105
845.525	23174
845.661	23223
845.798	22942
845.934	23083
846.07	23003
846.206	22999
846.342	23231
846.478	22949
846.614	22729
846.75	22729
846.886	22694
847.022	22771
847.158	22790
847.294	22687
847.429	22839
847.565	22656
847.701	22896
847.837	22405
847.972	22428
848.108	22542
848.244	22618
848.379	22253
848.515	22128
848.65	22284
848.786	22322
848.921	22402
849.057	22390
849.192	22421
849.328	22303
849.463	22329
849.598	22090
849.734	22253
849.869	22215
850.004	22070
850.14	22063
850.275	22101
850.41	22032
850.545	22036
850.68	22074
850.815	22044
850.95	22021
851.085	22272
851.22	22276
851.355	22093
851.49	22036
851.625	22006
851.76	22078
851.895	22093
852.03	21983
852.165	22051
852.299	22074
852.434	22120
852.569	22101
852.703	22036
852.838	22219
852.973	22158
853.107	22234
853.242	22017
853.376	21960
853.511	21903
853.645	21861
853.78	21892
853.914	21918
854.048	21857
854.183	22002
854.317	21831
854.451	22078
854.585	21865
854.72	21869
854.854	21975
854.988	21751
855.122	21876
855.256	21747
855.39	21903
855.524	22006
855.658	21937
855.792	21991
855.926	21926
856.06	21816
856.194	22025
856.327	21850
856.461	21747
856.595	21778
856.729	21911
856.862	22124
856.996	21861
857.13	21930
857.263	21972
857.397	22002
857.53	21964
857.664	22055
857.797	21892
857.931	22029
858.064	22013
858.197	22067
858.331	21903
858.464	21873
858.597	21743
858.731	21899
858.864	21774
858.997	21861
859.13	21869
859.263	21819
859.396	22029
859.529	21850
859.662	21972
859.795	21785
859.928	21838
860.061	21983
860.194	22093
860.327	21911
860.46	21880
860.592	21991
860.725	22063
860.858	21964
860.99	21964
861.123	21751
861.256	21785
861.388	21850
861.521	22618
861.653	21736
861.786	21694
861.918	21743
862.05	21778
862.183	21865
862.315	21793
862.447	21899
862.58	21838
862.712	21660
862.844	21625
862.976	21671
863.108	21698
863.24	21937
863.372	21500
863.504	21641
863.636	21625
863.768	21641
863.9	21542
864.032	21526
864.164	21431
864.296	21652
864.428	21728
864.559	21679
864.691	21804
864.823	21561
864.954	21625
865.086	21542
865.217	21485
865.349	21557
865.48	21405
865.612	21595
865.743	21675
865.875	21473
866.006	21420
866.137	21515
866.269	21477
866.4	21496
866.531	21382
866.662	21340
866.793	21351
866.924	21378
867.055	21587
867.186	21370
867.317	21401
867.448	21310
867.579	21462
867.71	21466
867.841	21298
867.972	21401
868.103	21439
868.233	21389
868.364	21317
868.495	21538
868.625	21622
868.756	21739
868.886	21595
869.017	21709
869.147	21762
869.278	21641
869.408	21770
869.539	21686
869.669	21739
869.799	21625
869.929	21789
870.06	21793
870.19	22055
870.32	21983
870.45	21838
870.58	22021
870.71	22154
870.84	22101
870.97	22101
871.1	21953
871.23	22211
871.36	22287
871.489	22135
871.619	22200
871.749	22173
871.879	22325
872.008	22299
872.138	22196
872.267	22215
872.397	22234
872.526	22006
872.656	22112
872.785	22063
872.915	22257
873.044	22329
873.173	22249
873.303	22325
873.432	22329
873.561	22402
873.69	22246
873.819	22341
873.948	22402
874.077	22375
874.206	22291
874.335	22265
874.464	22375
874.593	22531
874.722	22481
874.851	22504
874.979	22462
875.108	22428
875.237	22386
875.365	22371
875.494	22402
875.623	22535
875.751	22440
875.88	22428
876.008	22622
876.136	22713
876.265	22797
876.393	23056
876.521	22927
876.65	22930
876.778	22889
876.906	22908
877.034	22782
877.162	22786
877.29	22854
877.418	22809
877.546	22774
877.674	22934
877.802	22793
877.93	22858
878.058	22812
878.185	22778
878.313	22828
878.441	22847
878.568	22584
878.696	22698
878.824	22767
878.951	22782
879.079	23094
879.206	23060
879.333	22968
879.461	22824
879.588	22835
879.715	23098
879.842	23086
879.97	22736
880.097	22580
880.224	22668
880.351	22603
880.478	22672
880.605	22668
880.732	22569
880.859	22873
880.986	22615
881.112	22508
881.239	22356
881.366	22363
881.493	22341
881.619	22139
881.746	22238
881.872	22272
881.999	22204
882.125	22048
882.252	22169
882.378	22226
882.505	22261
882.631	22048
882.757	22029
882.883	21964
883.01	21911
883.136	21808
883.262	21797
883.388	21743
883.514	21865
883.64	21937
883.766	21903
883.892	21690
884.018	21751
884.143	21888
884.269	21880
884.395	21553
884.52	21564
884.646	21580
884.772	21367
884.897	21507
885.023	21667
885.148	21614
885.274	21698
885.399	21538
885.524	21435
885.65	21572
885.775	21526
885.9	21408
886.025	21595
886.15	21603
886.275	21443
886.4	21397
886.525	21572
886.65	21416
886.775	21519
886.9	21671
887.025	21679
887.149	21477
887.274	21336
887.399	21325
887.523	21393
887.648	21233
887.773	21203
887.897	21294
888.021	21355
888.146	21173
888.27	21447
888.395	21363
888.519	21237
888.643	21332
888.767	21245
888.891	21287
889.015	21142
889.139	21199
889.263	21043
889.387	21203
889.511	21226
889.635	21199
889.759	21043
889.883	21161
890.006	21173
890.13	21237
890.254	21024
890.377	21032
890.501	20864
890.624	20682
890.748	20914
890.871	20811
890.995	20644
891.118	20609
891.241	20606
891.364	20640
891.488	20781
891.611	20613
891.734	20640
891.857	20750
891.98	20640
892.103	20796
892.226	20640
892.349	20594
892.471	20450
892.594	20575
892.717	20545
892.839	20476
892.962	20575
893.085	20640
893.207	20644
893.33	20545
893.452	20480
893.575	20731
893.697	20503
893.819	20659
893.941	20800
894.064	20552
894.186	20560
894.308	20457
894.43	20579
894.552	20625
894.674	20644
894.796	20415
894.918	20644
895.04	20511
895.161	20678
895.283	20476
895.405	20533
895.526	20488
895.648	20598
895.769	20480
895.891	20537
896.012	20598
896.134	20648
896.255	20484
896.376	20507
896.498	20670
896.619	20549
896.74	20377
896.861	20568
896.982	20948
897.103	20849
897.224	20845
897.345	20773
897.466	20724
897.587	20659
897.708	20785
897.828	20800
897.949	20625
898.07	20526
898.19	20621
898.311	20826
898.431	20583
898.552	20746
898.672	20773
898.792	20842
898.913	20640
899.033	20583
899.153	20465
899.273	20400
899.393	20533
899.513	20469
899.633	20480
899.753	20514
899.873	20469
899.993	20530
900.113	20419
900.232	20358
900.352	20423
900.472	20301
900.591	20221
900.711	20336
900.83	20180
900.95	20324
901.069	20240
901.189	20058
901.308	19856
901.427	19887
901.546	19913
901.665	19837
901.784	19879
901.904	19647
902.023	19571
902.141	19377
902.26	19312
902.379	19506
902.498	19422
902.617	19396
902.735	19358
902.854	19225
902.973	19259
903.091	19129
903.21	19015
903.328	18970
903.446	18848
903.565	18741
903.683	18768
903.801	18772
903.919	18810
904.038	18707
904.156	18673
904.274	18627
904.392	18532
904.51	18551
904.627	18547
904.745	18620
904.863	18563
904.981	18289
905.098	18232
905.216	18308
905.334	18323
905.451	18220
905.569	18266
905.686	18315
905.803	18186
905.921	18030
906.038	18110
906.155	18019
906.272	17984
906.389	17939
906.506	17828
906.623	17859
906.74	17634
906.857	17627
906.974	17737
907.091	17802
907.208	17882
907.324	17718
907.441	17577
907.557	17615
907.674	17581
907.79	17478
907.907	17482
908.023	17528
908.139	17448
908.256	17410
908.372	17417
908.488	17493
908.604	17239
908.72	17261
908.836	17159
908.952	17151
909.068	17216
909.184	17284
909.3	17102
909.415	17246
909.531	17102
909.647	16976
909.762	16915
909.878	16999
909.993	16953
910.108	16866
910.224	16873
910.339	16911
910.454	16763
910.57	16626
910.685	16729
910.8	17041
910.915	16877
911.03	16672
911.145	16622
911.259	16512
911.374	16497
911.489	16531
911.604	16333
911.718	16204
911.833	16265
911.947	16078
912.062	16082
912.176	16192
912.291	16230
912.405	16173
912.519	16428
912.633	16440
912.748	16310
912.862	16211
912.976	16048
913.09	16048
913.204	15968
913.318	16067
913.431	16131
913.545	16055
913.659	16093
913.772	16040
913.886	15937
914	15880
914.113	15930
914.226	15975
914.34	15895
914.453	15709
914.566	15873
914.68	15755
914.793	15675
914.906	15496
915.019	15519
915.132	15450
915.245	15420
915.358	15405
915.47	15420
915.583	15511
915.696	15374
915.809	15625
915.921	15530
916.034	15462
916.146	15336
916.259	15294
916.371	15526
916.483	15344
916.595	15279
916.708	15260
916.82	15329
916.932	15237
917.044	15207
917.156	15249
917.268	15116
917.38	15089
917.491	15028
917.603	15097
917.715	15135
917.826	15207
917.938	15013
918.049	15005
918.161	14960
918.272	15157
918.384	15127
918.495	15047
918.606	14853
918.717	14739
918.828	14777
918.939	14899
919.05	14750
919.161	14693
919.272	14594
919.383	14632
919.494	14925
919.604	15074
919.715	14823
919.826	14769
919.936	14720
920.047	14849
920.157	14819
920.267	14963
920.378	14777
920.488	14670
920.598	14910
920.708	15066
920.818	14868
920.928	14944
921.038	15093
921.148	15047
921.258	14697
921.368	14621
921.477	14549
921.587	14541
921.697	14438
921.806	14465
921.916	14415
922.025	14225
922.134	14130
922.244	14100
922.353	14240
922.462	14046
922.571	13974
922.68	13879
922.789	13849
922.898	13860
923.007	13750
923.116	13830
923.224	13814
923.333	13780
923.442	13601
923.55	13563
923.659	13723
923.767	13605
923.876	13590
923.984	13571
924.092	13529
924.201	13575
924.309	13499
924.417	13525
924.525	13441
924.633	13476
924.741	14396
924.849	13247
924.956	13396
925.064	13297
925.172	13171
925.279	13183
925.387	13198
925.494	13107
925.602	13304
925.709	13266
925.816	13103
925.924	13187
926.031	13278
926.138	13198
926.245	13209
926.352	13019
926.459	13114
926.566	13129
926.673	13072
926.779	12901
926.886	12939
926.993	12760
927.099	12734
927.206	12741
927.312	12684
927.419	12753
927.525	12734
927.631	12734
927.737	12639
927.843	12551
927.95	12528
928.056	12597
928.162	12582
928.267	12692
928.373	13232
928.479	12696
928.585	12426
928.69	12601
928.796	12456
928.901	12350
929.007	12346
929.112	12319
929.218	12361
929.323	12441
929.428	12327
929.533	12410
929.638	12209
929.743	12251
929.848	12247
929.953	12285
930.058	12102
930.163	11923
930.267	12026
930.372	12171
930.477	11931
930.581	12182
930.685	12053
930.79	11764
930.894	11851
930.998	11847
931.103	12015
931.207	11585
931.311	11417
931.415	11448
931.519	11201
931.623	11254
