Data from test_V78500241_1047.txt Node
Date: Fri Mar 25 15:17:08 CST 2022
User: usil
Spectrometer: V785-0024
Trigger mode: 0
Integration Time (sec): 4.000000E-1
Scans to average: 1
Nonlinearity correction enabled: false
Boxcar width: 0
Storing dark spectrum: false
XAxis mode: Wavelengths
Number of Pixels in Spectrum: 1024
>>>>>Begin Spectral Data<<<<<
801.071	28360
801.214	28246
801.356	28032
801.499	27846
801.641	27846
801.783	27922
801.926	27941
802.068	27880
802.211	27895
802.353	27701
802.496	27603
802.638	27454
802.78	27641
802.923	27515
803.065	27504
803.208	27511
803.35	27595
803.492	27553
803.635	27679
803.777	27728
803.919	27781
804.061	28029
804.204	27724
804.346	27816
804.488	27663
804.63	27633
804.773	27686
804.915	27823
805.057	27842
805.199	27770
805.341	27774
805.483	27922
805.626	27899
805.768	27800
805.91	27907
806.052	27983
806.194	27873
806.336	28051
806.478	27987
806.62	27987
806.762	27953
806.904	28116
807.046	28455
807.188	28314
807.33	28284
807.472	28341
807.614	28207
807.756	28287
807.898	28344
808.04	28105
808.182	28166
808.324	28143
808.465	28341
808.607	28295
808.749	28577
808.891	28679
809.033	28839
809.174	28519
809.316	28580
809.458	28607
809.6	28531
809.741	28721
809.883	28824
810.025	28927
810.166	28896
810.308	28919
810.45	28885
810.591	28683
810.733	28698
810.875	28519
811.016	28645
811.158	28512
811.299	28755
811.441	28759
811.582	28694
811.724	28550
811.865	28550
812.007	28615
812.148	28679
812.29	28546
812.431	28767
812.573	28847
812.714	29094
812.855	29121
812.997	29246
813.138	29292
813.279	29212
813.421	29193
813.562	29086
813.703	28995
813.845	28896
813.986	28626
814.127	28489
814.268	28314
814.41	28249
814.551	28306
814.692	28497
814.833	28139
814.974	28169
815.115	28356
815.256	28249
815.397	28223
815.539	28226
815.68	28116
815.821	28093
815.962	28109
816.103	28105
816.244	28109
816.385	27937
816.526	27926
816.666	27739
816.807	27732
816.948	27762
817.089	27705
817.23	27698
817.371	27724
817.512	27656
817.653	27625
817.793	27595
817.934	27614
818.075	27583
818.216	27637
818.356	27530
818.497	27466
818.638	27416
818.778	27317
818.919	27454
819.06	27496
819.2	27553
819.341	27603
819.481	27819
819.622	27732
819.762	28010
819.903	27994
820.043	27720
820.184	27743
820.324	27751
820.465	27850
820.605	27698
820.746	27778
820.886	27701
821.026	27705
821.167	27823
821.307	27785
821.447	27603
821.588	27526
821.728	27511
821.868	27241
822.008	27100
822.149	27089
822.289	27074
822.429	26918
822.569	26868
822.709	26864
822.849	26609
822.99	26724
823.13	26617
823.27	26606
823.41	26465
823.55	26396
823.69	26480
823.83	26488
823.97	26336
824.11	26214
824.25	26199
824.389	26161
824.529	26343
824.669	26362
824.809	26396
824.949	26484
825.089	26473
825.228	26244
825.368	26149
825.508	26161
825.648	26115
825.787	26199
825.927	26358
826.067	26275
826.206	26107
826.346	26168
826.485	26176
826.625	26157
826.765	26263
826.904	26122
827.044	25784
827.183	26008
827.323	25811
827.462	25860
827.601	25966
827.741	25955
827.88	25970
828.02	25791
828.159	25978
828.298	26039
828.437	25925
828.577	25936
828.716	26001
828.855	25826
828.994	25575
829.134	25597
829.273	25700
829.412	25624
829.551	25529
829.69	25525
829.829	25590
829.968	25605
830.107	25788
830.246	25597
830.385	25464
830.524	25472
830.663	25453
830.802	25441
830.941	25164
831.08	25209
831.219	25331
831.357	25088
831.496	25384
831.635	25274
831.774	25164
831.913	25129
832.051	25015
832.19	24897
832.329	24970
832.467	24981
832.606	24833
832.744	24810
832.883	24795
833.022	24829
833.16	24935
833.299	24947
833.437	24878
833.576	24954
833.714	25023
833.852	24985
833.991	24973
834.129	25015
834.267	24992
834.406	24939
834.544	24951
834.682	24901
834.821	24924
834.959	25072
835.097	24897
835.235	24878
835.373	24973
835.511	25012
835.65	24859
835.788	24730
835.926	24700
836.064	24608
836.202	24540
836.34	24791
836.478	24916
836.615	24688
836.753	24802
836.891	24806
837.029	24814
837.167	24692
837.305	24684
837.443	24646
837.58	24700
837.718	24665
837.856	24578
837.993	24566
838.131	24673
838.269	24445
838.406	24521
838.544	24494
838.681	24327
838.819	24251
838.956	24011
839.094	24049
839.231	24114
839.369	24285
839.506	24608
839.643	24391
839.781	24159
839.918	24136
840.055	24209
840.193	24057
840.33	24083
840.467	24034
840.604	24011
840.742	24247
840.879	23817
841.016	23840
841.153	23878
841.29	24167
841.427	24045
841.564	24060
841.701	23988
841.838	23950
841.975	23942
842.112	23813
842.249	23885
842.385	23847
842.522	24003
842.659	23760
842.796	23741
842.933	23760
843.069	23752
843.206	23767
843.343	23657
843.479	23809
843.616	23832
843.752	23505
843.889	23516
844.025	23661
844.162	23474
844.298	23672
844.435	23463
844.571	23463
844.708	23524
844.844	23714
844.98	23691
845.117	23611
845.253	23566
845.389	23554
845.525	23391
845.661	23395
845.798	23265
845.934	23216
846.07	23273
846.206	23303
846.342	23425
846.478	23318
846.614	23178
846.75	22927
846.886	23064
847.022	23143
847.158	22942
847.294	22919
847.429	23079
847.565	22957
847.701	23166
847.837	22771
847.972	22664
848.108	22812
848.244	22843
848.379	22603
848.515	22645
848.65	22611
848.786	22493
848.921	22649
849.057	22850
849.192	22771
849.328	22687
849.463	22535
849.598	22622
849.734	22421
849.869	22588
850.004	22348
850.14	22447
850.275	22352
850.41	22192
850.545	22329
850.68	22303
850.815	22379
850.95	22333
851.085	22497
851.22	22455
851.355	22382
851.49	22352
851.625	22386
851.76	22272
851.895	22242
852.03	22276
852.165	22470
852.299	22371
852.434	22504
852.569	22318
852.703	22413
852.838	22443
852.973	22466
853.107	22538
853.242	22417
853.376	22185
853.511	22059
853.645	22070
853.78	22329
853.914	22200
854.048	22169
854.183	22124
854.317	22173
854.451	22363
854.585	22192
854.72	22150
854.854	22196
854.988	21991
855.122	22109
855.256	22025
855.39	22086
855.524	22185
855.658	22246
855.792	22188
855.926	22196
856.06	22169
856.194	22299
856.327	22238
856.461	22169
856.595	22063
856.729	22120
856.862	22257
856.996	22150
857.13	22272
857.263	22356
857.397	22215
857.53	22242
857.664	22242
857.797	22249
857.931	22253
858.064	22188
858.197	22344
858.331	22139
858.464	22207
858.597	22010
858.731	22158
858.864	22173
858.997	22120
859.13	22166
859.263	22109
859.396	22337
859.529	22074
859.662	22105
859.795	22040
859.928	22188
860.061	22299
860.194	22363
860.327	22192
860.46	22124
860.592	22329
860.725	22363
860.858	22325
860.99	22207
861.123	22120
861.256	22143
861.388	22196
861.521	22824
861.653	22036
861.786	21960
861.918	21972
862.05	22169
862.183	22036
862.315	22154
862.447	22204
862.58	22150
862.712	21918
862.844	21880
862.976	22006
863.108	21956
863.24	22341
863.372	21838
863.504	21766
863.636	21759
863.768	21797
863.9	21911
864.032	21831
864.164	21819
864.296	21991
864.428	22029
864.559	21907
864.691	21987
864.823	21918
864.954	21888
865.086	21781
865.217	21865
865.349	21682
865.48	21770
865.612	21785
865.743	21922
865.875	21793
866.006	21701
866.137	21747
866.269	21774
866.4	21724
866.531	21728
866.662	21622
866.793	21644
866.924	21804
867.055	21705
867.186	21709
867.317	21698
867.448	21603
867.579	21698
867.71	21587
867.841	21705
867.972	21766
868.103	21713
868.233	21728
868.364	21690
868.495	21759
868.625	21876
868.756	22036
868.886	21880
869.017	21979
869.147	22105
869.278	21972
869.408	21949
869.539	21865
869.669	21930
869.799	21983
869.929	22002
870.06	22063
870.19	22192
870.32	22219
870.45	22128
870.58	22246
870.71	22417
870.84	22424
870.97	22348
871.1	22409
871.23	22512
871.36	22687
871.489	22409
871.619	22630
871.749	22386
871.879	22580
872.008	22607
872.138	22557
872.267	22596
872.397	22341
872.526	22306
872.656	22386
872.785	22185
872.915	22538
873.044	22577
873.173	22599
873.303	22565
873.432	22603
873.561	22668
873.69	22527
873.819	22599
873.948	22599
874.077	22516
874.206	22459
874.335	22481
874.464	22603
874.593	22599
874.722	22672
874.851	22828
874.979	22797
875.108	22820
875.237	22736
875.365	22679
875.494	22755
875.623	22938
875.751	22767
875.88	22725
876.008	22839
876.136	22828
876.265	23223
876.393	23200
876.521	23288
876.65	23014
876.778	23166
876.906	23090
877.034	23041
877.162	23086
877.29	23113
877.418	23083
877.546	23128
877.674	23090
877.802	23060
877.93	23128
878.058	23086
878.185	23010
878.313	22995
878.441	23025
878.568	23037
878.696	23113
878.824	23170
878.951	23250
879.079	23235
879.206	23341
879.333	23155
879.461	23159
879.588	23258
879.715	23204
879.842	23364
879.97	23159
880.097	22930
880.224	22896
880.351	22946
880.478	22923
880.605	22820
880.732	22919
880.859	23159
880.986	22984
881.112	22858
881.239	22675
881.366	22565
881.493	22584
881.619	22546
881.746	22527
881.872	22451
881.999	22447
882.125	22333
882.252	22462
882.378	22443
882.505	22607
882.631	22398
882.757	22272
882.883	22230
883.01	22265
883.136	22055
883.262	22036
883.388	21953
883.514	22158
883.64	22204
883.766	22013
883.892	21899
884.018	21888
884.143	22040
884.269	22082
884.395	21808
884.52	21762
884.646	21945
884.772	21789
884.897	21625
885.023	21808
885.148	21861
885.274	21892
885.399	21800
885.524	21854
885.65	21907
885.775	21656
885.9	21854
886.025	21873
886.15	21892
886.275	21679
886.4	21743
886.525	21713
886.65	21690
886.775	21633
886.9	21903
887.025	22032
887.149	21739
887.274	21603
887.399	21583
887.523	21686
887.648	21408
887.773	21538
887.897	21667
888.021	21641
888.146	21534
888.27	21686
888.395	21686
888.519	21553
888.643	21564
888.767	21614
888.891	21462
889.015	21294
889.139	21492
889.263	21374
889.387	21424
889.511	21553
889.635	21500
889.759	21405
889.883	21355
890.006	21329
890.13	21386
890.254	21211
890.377	21310
890.501	21074
890.624	21104
890.748	21142
890.871	21017
890.995	20895
891.118	20887
891.241	20925
891.364	20941
891.488	20963
891.611	20986
891.734	20868
891.857	20960
891.98	20883
892.103	21043
892.226	20975
892.349	20906
892.471	20674
892.594	20838
892.717	20880
892.839	20792
892.962	20864
893.085	20777
893.207	20830
893.33	20785
893.452	20735
893.575	20975
893.697	20773
893.819	20956
893.941	20994
894.064	20956
894.186	20743
894.308	20708
894.43	20819
894.552	20880
894.674	20842
894.796	20648
894.918	20712
895.04	20705
895.161	20857
895.283	20811
895.405	20739
895.526	20716
895.648	20697
895.769	20804
895.891	20887
896.012	20842
896.134	20811
896.255	20678
896.376	20781
896.498	20785
896.619	20743
896.74	20762
896.861	20811
896.982	21066
897.103	21233
897.224	20960
897.345	21020
897.466	20880
897.587	20906
897.708	21077
897.828	21135
897.949	21024
898.07	20815
898.19	20861
898.311	21043
898.431	20921
898.552	20887
898.672	21005
898.792	21028
898.913	20826
899.033	20811
899.153	20819
899.273	20689
899.393	20667
899.513	20705
899.633	20720
899.753	20697
899.873	20651
899.993	20724
900.113	20701
900.232	20682
900.352	20488
900.472	20537
900.591	20427
900.711	20587
900.83	20476
900.95	20644
901.069	20438
901.189	20594
901.308	20233
901.427	20016
901.546	20092
901.665	20054
901.784	20050
901.904	19982
902.023	19849
902.141	19776
902.26	19666
902.379	19700
902.498	19567
902.617	19491
902.735	19529
902.854	19662
902.973	19506
903.091	19441
903.21	19289
903.328	19331
903.446	19141
903.565	19008
903.683	19034
903.801	19000
903.919	19042
904.038	18970
904.156	18890
904.274	18856
904.392	18837
904.51	18787
904.627	18856
904.745	18802
904.863	18867
904.981	18661
905.098	18582
905.216	18525
905.334	18517
905.451	18467
905.569	18407
905.686	18506
905.803	18544
905.921	18273
906.038	18361
906.155	18372
906.272	18098
906.389	18251
906.506	18015
906.623	17897
906.74	18091
906.857	17889
906.974	17973
907.091	18076
907.208	18106
907.324	18011
907.441	17927
907.557	17695
907.674	17707
907.79	17634
907.907	17745
908.023	17691
908.139	17779
908.256	17710
908.372	17608
908.488	17570
908.604	17463
908.72	17436
908.836	17463
908.952	17417
909.068	17566
909.184	17570
909.3	17410
909.415	17455
909.531	17490
909.647	17200
909.762	17105
909.878	17121
909.993	17197
910.108	17181
910.224	17060
910.339	17155
910.454	17048
910.57	16896
910.685	16911
910.8	17197
910.915	17102
911.03	16885
911.145	16752
911.259	16694
911.374	16710
911.489	16675
911.604	16550
911.718	16558
911.833	16641
911.947	16306
912.062	16348
912.176	16615
912.291	16405
912.405	16436
912.519	16649
912.633	16611
912.748	16440
912.862	16421
912.976	16356
913.09	16181
913.204	16287
913.318	16337
913.431	16402
913.545	16223
913.659	16310
913.772	16230
913.886	16071
914	16044
914.113	16143
914.226	16192
914.34	16143
914.453	15930
914.566	16040
914.68	15998
914.793	15937
914.906	15800
915.019	15720
915.132	15622
915.245	15641
915.358	15698
915.47	15675
915.583	15625
915.696	15717
915.809	15739
915.921	15739
916.034	15701
916.146	15584
916.259	15568
916.371	15633
916.483	15606
916.595	15469
916.708	15511
916.82	15408
916.932	15443
917.044	15458
917.156	15424
917.268	15310
917.38	15275
917.491	15321
917.603	15306
917.715	15370
917.826	15431
917.938	15184
918.049	15100
918.161	15325
918.272	15351
918.384	15302
918.495	15123
918.606	15070
918.717	15032
918.828	15093
918.939	15028
919.05	14937
919.161	14998
919.272	14777
919.383	14872
919.494	15104
919.604	15218
919.715	15081
919.826	14864
919.936	14941
920.047	15066
920.157	14960
920.267	15184
920.378	14998
920.488	15032
920.598	15135
920.708	15245
920.818	15058
920.928	15146
921.038	15230
921.148	15226
921.258	14910
921.368	14845
921.477	14739
921.587	14731
921.697	14575
921.806	14651
921.916	14644
922.025	14480
922.134	14286
922.244	14286
922.353	14495
922.462	14195
922.571	14138
922.68	13993
922.789	14046
922.898	14100
923.007	13913
923.116	14001
923.224	13951
923.333	14016
923.442	13944
923.55	13871
923.659	13826
923.767	13894
923.876	13681
923.984	13906
924.092	13670
924.201	13662
924.309	13753
924.417	13742
924.525	13613
924.633	13628
924.741	14560
924.849	13445
924.956	13594
925.064	13422
925.172	13343
925.279	13400
925.387	13559
925.494	13350
925.602	13487
925.709	13350
925.816	13255
925.924	13346
926.031	13354
926.138	13285
926.245	13346
926.352	13175
926.459	13335
926.566	13411
926.673	13278
926.779	13198
926.886	13095
926.993	13012
927.099	12989
927.206	12901
927.312	12886
927.419	12970
927.525	12962
927.631	12947
927.737	12837
927.843	12787
927.95	12601
928.056	12753
928.162	12814
928.267	12760
928.373	13358
928.479	12821
928.585	12604
928.69	12707
928.796	12764
928.901	12658
929.007	12456
929.112	12563
929.218	12555
929.323	12517
929.428	12399
929.533	12536
929.638	12346
929.743	12456
929.848	12403
929.953	12437
930.058	12224
930.163	12098
930.267	12159
930.372	12327
930.477	12152
930.581	12289
930.685	12175
930.79	12072
930.894	12064
930.998	12049
931.103	12114
931.207	11786
931.311	11771
931.415	11699
931.519	11505
931.623	11417
