Data from test_V78500241_1240.txt Node
Date: Fri Mar 25 15:18:29 CST 2022
User: usil
Spectrometer: V785-0024
Trigger mode: 0
Integration Time (sec): 4.000000E-1
Scans to average: 1
Nonlinearity correction enabled: false
Boxcar width: 0
Storing dark spectrum: false
XAxis mode: Wavelengths
Number of Pixels in Spectrum: 1024
>>>>>Begin Spectral Data<<<<<
801.071	28002
801.214	28101
801.356	27694
801.499	27736
801.641	27504
801.783	27595
801.926	27739
802.068	27698
802.211	27485
802.353	27507
802.496	27214
802.638	27306
802.78	27184
802.923	27173
803.065	27154
803.208	27256
803.35	27131
803.492	27291
803.635	27431
803.777	27313
803.919	27439
804.061	27717
804.204	27580
804.346	27344
804.488	27260
804.63	27397
804.773	27485
804.915	27507
805.057	27652
805.199	27583
805.341	27359
805.483	27587
805.626	27656
805.768	27420
805.91	27507
806.052	27724
806.194	27424
806.336	27701
806.478	27679
806.62	27595
806.762	27819
806.904	27823
807.046	28124
807.188	27945
807.33	28051
807.472	28074
807.614	27914
807.756	28006
807.898	27819
808.04	27823
808.182	27873
808.324	27914
808.465	27918
808.607	28059
808.749	28204
808.891	28352
809.033	28451
809.174	28356
809.316	28158
809.458	28238
809.6	28162
809.741	28333
809.883	28356
810.025	28592
810.166	28672
810.308	28611
810.45	28542
810.591	28436
810.733	28131
810.875	28257
811.016	28097
811.158	28078
811.299	28253
811.441	28360
811.582	28413
811.724	28344
811.865	28215
812.007	28162
812.148	28280
812.29	28276
812.431	28481
812.573	28584
812.714	28702
812.855	28771
812.997	28805
813.138	28987
813.279	28930
813.421	28721
813.562	28843
813.703	28679
813.845	28394
813.986	28280
814.127	28101
814.268	27888
814.41	28010
814.551	27983
814.692	27953
814.833	27850
814.974	27987
815.115	27918
815.256	27766
815.397	27743
815.539	27842
815.68	27797
815.821	27641
815.962	27686
816.103	27739
816.244	27720
816.385	27466
816.526	27545
816.666	27382
816.807	27283
816.948	27313
817.089	27386
817.23	27207
817.371	27161
817.512	27256
817.653	27275
817.793	27036
817.934	27245
818.075	27222
818.216	27184
818.356	27192
818.497	27165
818.638	26937
818.778	27096
818.919	27089
819.06	27142
819.2	27211
819.341	27207
819.481	27313
819.622	27313
819.762	27675
819.903	27473
820.043	27500
820.184	27393
820.324	27275
820.465	27462
820.605	27416
820.746	27359
820.886	27245
821.026	27359
821.167	27359
821.307	27408
821.447	27363
821.588	27192
821.728	27100
821.868	26857
822.008	26712
822.149	26815
822.289	26724
822.429	26419
822.569	26355
822.709	26461
822.849	26317
822.99	26275
823.13	26164
823.27	26180
823.41	26012
823.55	25955
823.69	26050
823.83	26073
823.97	26043
824.11	25944
824.25	25883
824.389	25925
824.529	25966
824.669	25845
824.809	25925
824.949	25951
825.089	25966
825.228	25909
825.368	25628
825.508	25597
825.648	25963
825.787	25647
825.927	25894
826.067	25639
826.206	25651
826.346	25849
826.485	25734
826.625	25712
826.765	25986
826.904	25871
827.044	25499
827.183	25620
827.323	25411
827.462	25548
827.601	25476
827.741	25479
827.88	25578
828.02	25426
828.159	25430
828.298	25434
828.437	25540
828.577	25415
828.716	25575
828.855	25384
828.994	25164
829.134	25251
829.273	25152
829.412	25065
829.551	24989
829.69	25133
829.829	25285
829.968	25206
830.107	25247
830.246	25247
830.385	25126
830.524	25107
830.663	24943
830.802	24924
830.941	24875
831.08	24867
831.219	24848
831.357	24943
831.496	25031
831.635	24745
831.774	24772
831.913	24669
832.051	24627
832.19	24642
832.329	24582
832.467	24589
832.606	24433
832.744	24517
832.883	24483
833.022	24391
833.16	24540
833.299	24498
833.437	24597
833.576	24528
833.714	24426
833.852	24525
833.991	24544
834.129	24669
834.267	24490
834.406	24665
834.544	24551
834.682	24544
834.821	24551
834.959	24677
835.097	24445
835.235	24486
835.373	24528
835.511	24437
835.65	24456
835.788	24330
835.926	24228
836.064	24285
836.202	24224
836.34	24330
836.478	24372
836.615	24292
836.753	24330
836.891	24429
837.029	24452
837.167	24346
837.305	24262
837.443	24334
837.58	24327
837.718	24334
837.856	24171
837.993	24106
838.131	24140
838.269	24057
838.406	24190
838.544	24125
838.681	23836
838.819	23832
838.956	23798
839.094	23710
839.231	23786
839.369	23904
839.506	24015
839.643	23893
839.781	23684
839.918	23680
840.055	23843
840.193	23695
840.33	23710
840.467	23573
840.604	23672
840.742	23843
840.879	23433
841.016	23482
841.153	23497
841.29	23729
841.427	23509
841.564	23695
841.701	23600
841.838	23531
841.975	23551
842.112	23520
842.249	23280
842.385	23330
842.522	23524
842.659	23360
842.796	23334
842.933	23364
843.069	23193
843.206	23334
843.343	23395
843.479	23261
843.616	23471
843.752	23273
843.889	23136
844.025	23231
844.162	23060
844.298	23277
844.435	23170
844.571	22999
844.708	23124
844.844	23315
844.98	23258
845.117	23178
845.253	22999
845.389	22987
845.525	22900
845.661	23037
845.798	22892
845.934	22930
846.07	22797
846.206	23048
846.342	22999
846.478	22835
846.614	22687
846.75	22569
846.886	22557
847.022	22767
847.158	22664
847.294	22649
847.429	22736
847.565	22626
847.701	22801
847.837	22413
847.972	22318
848.108	22421
848.244	22421
848.379	22234
848.515	22124
848.65	22257
848.786	22207
848.921	22143
849.057	22367
849.192	22238
849.328	22230
849.463	22128
849.598	22139
849.734	22074
849.869	22044
850.004	21964
850.14	22029
850.275	21968
850.41	21861
850.545	21956
850.68	21915
850.815	22196
850.95	21930
851.085	22154
851.22	22036
851.355	22006
851.49	21846
851.625	21888
851.76	21831
851.895	21876
852.03	21804
852.165	22067
852.299	22017
852.434	21903
852.569	22017
852.703	21930
852.838	21972
852.973	21998
853.107	22067
853.242	21934
853.376	21732
853.511	21717
853.645	21728
853.78	21994
853.914	21732
854.048	21823
854.183	21667
854.317	21873
854.451	21991
854.585	21743
854.72	21682
854.854	21819
854.988	21705
855.122	21622
855.256	21618
855.39	21660
855.524	21869
855.658	21823
855.792	21747
855.926	21762
856.06	21831
856.194	21873
856.327	21675
856.461	21736
856.595	21705
856.729	21652
856.862	21797
856.996	21854
857.13	21838
857.263	21915
857.397	21835
857.53	21698
857.664	21724
857.797	21873
857.931	21793
858.064	21831
858.197	21861
858.331	21781
858.464	21675
858.597	21720
858.731	21652
858.864	21682
858.997	21759
859.13	21732
859.263	21663
859.396	21903
859.529	21774
859.662	21800
859.795	21652
859.928	21736
860.061	21918
860.194	21892
860.327	21709
860.46	21774
860.592	21869
860.725	21926
860.858	21934
860.99	21831
861.123	21736
861.256	21888
861.388	21797
861.521	22303
861.653	21747
861.786	21466
861.918	21629
862.05	21622
862.183	21553
862.315	21686
862.447	21739
862.58	21675
862.712	21576
862.844	21393
862.976	21606
863.108	21580
863.24	21895
863.372	21481
863.504	21519
863.636	21511
863.768	21462
863.9	21344
864.032	21378
864.164	21386
864.296	21370
864.428	21492
864.559	21583
864.691	21492
864.823	21538
864.954	21515
865.086	21435
865.217	21336
865.349	21336
865.48	21329
865.612	21386
865.743	21534
865.875	21477
866.006	21226
866.137	21344
866.269	21466
866.4	21382
866.531	21393
866.662	21169
866.793	21344
866.924	21336
867.055	21382
867.186	21245
867.317	21340
867.448	21272
867.579	21176
867.71	21249
867.841	21245
867.972	21241
868.103	21211
868.233	21340
868.364	21211
868.495	21367
868.625	21587
868.756	21561
868.886	21378
869.017	21462
869.147	21561
869.278	21545
869.408	21389
869.539	21622
869.669	21564
869.799	21591
869.929	21603
870.06	21618
870.19	21800
870.32	21823
870.45	21926
870.58	21968
870.71	22021
870.84	22082
870.97	21975
871.1	21918
871.23	22211
871.36	22131
871.489	21953
871.619	22063
871.749	22196
871.879	22192
872.008	22234
872.138	22067
872.267	22192
872.397	22025
872.526	21949
872.656	21956
872.785	22055
872.915	22246
873.044	22234
873.173	22238
873.303	22166
873.432	22086
873.561	22291
873.69	22143
873.819	22185
873.948	22200
874.077	22234
874.206	22036
874.335	22131
874.464	22261
874.593	22356
874.722	22455
874.851	22390
874.979	22329
875.108	22409
875.237	22371
875.365	22135
875.494	22344
875.623	22531
875.751	22223
875.88	22398
876.008	22443
876.136	22569
876.265	22721
876.393	22881
876.521	22816
876.65	22885
876.778	22755
876.906	22675
877.034	22611
877.162	22736
877.29	22618
877.418	22710
877.546	22584
877.674	22626
877.802	22774
877.93	22588
878.058	22656
878.185	22432
878.313	22679
878.441	22656
878.568	22577
878.696	22516
878.824	22729
878.951	22725
879.079	22793
879.206	22968
879.333	22843
879.461	22759
879.588	22793
879.715	22904
879.842	22946
879.97	22702
880.097	22493
880.224	22485
880.351	22561
880.478	22485
880.605	22512
880.732	22493
880.859	22763
880.986	22656
881.112	22599
881.239	22325
881.366	22272
881.493	22169
881.619	22173
881.746	22135
881.872	22029
881.999	22017
882.125	22044
882.252	22112
882.378	22036
882.505	22158
882.631	21972
882.757	21865
882.883	21831
883.01	21972
883.136	21728
883.262	21610
883.388	21614
883.514	21766
883.64	21895
883.766	21698
883.892	21576
884.018	21625
884.143	21690
884.269	21682
884.395	21389
884.52	21351
884.646	21374
884.772	21336
884.897	21325
885.023	21408
885.148	21439
885.274	21386
885.399	21568
885.524	21378
885.65	21492
885.775	21477
885.9	21363
886.025	21519
886.15	21435
886.275	21367
886.4	21321
886.525	21310
886.65	21279
886.775	21336
886.9	21496
887.025	21606
887.149	21325
887.274	21199
887.399	21093
887.523	21302
887.648	21112
887.773	21108
887.897	21230
888.021	21249
888.146	21256
888.27	21291
888.395	21252
888.519	21268
888.643	21169
888.767	21214
888.891	21077
889.015	21001
889.139	21096
889.263	20952
889.387	21058
889.511	21150
889.635	21146
889.759	21100
889.883	20887
890.006	20982
890.13	21020
890.254	20872
890.377	21005
890.501	20785
890.624	20743
890.748	20777
890.871	20609
890.995	20537
891.118	20469
891.241	20575
891.364	20560
891.488	20621
891.611	20541
891.734	20511
891.857	20530
891.98	20594
892.103	20560
892.226	20552
892.349	20469
892.471	20336
892.594	20431
892.717	20434
892.839	20374
892.962	20488
893.085	20499
893.207	20469
893.33	20256
893.452	20221
893.575	20526
893.697	20450
893.819	20473
893.941	20533
894.064	20514
894.186	20476
894.308	20469
894.43	20556
894.552	20526
894.674	20579
894.796	20366
894.918	20252
895.04	20492
895.161	20465
895.283	20457
895.405	20298
895.526	20324
895.648	20446
895.769	20381
895.891	20469
896.012	20511
896.134	20446
896.255	20404
896.376	20488
896.498	20408
896.619	20415
896.74	20431
896.861	20507
896.982	20743
897.103	20838
897.224	20686
897.345	20686
897.466	20575
897.587	20606
897.708	20716
897.828	20754
897.949	20537
898.07	20419
898.19	20636
898.311	20651
898.431	20651
898.552	20659
898.672	20716
898.792	20674
898.913	20655
899.033	20442
899.153	20393
899.273	20374
899.393	20358
899.513	20408
899.633	20355
899.753	20423
899.873	20271
899.993	20454
900.113	20370
900.232	20267
900.352	20271
900.472	20195
900.591	20065
900.711	20084
900.83	20183
900.95	20225
901.069	20145
901.189	19894
901.308	19769
901.427	19719
901.546	19746
901.665	19719
901.784	19780
901.904	19537
902.023	19601
902.141	19240
902.26	19266
902.379	19343
902.498	19221
902.617	19251
902.735	19213
902.854	19202
902.973	19137
903.091	18806
903.21	18970
903.328	18814
903.446	18829
903.565	18768
903.683	18688
903.801	18642
903.919	18715
904.038	18608
904.156	18528
904.274	18566
904.392	18544
904.51	18471
904.627	18388
904.745	18604
904.863	18540
904.981	18319
905.098	18110
905.216	18228
905.334	18201
905.451	18163
905.569	17980
905.686	18205
905.803	18068
905.921	17980
906.038	18030
906.155	17942
906.272	17840
906.389	18007
906.506	17596
906.623	17741
906.74	17703
906.857	17520
906.974	17581
907.091	17783
907.208	17828
907.324	17680
907.441	17501
907.557	17414
907.674	17444
907.79	17356
907.907	17334
908.023	17482
908.139	17337
908.256	17288
908.372	17200
908.488	17235
908.604	17086
908.72	17060
908.836	17121
908.952	17105
909.068	17151
909.184	17220
909.3	17197
909.415	17048
909.531	17079
909.647	16801
909.762	16873
909.878	16828
909.993	16866
910.108	16778
910.224	16805
910.339	16824
910.454	16672
910.57	16592
910.685	16672
910.8	16839
910.915	16763
911.03	16485
911.145	16394
911.259	16341
911.374	16459
911.489	16360
911.604	16261
911.718	16120
911.833	16139
911.947	16021
912.062	15945
912.176	16173
912.291	16071
912.405	16063
912.519	16295
912.633	16356
912.748	16097
912.862	16040
912.976	15979
913.09	15876
913.204	15975
913.318	15991
913.431	16071
913.545	16048
913.659	16013
913.772	15873
913.886	15739
914	15701
914.113	15781
914.226	15835
914.34	15766
914.453	15587
914.566	15682
914.68	15625
914.793	15679
914.906	15378
915.019	15397
915.132	15329
915.245	15405
915.358	15382
915.47	15317
915.583	15241
915.696	15378
915.809	15397
915.921	15393
916.034	15370
916.146	15207
916.259	15260
916.371	15382
916.483	15310
916.595	15116
916.708	15138
916.82	15192
916.932	15055
917.044	15150
917.156	15199
917.268	15005
917.38	15047
917.491	15089
917.603	14979
917.715	14998
917.826	15013
917.938	14948
918.049	14857
918.161	14883
918.272	15001
918.384	15055
918.495	14944
918.606	14811
918.717	14754
918.828	14804
918.939	14735
919.05	14678
919.161	14705
919.272	14461
919.383	14587
919.494	14724
919.604	15001
919.715	14716
919.826	14655
919.936	14663
920.047	14819
920.157	14769
920.267	14883
920.378	14705
920.488	14743
920.598	14777
920.708	14967
920.818	14899
920.928	14815
921.038	14941
921.148	14906
921.258	14606
921.368	14648
921.477	14598
921.587	14469
921.697	14305
921.806	14370
921.916	14278
922.025	14157
922.134	14092
922.244	14084
922.353	14149
922.462	13944
922.571	13791
922.68	13769
922.789	13693
922.898	13795
923.007	13613
923.116	13841
923.224	13658
923.333	13715
923.442	13544
923.55	13544
923.659	13582
923.767	13567
923.876	13597
923.984	13548
924.092	13278
924.201	13499
924.309	13415
924.417	13544
924.525	13320
924.633	13403
924.741	14134
924.849	13217
924.956	13358
925.064	13126
925.172	13160
925.279	13057
925.387	13160
925.494	13168
925.602	13259
925.709	13164
925.816	12970
925.924	13141
926.031	13118
926.138	13103
926.245	13168
926.352	12981
926.459	13069
926.566	13213
926.673	12993
926.779	12863
926.886	12886
926.993	12757
927.099	12764
927.206	12589
927.312	12696
927.419	12738
927.525	12673
927.631	12745
927.737	12464
927.843	12631
927.95	12395
928.056	12479
928.162	12502
928.267	12494
928.373	13103
928.479	12559
928.585	12292
928.69	12479
928.796	12525
928.901	12376
929.007	12163
929.112	12353
929.218	12319
929.323	12224
929.428	12266
929.533	12308
929.638	12281
929.743	12144
929.848	12201
929.953	12148
930.058	12045
930.163	11927
930.267	11908
930.372	12011
930.477	11939
930.581	12140
930.685	11821
930.79	11722
930.894	11840
930.998	11775
931.103	11882
931.207	11573
931.311	11490
931.415	11368
931.519	11128
931.623	11231
