Data from test_V78500241_3019.txt Node
Date: Fri Mar 25 15:30:52 CST 2022
User: usil
Spectrometer: V785-0024
Trigger mode: 0
Integration Time (sec): 4.000000E-1
Scans to average: 1
Nonlinearity correction enabled: false
Boxcar width: 0
Storing dark spectrum: false
XAxis mode: Wavelengths
Number of Pixels in Spectrum: 1024
>>>>>Begin Spectral Data<<<<<
801.071	27294
801.214	27070
801.356	27051
801.499	26921
801.641	26765
801.783	26727
801.926	26948
802.068	26819
802.211	26765
802.353	26598
802.496	26453
802.638	26480
802.78	26499
802.923	26195
803.065	26271
803.208	26343
803.35	26400
803.492	26537
803.635	26621
803.777	26450
803.919	26488
804.061	26937
804.204	26568
804.346	26469
804.488	26423
804.63	26488
804.773	26438
804.915	26625
805.057	26564
805.199	26492
805.341	26609
805.483	26807
805.626	26758
805.768	26541
805.91	26693
806.052	26762
806.194	26625
806.336	26826
806.478	26564
806.62	26796
806.762	26636
806.904	26940
807.046	27165
807.188	27066
807.33	26990
807.472	27157
807.614	26971
807.756	26906
807.898	26948
808.04	26906
808.182	27017
808.324	26887
808.465	26944
808.607	27066
808.749	27241
808.891	27329
809.033	27420
809.174	27272
809.316	27203
809.458	27237
809.6	27241
809.741	27408
809.883	27420
810.025	27587
810.166	27587
810.308	27443
810.45	27557
810.591	27492
810.733	27336
810.875	27298
811.016	27169
811.158	27138
811.299	27405
811.441	27427
811.582	27549
811.724	27165
811.865	27199
812.007	27222
812.148	27222
812.29	27310
812.431	27454
812.573	27583
812.714	27595
812.855	27778
812.997	27884
813.138	27994
813.279	27816
813.421	27766
813.562	27667
813.703	27530
813.845	27393
813.986	27119
814.127	27119
814.268	26937
814.41	26861
814.551	26895
814.692	27013
814.833	26861
814.974	26883
815.115	26982
815.256	26857
815.397	26788
815.539	26921
815.68	26765
815.821	26640
815.962	26765
816.103	26556
816.244	26533
816.385	26511
816.526	26339
816.666	26252
816.807	26107
816.948	26145
817.089	26225
817.23	26221
817.371	26210
817.512	26065
817.653	26111
817.793	26191
817.934	26187
818.075	26324
818.216	26172
818.356	26092
818.497	26027
818.638	25925
818.778	25875
818.919	25807
819.06	25982
819.2	26024
819.341	26126
819.481	26111
819.622	26286
819.762	26488
819.903	26503
820.043	26278
820.184	26278
820.324	26237
820.465	26442
820.605	26305
820.746	26161
820.886	26027
821.026	26202
821.167	26084
821.307	26343
821.447	25982
821.588	26077
821.728	25936
821.868	25902
822.008	25727
822.149	25597
822.289	25734
822.429	25350
822.569	25339
822.709	25301
822.849	25050
822.99	25259
823.13	25152
823.27	25175
823.41	24947
823.55	24935
823.69	24932
823.83	24913
823.97	24833
824.11	24745
824.25	24639
824.389	24745
824.529	24753
824.669	24795
824.809	24878
824.949	24760
825.089	24886
825.228	24722
825.368	24589
825.508	24540
825.648	24570
825.787	24612
825.927	24627
826.067	24418
826.206	24665
826.346	24681
826.485	24646
826.625	24642
826.765	24787
826.904	24764
827.044	24429
827.183	24319
827.323	24342
827.462	24361
827.601	24334
827.741	24285
827.88	24254
828.02	24251
828.159	24239
828.298	24266
828.437	24319
828.577	24270
828.716	24525
828.855	24258
828.994	24076
829.134	24041
829.273	23996
829.412	23889
829.551	23908
829.69	24106
829.829	24034
829.968	24087
830.107	23889
830.246	24136
830.385	24041
830.524	23832
830.663	23863
830.802	23657
830.941	23608
831.08	23691
831.219	23687
831.357	23733
831.496	23904
831.635	23615
831.774	23452
831.913	23455
832.051	23379
832.19	23505
832.329	23391
832.467	23315
832.606	23235
832.744	23261
832.883	23398
833.022	23269
833.16	23334
833.299	23261
833.437	23315
833.576	23337
833.714	23421
833.852	23376
833.991	23334
834.129	23471
834.267	23573
834.406	23372
834.544	23398
834.682	23440
834.821	23288
834.959	23570
835.097	23315
835.235	23368
835.373	23269
835.511	23353
835.65	23265
835.788	23269
835.926	23223
836.064	23033
836.202	23060
836.34	23124
836.478	23269
836.615	23109
836.753	23124
836.891	23235
837.029	23223
837.167	23010
837.305	23056
837.443	23170
837.58	23102
837.718	23197
837.856	23105
837.993	22934
838.131	23094
838.269	22999
838.406	23014
838.544	22831
838.681	22694
838.819	22634
838.956	22531
839.094	22542
839.231	22550
839.369	22733
839.506	22812
839.643	22805
839.781	22470
839.918	22447
840.055	22436
840.193	22485
840.33	22481
840.467	22504
840.604	22512
840.742	22691
840.879	22394
841.016	22348
841.153	22268
841.29	22546
841.427	22508
841.564	22489
841.701	22413
841.838	22371
841.975	22360
842.112	22348
842.249	22325
842.385	22147
842.522	22523
842.659	22246
842.796	22253
842.933	22200
843.069	22082
843.206	22204
843.343	22253
843.479	22215
843.616	22230
843.752	21979
843.889	22010
844.025	22162
844.162	21854
844.298	22074
844.435	22021
844.571	21823
844.708	22010
844.844	22120
844.98	22158
845.117	22143
845.253	21918
845.389	21739
845.525	21812
845.661	21774
845.798	21698
845.934	21743
846.07	21739
846.206	21713
846.342	21736
846.478	21770
846.614	21462
846.75	21386
846.886	21538
847.022	21622
847.158	21485
847.294	21485
847.429	21538
847.565	21336
847.701	21675
847.837	21207
847.972	21195
848.108	21165
848.244	21283
848.379	21112
848.515	21051
848.65	21062
848.786	20990
848.921	21135
849.057	21085
849.192	21150
849.328	21005
849.463	20994
849.598	21047
849.734	20929
849.869	20861
850.004	20804
850.14	20792
850.275	20773
850.41	20689
850.545	20746
850.68	20792
850.815	20739
850.95	20815
851.085	21009
851.22	20956
851.355	20754
851.49	20804
851.625	20720
851.76	20811
851.895	20785
852.03	20648
852.165	20739
852.299	20906
852.434	20857
852.569	20777
852.703	20982
852.838	20864
852.973	20967
853.107	20861
853.242	20777
853.376	20560
853.511	20514
853.645	20617
853.78	20735
853.914	20705
854.048	20533
854.183	20556
854.317	20705
854.451	20746
854.585	20518
854.72	20693
854.854	20678
854.988	20640
855.122	20636
855.256	20415
855.39	20579
855.524	20712
855.658	20659
855.792	20693
855.926	20636
856.06	20712
856.194	20678
856.327	20602
856.461	20476
856.595	20575
856.729	20545
856.862	20708
856.996	20689
857.13	20682
857.263	20686
857.397	20765
857.53	20606
857.664	20781
857.797	20705
857.931	20693
858.064	20609
858.197	20746
858.331	20537
858.464	20560
858.597	20507
858.731	20621
858.864	20629
858.997	20708
859.13	20617
859.263	20568
859.396	20689
859.529	20621
859.662	20564
859.795	20530
859.928	20735
860.061	20872
860.194	20815
860.327	20617
860.46	20598
860.592	20739
860.725	20811
860.858	20849
860.99	20560
861.123	20587
861.256	20431
861.388	20522
861.521	21287
861.653	20446
861.786	20457
861.918	20434
862.05	20423
862.183	20511
862.315	20488
862.447	20670
862.58	20530
862.712	20446
862.844	20259
862.976	20355
863.108	20408
863.24	20880
863.372	20157
863.504	20278
863.636	20366
863.768	20366
863.9	20393
864.032	20214
864.164	20355
864.296	20362
864.428	20393
864.559	20385
864.691	20442
864.823	20294
864.954	20355
865.086	20336
865.217	20206
865.349	20115
865.48	20290
865.612	20259
865.743	20305
865.875	20271
866.006	20187
866.137	20176
866.269	20145
866.4	20259
866.531	20180
866.662	20145
866.793	20164
866.924	20145
867.055	20309
867.186	20214
867.317	20164
867.448	20145
867.579	20122
867.71	20065
867.841	20069
867.972	20107
868.103	20157
868.233	20195
868.364	20252
868.495	20332
868.625	20404
868.756	20431
868.886	20339
869.017	20419
869.147	20514
869.278	20636
869.408	20427
869.539	20446
869.669	20454
869.799	20480
869.929	20644
870.06	20507
870.19	20697
870.32	20826
870.45	20693
870.58	20834
870.71	20883
870.84	20933
870.97	20720
871.1	20826
871.23	20941
871.36	20963
871.489	20952
871.619	20967
871.749	21020
871.879	21070
872.008	21085
872.138	21085
872.267	21009
872.397	20948
872.526	20910
872.656	20929
872.785	20853
872.915	21100
873.044	21150
873.173	21142
873.303	20998
873.432	21093
873.561	21127
873.69	21184
873.819	21036
873.948	21074
874.077	21062
874.206	20986
874.335	21028
874.464	21157
874.593	21192
874.722	21344
874.851	21393
874.979	21272
875.108	21313
875.237	21264
875.365	21150
875.494	21188
875.623	21332
875.751	21351
875.88	21332
876.008	21378
876.136	21568
876.265	21663
876.393	21827
876.521	21694
876.65	21625
876.778	21778
876.906	21720
877.034	21580
877.162	21759
877.29	21515
877.418	21629
877.546	21637
877.674	21679
877.802	21572
877.93	21625
878.058	21625
878.185	21412
878.313	21709
878.441	21671
878.568	21599
878.696	21595
878.824	21698
878.951	21603
879.079	21880
879.206	21895
879.333	21743
879.461	21686
879.588	21778
879.715	21865
879.842	22013
879.97	21717
880.097	21408
880.224	21454
880.351	21591
880.478	21469
880.605	21447
880.732	21416
880.859	21667
880.986	21606
881.112	21538
881.239	21367
881.366	21157
881.493	21074
881.619	21184
881.746	21108
881.872	21093
881.999	20910
882.125	21096
882.252	21116
882.378	20979
882.505	21104
882.631	20765
882.757	20705
882.883	20925
883.01	20785
883.136	20735
883.262	20644
883.388	20674
883.514	20781
883.64	20804
883.766	20705
883.892	20514
884.018	20636
884.143	20765
884.269	20853
884.395	20476
884.52	20427
884.646	20400
884.772	20370
884.897	20358
885.023	20507
885.148	20522
885.274	20465
885.399	20450
885.524	20438
885.65	20393
885.775	20495
885.9	20286
886.025	20590
886.15	20423
886.275	20362
886.4	20377
886.525	20351
886.65	20404
886.775	20442
886.9	20583
887.025	20621
887.149	20301
887.274	20290
887.399	20145
887.523	20237
887.648	20096
887.773	20145
887.897	20282
888.021	20161
888.146	20267
888.27	20267
888.395	20248
888.519	20115
888.643	20225
888.767	20191
888.891	20039
889.015	20031
889.139	19993
889.263	20043
889.387	19989
889.511	20176
889.635	20252
889.759	20020
889.883	19913
890.006	20046
890.13	20183
890.254	19940
890.377	19833
890.501	19715
890.624	19746
890.748	19845
890.871	19662
890.995	19620
891.118	19480
891.241	19540
891.364	19552
891.488	19647
891.611	19575
891.734	19575
891.857	19590
891.98	19506
892.103	19651
892.226	19510
892.349	19521
892.471	19373
892.594	19521
892.717	19613
892.839	19445
892.962	19419
893.085	19460
893.207	19445
893.33	19468
893.452	19441
893.575	19449
893.697	19434
893.819	19575
893.941	19685
894.064	19639
894.186	19472
894.308	19373
894.43	19616
894.552	19715
894.674	19533
894.796	19449
894.918	19521
895.04	19559
895.161	19639
895.283	19597
895.405	19400
895.526	19487
895.648	19419
895.769	19548
895.891	19483
896.012	19670
896.134	19590
896.255	19571
896.376	19533
896.498	19556
896.619	19597
896.74	19540
896.861	19533
896.982	19807
897.103	20016
897.224	19826
897.345	19750
897.466	19628
897.587	19833
897.708	19795
897.828	19681
897.949	19620
898.07	19571
898.19	19643
898.311	19776
898.431	19674
898.552	19734
898.672	19898
898.792	19700
898.913	19757
899.033	19731
899.153	19624
899.273	19483
899.393	19582
899.513	19506
899.633	19495
899.753	19609
899.873	19388
899.993	19586
900.113	19563
900.232	19556
900.352	19415
900.472	19396
900.591	19171
900.711	19228
900.83	19171
900.95	19457
901.069	19422
901.189	19137
901.308	19012
901.427	18958
901.546	18852
901.665	18939
901.784	19004
901.904	18669
902.023	18646
902.141	18479
902.26	18372
902.379	18563
902.498	18448
902.617	18361
902.735	18490
902.854	18407
902.973	18338
903.091	18057
903.21	17973
903.328	18091
903.446	18068
903.565	17931
903.683	17889
903.801	17813
903.919	17859
904.038	17843
904.156	17623
904.274	17798
904.392	17642
904.51	17615
904.627	17611
904.745	17691
904.863	17684
904.981	17463
905.098	17406
905.216	17395
905.334	17353
905.451	17334
905.569	17292
905.686	17379
905.803	17345
905.921	17056
906.038	17231
906.155	17143
906.272	17079
906.389	17083
906.506	16828
906.623	16862
906.74	16858
906.857	16740
906.974	16801
907.091	16873
907.208	16892
907.324	16850
907.441	16820
907.557	16596
907.674	16637
907.79	16607
907.907	16516
908.023	16577
908.139	16531
908.256	16531
908.372	16436
908.488	16447
908.604	16470
908.72	16284
908.836	16268
908.952	16272
909.068	16360
909.184	16402
909.3	16280
909.415	16363
909.531	16173
909.647	16044
909.762	16021
909.878	16013
909.993	16074
910.108	15960
910.224	15888
910.339	15937
910.454	15926
910.57	15907
910.685	15747
910.8	16051
910.915	15998
911.03	15831
911.145	15751
911.259	15667
911.374	15625
911.489	15523
911.604	15553
911.718	15405
911.833	15405
911.947	15298
912.062	15355
912.176	15397
912.291	15351
912.405	15386
912.519	15667
912.633	15511
912.748	15351
912.862	15325
912.976	15142
913.09	15074
913.204	15180
913.318	15287
913.431	15226
913.545	15306
913.659	15313
913.772	15127
913.886	15017
914	15108
914.113	15039
914.226	15116
914.34	15089
914.453	14872
914.566	15062
914.68	15020
914.793	14891
914.906	14598
915.019	14686
915.132	14636
915.245	14533
915.358	14629
915.47	14602
915.583	14556
915.696	14625
915.809	14629
915.921	14739
916.034	14632
916.146	14556
916.259	14526
916.371	14590
916.483	14598
916.595	14457
916.708	14530
916.82	14518
916.932	14495
917.044	14431
917.156	14374
917.268	14214
917.38	14343
917.491	14317
917.603	14282
917.715	14381
917.826	14492
917.938	14400
918.049	14145
918.161	14172
918.272	14282
918.384	14355
918.495	14278
918.606	14119
918.717	13986
918.828	14103
918.939	14081
919.05	14005
919.161	14081
919.272	13830
919.383	13940
919.494	14050
919.604	14221
919.715	14126
919.826	13936
919.936	14043
920.047	14161
920.157	14054
920.267	14210
920.378	14058
920.488	14012
920.598	14164
920.708	14332
920.818	14088
920.928	14145
921.038	14328
921.148	14332
921.258	14027
921.368	13959
921.477	13841
921.587	13776
921.697	13753
921.806	13818
921.916	13624
922.025	13518
922.134	13449
922.244	13354
922.353	13457
922.462	13308
922.571	13228
922.68	13217
922.789	13091
922.898	13213
923.007	13019
923.116	13069
923.224	13008
923.333	13038
923.442	12943
923.55	12973
923.659	13019
923.767	13000
923.876	12894
923.984	12924
924.092	12875
924.201	12878
924.309	12779
924.417	12859
924.525	12757
924.633	12798
924.741	13582
924.849	12578
924.956	12722
925.064	12513
925.172	12490
925.279	12486
925.387	12566
925.494	12494
925.602	12578
925.709	12498
925.816	12426
925.924	12475
926.031	12509
926.138	12456
926.245	12532
926.352	12407
926.459	12532
926.566	12578
926.673	12372
926.779	12292
926.886	12300
926.993	12114
927.099	12182
927.206	12098
927.312	12076
927.419	12201
927.525	12007
927.631	12144
927.737	11931
927.843	11942
927.95	11809
928.056	11939
928.162	11946
928.267	12041
928.373	12566
928.479	12030
928.585	11805
928.69	11939
928.796	11942
928.901	11832
929.007	11680
929.112	11786
929.218	11764
929.323	11783
929.428	11699
929.533	11764
929.638	11688
929.743	11718
929.848	11611
929.953	11539
930.058	11482
930.163	11414
930.267	11368
930.372	11589
930.477	11337
930.581	11608
930.685	11436
930.79	11242
930.894	11345
930.998	11246
931.103	11376
931.207	10995
931.311	10927
931.415	10938
931.519	10702
931.623	10615
