Data from test_V78500241_1460.txt Node
Date: Fri Mar 25 15:20:01 CST 2022
User: usil
Spectrometer: V785-0024
Trigger mode: 0
Integration Time (sec): 4.000000E-1
Scans to average: 1
Nonlinearity correction enabled: false
Boxcar width: 0
Storing dark spectrum: false
XAxis mode: Wavelengths
Number of Pixels in Spectrum: 1024
>>>>>Begin Spectral Data<<<<<
801.071	27865
801.214	27819
801.356	27466
801.499	27481
801.641	27340
801.783	27329
801.926	27370
802.068	27504
802.211	27184
802.353	27252
802.496	26781
802.638	27119
802.78	26948
802.923	26960
803.065	26857
803.208	27024
803.35	26864
803.492	27142
803.635	27135
803.777	27055
803.919	27100
804.061	27641
804.204	27321
804.346	27146
804.488	27207
804.63	27275
804.773	27051
804.915	27100
805.057	27275
805.199	27245
805.341	27291
805.483	27370
805.626	27363
805.768	27207
805.91	27207
806.052	27397
806.194	27184
806.336	27530
806.478	27264
806.62	27367
806.762	27458
806.904	27469
807.046	27797
807.188	27774
807.33	27755
807.472	27869
807.614	27709
807.756	27724
807.898	27576
808.04	27530
808.182	27679
808.324	27610
808.465	27652
808.607	27812
808.749	27979
808.891	27968
809.033	28070
809.174	27914
809.316	27778
809.458	27873
809.6	27888
809.741	27934
809.883	28013
810.025	28188
810.166	28219
810.308	28169
810.45	28265
810.591	28070
810.733	28048
810.875	28013
811.016	27800
811.158	27880
811.299	28010
811.441	28067
811.582	28131
811.724	27922
811.865	27865
812.007	27876
812.148	27888
812.29	27964
812.431	28234
812.573	28291
812.714	28287
812.855	28580
812.997	28512
813.138	28641
813.279	28607
813.421	28580
813.562	28455
813.703	28295
813.845	27994
813.986	27930
814.127	27736
814.268	27583
814.41	27690
814.551	27690
814.692	27778
814.833	27507
814.974	27587
815.115	27641
815.256	27473
815.397	27488
815.539	27538
815.68	27344
815.821	27310
815.962	27389
816.103	27416
816.244	27214
816.385	27207
816.526	27272
816.666	26960
816.807	26960
816.948	26960
817.089	27123
817.23	27020
817.371	26963
817.512	27043
817.653	26914
817.793	26944
817.934	26986
818.075	26990
818.216	27058
818.356	26868
818.497	26849
818.638	26545
818.778	26853
818.919	26549
819.06	26864
819.2	26861
819.341	26868
819.481	26826
819.622	27138
819.762	27222
819.903	27154
820.043	27085
820.184	27043
820.324	26990
820.465	27074
820.605	27055
820.746	27051
820.886	26925
821.026	27089
821.167	27100
821.307	27127
821.447	26979
821.588	26872
821.728	26629
821.868	26549
822.008	26488
822.149	26282
822.289	26385
822.429	26126
822.569	26035
822.709	25982
822.849	25978
822.99	25849
823.13	25894
823.27	25772
823.41	25685
823.55	25715
823.69	25594
823.83	25647
823.97	25696
824.11	25537
824.25	25548
824.389	25499
824.529	25620
824.669	25575
824.809	25628
824.949	25635
825.089	25563
825.228	25514
825.368	25407
825.508	25312
825.648	25327
825.787	25460
825.927	25422
826.067	25297
826.206	25434
826.346	25445
826.485	25510
826.625	25419
826.765	25540
826.904	25392
827.044	25168
827.183	25095
827.323	25133
827.462	25187
827.601	25088
827.741	25103
827.88	25141
828.02	25126
828.159	25038
828.298	25145
828.437	25194
828.577	25187
828.716	25225
828.855	24924
828.994	24825
829.134	24787
829.273	24829
829.412	24760
829.551	24791
829.69	24810
829.829	24768
829.968	24981
830.107	24943
830.246	24772
830.385	24825
830.524	24589
830.663	24620
830.802	24578
830.941	24388
831.08	24239
831.219	24536
831.357	24555
831.496	24642
831.635	24437
831.774	24380
831.913	24277
832.051	24243
832.19	24159
832.329	24277
832.467	24102
832.606	24003
832.744	23931
832.883	24133
833.022	24045
833.16	24068
833.299	24197
833.437	24258
833.576	24247
833.714	24190
833.852	24273
833.991	24194
834.129	24292
834.267	24281
834.406	24144
834.544	24136
834.682	24194
834.821	24148
834.959	24247
835.097	24011
835.235	24155
835.373	24114
835.511	24266
835.65	24041
835.788	24026
835.926	23920
836.064	23786
836.202	23840
836.34	24083
836.478	24026
836.615	23988
836.753	23961
836.891	23992
837.029	24022
837.167	23958
837.305	23790
837.443	23912
837.58	23950
837.718	23954
837.856	23840
837.993	23684
838.131	23790
838.269	23649
838.406	23790
838.544	23600
838.681	23501
838.819	23490
838.956	23174
839.094	23269
839.231	23379
839.369	23543
839.506	23760
839.643	23535
839.781	23315
839.918	23170
840.055	23379
840.193	23220
840.33	23204
840.467	23132
840.604	23303
840.742	23372
840.879	23094
841.016	23174
841.153	23136
841.29	23250
841.427	23143
841.564	23200
841.701	23086
841.838	23029
841.975	23159
842.112	23193
842.249	22999
842.385	22858
842.522	23155
842.659	23060
842.796	23018
842.933	22957
843.069	22877
843.206	22972
843.343	23041
843.479	23006
843.616	23018
843.752	22748
843.889	22831
844.025	22733
844.162	22793
844.298	22889
844.435	22733
844.571	22694
844.708	22793
844.844	22919
844.98	22938
845.117	22831
845.253	22607
845.389	22573
845.525	22694
845.661	22653
845.798	22500
845.934	22550
846.07	22474
846.206	22485
846.342	22573
846.478	22394
846.614	22341
846.75	22128
846.886	22128
847.022	22287
847.158	22124
847.294	22272
847.429	22192
847.565	22135
847.701	22360
847.837	21979
847.972	21865
848.108	22078
848.244	22044
848.379	21736
848.515	21838
848.65	21823
848.786	21823
848.921	21926
849.057	21975
849.192	21880
849.328	21838
849.463	21770
849.598	21789
849.734	21545
849.869	21530
850.004	21618
850.14	21572
850.275	21663
850.41	21374
850.545	21545
850.68	21568
850.815	21564
850.95	21599
851.085	21663
851.22	21728
851.355	21603
851.49	21633
851.625	21542
851.76	21629
851.895	21477
852.03	21618
852.165	21542
852.299	21549
852.434	21682
852.569	21557
852.703	21580
852.838	21606
852.973	21610
853.107	21622
853.242	21477
853.376	21321
853.511	21169
853.645	21355
853.78	21523
853.914	21450
854.048	21287
854.183	21435
854.317	21447
854.451	21473
854.585	21249
854.72	21336
854.854	21523
854.988	21203
855.122	21397
855.256	21256
855.39	21313
855.524	21374
855.658	21462
855.792	21408
855.926	21408
856.06	21393
856.194	21420
856.327	21237
856.461	21302
856.595	21397
856.729	21264
856.862	21545
856.996	21389
857.13	21416
857.263	21405
857.397	21408
857.53	21306
857.664	21412
857.797	21496
857.931	21386
858.064	21321
858.197	21420
858.331	21279
858.464	21252
858.597	21226
858.731	21378
858.864	21332
858.997	21336
859.13	21378
859.263	21473
859.396	21424
859.529	21359
859.662	21218
859.795	21374
859.928	21317
860.061	21530
860.194	21523
860.327	21401
860.46	21420
860.592	21557
860.725	21504
860.858	21553
860.99	21378
861.123	21260
861.256	21310
861.388	21302
861.521	21781
861.653	21245
861.786	21161
861.918	21112
862.05	21203
862.183	21161
862.315	21336
862.447	21382
862.58	21298
862.712	20990
862.844	20994
862.976	21203
863.108	21161
863.24	21557
863.372	20998
863.504	21096
863.636	21146
863.768	21058
863.9	21108
864.032	20921
864.164	20952
864.296	21131
864.428	21119
864.559	21214
864.691	21176
864.823	21066
864.954	20921
865.086	20967
865.217	21055
865.349	20796
865.48	21017
865.612	21036
865.743	21146
865.875	21013
866.006	20998
866.137	21017
866.269	21013
866.4	20937
866.531	20963
866.662	20914
866.793	20899
866.924	20868
867.055	20864
867.186	20891
867.317	20815
867.448	20792
867.579	21043
867.71	20739
867.841	20781
867.972	21013
868.103	20880
868.233	20918
868.364	20819
868.495	21077
868.625	21100
868.756	21363
868.886	21131
869.017	21203
869.147	21096
869.278	21256
869.408	21260
869.539	21218
869.669	21268
869.799	21199
869.929	21256
870.06	21298
870.19	21515
870.32	21462
870.45	21420
870.58	21561
870.71	21545
870.84	21599
870.97	21549
871.1	21568
871.23	21675
871.36	21682
871.489	21694
871.619	21671
871.749	21701
871.879	21781
872.008	21831
872.138	21690
872.267	21686
872.397	21526
872.526	21561
872.656	21477
872.785	21682
872.915	21812
873.044	21835
873.173	21751
873.303	21766
873.432	21846
873.561	21831
873.69	21774
873.819	21694
873.948	21835
874.077	21625
874.206	21701
874.335	21865
874.464	21827
874.593	22090
874.722	21835
874.851	22036
874.979	21949
875.108	21979
875.237	21953
875.365	22090
875.494	21941
875.623	22040
875.751	21907
875.88	21991
876.008	22166
876.136	22196
876.265	22295
876.393	22607
876.521	22405
876.65	22440
876.778	22409
876.906	22303
877.034	22211
877.162	22265
877.29	22192
877.418	22379
877.546	22234
877.674	22333
877.802	22268
877.93	22325
878.058	22204
878.185	22158
878.313	22253
878.441	22318
878.568	22116
878.696	22333
878.824	22363
878.951	22500
879.079	22405
879.206	22767
879.333	22424
879.461	22386
879.588	22470
879.715	22417
879.842	22630
879.97	22348
880.097	22295
880.224	22143
880.351	22021
880.478	22162
880.605	22105
880.732	22070
880.859	22318
880.986	22082
881.112	22242
881.239	22002
881.366	21907
881.493	21747
881.619	21652
881.746	21724
881.872	21732
881.999	21656
882.125	21736
882.252	21698
882.378	21656
882.505	21842
882.631	21530
882.757	21397
882.883	21428
883.01	21439
883.136	21378
883.262	21302
883.388	21188
883.514	21424
883.64	21393
883.766	21272
883.892	21195
884.018	21260
884.143	21367
884.269	21515
884.395	21135
884.52	20963
884.646	21039
884.772	21009
884.897	20982
885.023	21127
885.148	21070
885.274	21245
885.399	21260
885.524	21100
885.65	21058
885.775	21119
885.9	20998
886.025	21085
886.15	21195
886.275	20941
886.4	21055
886.525	21131
886.65	21005
886.775	20986
886.9	21154
887.025	21272
887.149	21074
887.274	21009
887.399	20777
887.523	20731
887.648	20678
887.773	20746
887.897	20895
888.021	20785
888.146	20815
888.27	20861
888.395	20944
888.519	20781
888.643	20929
888.767	20853
888.891	20705
889.015	20659
889.139	20769
889.263	20686
889.387	20697
889.511	20765
889.635	20838
889.759	20598
889.883	20530
890.006	20613
890.13	20708
890.254	20518
890.377	20427
890.501	20454
890.624	20431
890.748	20412
890.871	20199
890.995	20355
891.118	20008
891.241	20206
891.364	20134
891.488	20282
891.611	20168
891.734	20252
891.857	20206
891.98	20161
892.103	20221
892.226	20081
892.349	20134
892.471	19864
892.594	20035
892.717	20081
892.839	20020
892.962	20062
893.085	20202
893.207	20020
893.33	19925
893.452	20024
893.575	20145
893.697	20157
893.819	20180
893.941	20320
894.064	20138
894.186	20103
894.308	19921
894.43	20153
894.552	20206
894.674	20092
894.796	20050
894.918	20001
895.04	20005
895.161	20153
895.283	20168
895.405	19925
895.526	20149
895.648	19955
895.769	20054
895.891	20187
896.012	20157
896.134	20138
896.255	20142
896.376	19936
896.498	20043
896.619	20149
896.74	20176
896.861	20103
896.982	20320
897.103	20518
897.224	20362
897.345	20396
897.466	20317
897.587	20301
897.708	20419
897.828	20309
897.949	20294
898.07	20180
898.19	20168
898.311	20423
898.431	20229
898.552	20290
898.672	20347
898.792	20393
898.913	20324
899.033	20176
899.153	20130
899.273	19932
899.393	20096
899.513	20134
899.633	19963
899.753	20084
899.873	19970
899.993	20069
900.113	20001
900.232	20050
900.352	20039
900.472	19909
900.591	19803
900.711	19803
900.83	19704
900.95	19860
901.069	19993
901.189	19731
901.308	19483
901.427	19419
901.546	19460
901.665	19426
901.784	19419
901.904	19236
902.023	19126
902.141	19171
902.26	18966
902.379	19088
902.498	18962
902.617	18939
902.735	18996
902.854	18814
902.973	18875
903.091	18608
903.21	18502
903.328	18536
903.446	18452
903.565	18445
903.683	18369
903.801	18235
903.919	18376
904.038	18369
904.156	18235
904.274	18323
904.392	18106
904.51	18110
904.627	18140
904.745	18205
904.863	18159
904.981	17973
905.098	17821
905.216	17790
905.334	17965
905.451	17760
905.569	17927
905.686	17961
905.803	17745
905.921	17657
906.038	17676
906.155	17554
906.272	17455
906.389	17589
906.506	17490
906.623	17391
906.74	17395
906.857	17239
906.974	17402
907.091	17395
907.208	17532
907.324	17337
907.441	17299
907.557	17121
907.674	17102
907.79	16995
907.907	16984
908.023	17048
908.139	17166
908.256	17029
908.372	16972
908.488	17090
908.604	16866
908.72	16755
908.836	16790
908.952	16892
909.068	16828
909.184	16961
909.3	16809
909.415	16801
909.531	16725
909.647	16630
909.762	16542
909.878	16455
909.993	16478
910.108	16516
910.224	16409
910.339	16447
910.454	16443
910.57	16310
910.685	16265
910.8	16493
910.915	16462
911.03	16253
911.145	16135
911.259	16059
911.374	16101
911.489	16048
911.604	15979
911.718	15880
911.833	15861
911.947	15808
912.062	15675
912.176	15781
912.291	15865
912.405	15819
912.519	16074
912.633	16082
912.748	15922
912.862	15873
912.976	15690
913.09	15625
913.204	15641
913.318	15561
913.431	15812
913.545	15728
913.659	15793
913.772	15701
913.886	15530
914	15450
914.113	15542
914.226	15584
914.34	15557
914.453	15450
914.566	15458
914.68	15370
914.793	15363
914.906	15275
915.019	15005
915.132	15001
915.245	15176
915.358	15093
915.47	15127
915.583	15119
915.696	15131
915.809	15169
915.921	15173
916.034	15070
916.146	14975
916.259	14906
916.371	15112
916.483	14979
916.595	14910
916.708	14944
916.82	15009
916.932	14819
917.044	14971
917.156	14826
917.268	14800
917.38	14712
917.491	14769
917.603	14697
917.715	14773
917.826	14697
917.938	14720
918.049	14568
918.161	14686
918.272	14781
918.384	14811
918.495	14712
918.606	14606
918.717	14465
918.828	14492
918.939	14560
919.05	14431
919.161	14480
919.272	14282
919.383	14355
919.494	14507
919.604	14708
919.715	14492
919.826	14415
919.936	14446
920.047	14503
920.157	14484
920.267	14701
920.378	14377
920.488	14492
920.598	14590
920.708	14746
920.818	14667
920.928	14545
921.038	14651
921.148	14606
921.258	14419
921.368	14259
921.477	14244
921.587	14206
921.697	14073
921.806	14176
921.916	14001
922.025	13871
922.134	13807
922.244	13830
922.353	13898
922.462	13731
922.571	13575
922.68	13567
922.789	13487
922.898	13464
923.007	13563
923.116	13483
923.224	13495
923.333	13510
923.442	13263
923.55	13240
923.659	13289
923.767	13464
923.876	13206
923.984	13316
924.092	13225
924.201	13297
924.309	13304
924.417	13266
924.525	13194
924.633	13160
924.741	13963
924.849	12996
924.956	13168
925.064	13034
925.172	12802
925.279	12719
925.387	12863
925.494	12875
925.602	13019
925.709	12966
925.816	12810
925.924	12894
926.031	12962
926.138	12844
926.245	12878
926.352	12741
926.459	12947
926.566	12905
926.673	12764
926.779	12741
926.886	12692
926.993	12494
927.099	12544
927.206	12338
927.312	12323
927.419	12452
927.525	12452
927.631	12429
927.737	12323
927.843	12239
927.95	12167
928.056	12262
928.162	12334
928.267	12319
928.373	12859
928.479	12334
928.585	12144
928.69	12327
928.796	12285
928.901	12197
929.007	12007
929.112	12129
929.218	12125
929.323	12079
929.428	11992
929.533	12098
929.638	11843
929.743	11901
929.848	12011
929.953	11965
930.058	11843
930.163	11767
930.267	11726
930.372	11916
930.477	11668
930.581	11817
930.685	11836
930.79	11604
930.894	11573
930.998	11528
931.103	11672
931.207	11398
931.311	11174
931.415	11159
931.519	10961
931.623	11014
