Data from test_V78500241_671.txt Node
Date: Fri Mar 25 15:14:31 CST 2022
User: usil
Spectrometer: V785-0024
Trigger mode: 0
Integration Time (sec): 4.000000E-1
Scans to average: 1
Nonlinearity correction enabled: false
Boxcar width: 0
Storing dark spectrum: false
XAxis mode: Wavelengths
Number of Pixels in Spectrum: 1024
>>>>>Begin Spectral Data<<<<<
801.071	28010
801.214	27865
801.356	27641
801.499	27720
801.641	27583
801.783	27500
801.926	27603
802.068	27610
802.211	27389
802.353	27367
802.496	27340
802.638	27195
802.78	27245
802.923	27241
803.065	27127
803.208	27211
803.35	27222
803.492	27298
803.635	27447
803.777	27256
803.919	27427
804.061	27675
804.204	27378
804.346	27298
804.488	27370
804.63	27424
804.773	27264
804.915	27332
805.057	27504
805.199	27306
805.341	27538
805.483	27633
805.626	27462
805.768	27325
805.91	27431
806.052	27576
806.194	27488
806.336	27732
806.478	27644
806.62	27583
806.762	27743
806.904	27816
807.046	28173
807.188	28006
807.33	27873
807.472	27812
807.614	27888
807.756	27964
807.898	27873
808.04	27739
808.182	27701
808.324	27797
808.465	27846
808.607	28032
808.749	27998
808.891	28143
809.033	28481
809.174	28295
809.316	28253
809.458	28215
809.6	28112
809.741	28306
809.883	28249
810.025	28538
810.166	28542
810.308	28596
810.45	28500
810.591	28432
810.733	28207
810.875	28162
811.016	28082
811.158	28063
811.299	28249
811.441	28249
811.582	28204
811.724	28204
811.865	28105
812.007	28207
812.148	28219
812.29	28162
812.431	28348
812.573	28603
812.714	28683
812.855	28740
812.997	28797
813.138	28980
813.279	28877
813.421	28755
813.562	28713
813.703	28535
813.845	28432
813.986	28211
814.127	27998
814.268	27975
814.41	27968
814.551	27797
814.692	28013
814.833	27895
814.974	27831
815.115	27857
815.256	27785
815.397	27884
815.539	27766
815.68	27743
815.821	27705
815.962	27591
816.103	27637
816.244	27485
816.385	27416
816.526	27477
816.666	27306
816.807	27199
816.948	27249
817.089	27351
817.23	27214
817.371	27199
817.512	27192
817.653	27039
817.793	27207
817.934	27085
818.075	27302
818.216	27260
818.356	27359
818.497	27096
818.638	26982
818.778	27009
818.919	27017
819.06	27089
819.2	27058
819.341	27176
819.481	27237
819.622	27332
819.762	27637
819.903	27462
820.043	27370
820.184	27420
820.324	27275
820.465	27279
820.605	27408
820.746	27264
820.886	27313
821.026	27214
821.167	27218
821.307	27317
821.447	27119
821.588	27085
821.728	27028
821.868	26762
822.008	26663
822.149	26621
822.289	26678
822.429	26400
822.569	26434
822.709	26358
822.849	26191
822.99	26111
823.13	26100
823.27	26035
823.41	26088
823.55	25871
823.69	25928
823.83	25879
823.97	25963
824.11	25860
824.25	25742
824.389	25803
824.529	25925
824.669	25795
824.809	26024
824.949	25959
825.089	25940
825.228	25795
825.368	25674
825.508	25582
825.648	25715
825.787	25704
825.927	25734
826.067	25674
826.206	25666
826.346	25742
826.485	25833
826.625	25670
826.765	25780
826.904	25727
827.044	25422
827.183	25438
827.323	25304
827.462	25487
827.601	25449
827.741	25422
827.88	25407
828.02	25346
828.159	25403
828.298	25289
828.437	25434
828.577	25419
828.716	25597
828.855	25381
828.994	25244
829.134	25080
829.273	25118
829.412	25080
829.551	24932
829.69	25133
829.829	25110
829.968	25179
830.107	25129
830.246	25156
830.385	24916
830.524	25099
830.663	24844
830.802	24814
830.941	24642
831.08	24722
831.219	24909
831.357	24817
831.496	24958
831.635	24719
831.774	24585
831.913	24540
832.051	24540
832.19	24433
832.329	24631
832.467	24418
832.606	24281
832.744	24342
832.883	24467
833.022	24403
833.16	24399
833.299	24342
833.437	24544
833.576	24505
833.714	24441
833.852	24544
833.991	24353
834.129	24627
834.267	24547
834.406	24494
834.544	24589
834.682	24426
834.821	24384
834.959	24654
835.097	24353
835.235	24445
835.373	24410
835.511	24407
835.65	24350
835.788	24262
835.926	24072
836.064	24049
836.202	24190
836.34	24361
836.478	24304
836.615	24319
836.753	24311
836.891	24399
837.029	24311
837.167	24186
837.305	24266
837.443	24258
837.58	24178
837.718	24254
837.856	24224
837.993	24167
838.131	24136
838.269	23920
838.406	24060
838.544	23942
838.681	23733
838.819	23771
838.956	23417
839.094	23573
839.231	23703
839.369	23817
839.506	23973
839.643	23802
839.781	23627
839.918	23398
840.055	23604
840.193	23585
840.33	23490
840.467	23581
840.604	23535
840.742	23737
840.879	23402
841.016	23349
841.153	23326
841.29	23657
841.427	23436
841.564	23528
841.701	23459
841.838	23421
841.975	23486
842.112	23322
842.249	23356
842.385	23159
842.522	23482
842.659	23288
842.796	23235
842.933	23220
843.069	23159
843.206	23067
843.343	23231
843.479	23322
843.616	23360
843.752	23098
843.889	23052
844.025	23227
844.162	22995
844.298	23105
844.435	22953
844.571	22949
844.708	23056
844.844	23147
844.98	23052
845.117	23109
845.253	22927
845.389	22892
845.525	22923
845.661	22942
845.798	22809
845.934	22889
846.07	22835
846.206	22820
846.342	22866
846.478	22744
846.614	22611
846.75	22531
846.886	22421
847.022	22546
847.158	22557
847.294	22474
847.429	22462
847.565	22478
847.701	22691
847.837	22322
847.972	22242
848.108	22360
848.244	22363
848.379	22131
848.515	22086
848.65	22086
848.786	22109
848.921	22147
849.057	22063
849.192	22139
849.328	22055
849.463	22211
849.598	22013
849.734	21972
849.869	21907
850.004	21876
850.14	21949
850.275	21911
850.41	21713
850.545	21770
850.68	21835
850.815	21888
850.95	21739
851.085	22086
851.22	22055
851.355	21915
851.49	21743
851.625	21701
851.76	21728
851.895	21743
852.03	21797
852.165	21846
852.299	21884
852.434	21922
852.569	22032
852.703	21755
852.838	21892
852.973	21987
853.107	22082
853.242	21812
853.376	21709
853.511	21488
853.645	21667
853.78	21800
853.914	21679
854.048	21656
854.183	21644
854.317	21660
854.451	21911
854.585	21618
854.72	21633
854.854	21709
854.988	21485
855.122	21732
855.256	21428
855.39	21587
855.524	21648
855.658	21785
855.792	21618
855.926	21675
856.06	21816
856.194	21629
856.327	21675
856.461	21545
856.595	21568
856.729	21774
856.862	21774
856.996	21648
857.13	21694
857.263	21789
857.397	21717
857.53	21641
857.664	21633
857.797	21717
857.931	21739
858.064	21648
858.197	21797
858.331	21576
858.464	21682
858.597	21431
858.731	21656
858.864	21637
858.997	21530
859.13	21641
859.263	21675
859.396	21686
859.529	21656
859.662	21572
859.795	21549
859.928	21610
860.061	21713
860.194	21926
860.327	21686
860.46	21663
860.592	21766
860.725	21930
860.858	21850
860.99	21679
861.123	21625
861.256	21629
861.388	21652
861.521	22398
861.653	21641
861.786	21557
861.918	21572
862.05	21553
862.183	21481
862.315	21466
862.447	21595
862.58	21652
862.712	21325
862.844	21336
862.976	21412
863.108	21393
863.24	21842
863.372	21294
863.504	21374
863.636	21306
863.768	21393
863.9	21469
864.032	21268
864.164	21298
864.296	21370
864.428	21458
864.559	21485
864.691	21317
864.823	21412
864.954	21245
865.086	21214
865.217	21268
865.349	21207
865.48	21256
865.612	21420
865.743	21447
865.875	21294
866.006	21264
866.137	21340
866.269	21279
866.4	21279
866.531	21283
866.662	21157
866.793	21214
866.924	21119
867.055	21222
867.186	21142
867.317	21226
867.448	21112
867.579	21192
867.71	21032
867.841	21020
867.972	21100
868.103	21127
868.233	21146
868.364	21252
868.495	21230
868.625	21325
868.756	21625
868.886	21348
869.017	21473
869.147	21507
869.278	21561
869.408	21492
869.539	21466
869.669	21496
869.799	21424
869.929	21431
870.06	21561
870.19	21713
870.32	21656
870.45	21644
870.58	21759
870.71	21876
870.84	21899
870.97	21812
871.1	21937
871.23	21964
871.36	22006
871.489	21918
871.619	22025
871.749	22086
871.879	21956
872.008	22139
872.138	21964
872.267	21899
872.397	21922
872.526	21724
872.656	21804
872.785	21949
872.915	21956
873.044	22120
873.173	22017
873.303	22162
873.432	22173
873.561	22090
873.69	22059
873.819	21930
873.948	22147
874.077	22093
874.206	21945
874.335	22109
874.464	22166
874.593	22306
874.722	22177
874.851	22257
874.979	22265
875.108	22337
875.237	22238
875.365	22204
875.494	22280
875.623	22333
875.751	22246
875.88	22284
876.008	22394
876.136	22413
876.265	22649
876.393	22702
876.521	22630
876.65	22717
876.778	22580
876.906	22504
877.034	22527
877.162	22694
877.29	22497
877.418	22653
877.546	22569
877.674	22557
877.802	22603
877.93	22672
878.058	22599
878.185	22440
878.313	22519
878.441	22668
878.568	22432
878.696	22481
878.824	22653
878.951	22744
879.079	22816
879.206	22835
879.333	22725
879.461	22577
879.588	22710
879.715	22710
879.842	22820
879.97	22725
880.097	22268
880.224	22238
880.351	22527
880.478	22531
880.605	22417
880.732	22394
880.859	22653
880.986	22367
881.112	22432
881.239	22246
881.366	22196
881.493	22112
881.619	21991
881.746	22048
881.872	22067
881.999	22029
882.125	21922
882.252	22006
882.378	21835
882.505	22055
882.631	21857
882.757	21625
882.883	21778
883.01	21656
883.136	21690
883.262	21572
883.388	21523
883.514	21698
883.64	21724
883.766	21625
883.892	21424
884.018	21477
884.143	21557
884.269	21618
884.395	21424
884.52	21332
884.646	21329
884.772	21370
884.897	21211
885.023	21355
885.148	21515
885.274	21481
885.399	21431
885.524	21249
885.65	21332
885.775	21412
885.9	21264
886.025	21359
886.15	21389
886.275	21336
886.4	21214
886.525	21428
886.65	21199
886.775	21146
886.9	21462
887.025	21553
887.149	21332
887.274	21112
887.399	21123
887.523	21207
887.648	20971
887.773	20887
887.897	21074
888.021	21104
888.146	21047
888.27	21165
888.395	21135
888.519	21127
888.643	21100
888.767	21047
888.891	20998
889.015	20826
889.139	20899
889.263	20899
889.387	20910
889.511	21138
889.635	21005
889.759	20834
889.883	20853
890.006	20960
890.13	20883
890.254	20857
890.377	20716
890.501	20663
890.624	20735
890.748	20552
890.871	20484
890.995	20495
891.118	20438
891.241	20423
891.364	20511
891.488	20473
891.611	20434
891.734	20427
891.857	20396
891.98	20446
892.103	20457
892.226	20355
892.349	20339
892.471	20259
892.594	20381
892.717	20389
892.839	20423
892.962	20370
893.085	20275
893.207	20328
893.33	20259
893.452	20214
893.575	20423
893.697	20400
893.819	20469
893.941	20514
894.064	20408
894.186	20252
894.308	20317
894.43	20377
894.552	20511
894.674	20381
894.796	20202
894.918	20237
895.04	20343
895.161	20358
895.283	20290
895.405	20244
895.526	20423
895.648	20210
895.769	20267
895.891	20438
896.012	20507
896.134	20385
896.255	20393
896.376	20286
896.498	20404
896.619	20427
896.74	20336
896.861	20351
896.982	20511
897.103	20815
897.224	20629
897.345	20419
897.466	20560
897.587	20590
897.708	20788
897.828	20609
897.949	20480
898.07	20396
898.19	20412
898.311	20636
898.431	20446
898.552	20434
898.672	20663
898.792	20629
898.913	20625
899.033	20465
899.153	20385
899.273	20298
899.393	20324
899.513	20195
899.633	20290
899.753	20320
899.873	20180
899.993	20389
900.113	20298
900.232	20252
900.352	20286
900.472	20069
900.591	19997
900.711	20191
900.83	20001
900.95	20122
901.069	20065
901.189	19921
901.308	19784
901.427	19696
901.546	19597
901.665	19704
901.784	19731
901.904	19487
902.023	19438
902.141	19198
902.26	19240
902.379	19209
902.498	19088
902.617	19091
902.735	19190
902.854	19183
902.973	18962
903.091	18802
903.21	18901
903.328	18837
903.446	18738
903.565	18654
903.683	18582
903.801	18658
903.919	18597
904.038	18563
904.156	18410
904.274	18426
904.392	18361
904.51	18327
904.627	18346
904.745	18433
904.863	18452
904.981	18266
905.098	18095
905.216	18068
905.334	18136
905.451	18194
905.569	18095
905.686	18079
905.803	17965
905.921	17893
906.038	18079
906.155	17843
906.272	17714
906.389	17809
906.506	17596
906.623	17649
906.74	17604
906.857	17478
906.974	17436
907.091	17649
907.208	17699
907.324	17547
907.441	17459
907.557	17326
907.674	17299
907.79	17254
907.907	17292
908.023	17372
908.139	17254
908.256	17353
908.372	17208
908.488	17208
908.604	17048
908.72	17056
908.836	17048
908.952	16980
909.068	17136
909.184	17102
909.3	16991
909.415	17025
909.531	17018
909.647	16824
909.762	16759
909.878	16736
909.993	16710
910.108	16645
910.224	16759
910.339	16611
910.454	16653
910.57	16455
910.685	16421
910.8	16725
910.915	16839
911.03	16379
911.145	16443
911.259	16367
911.374	16341
911.489	16139
911.604	16276
911.718	16074
911.833	15991
911.947	16071
912.062	15907
912.176	15972
912.291	16105
912.405	16071
912.519	16185
912.633	16325
912.748	16067
912.862	16029
912.976	15926
913.09	15751
913.204	15816
913.318	15937
913.431	15937
913.545	16021
913.659	15987
913.772	15808
913.886	15629
914	15667
914.113	15739
914.226	15778
914.34	15694
914.453	15507
914.566	15679
914.68	15515
914.793	15603
914.906	15393
915.019	15393
915.132	15195
915.245	15325
915.358	15313
915.47	15302
915.583	15252
915.696	15165
915.809	15332
915.921	15454
916.034	15207
916.146	15188
916.259	15199
916.371	15302
916.483	15112
916.595	15074
916.708	15184
916.82	15138
916.932	15062
917.044	15009
917.156	14933
917.268	14910
917.38	14982
917.491	14910
917.603	14880
917.715	14967
917.826	15043
917.938	14815
918.049	14796
918.161	14849
918.272	15024
918.384	15020
918.495	14910
918.606	14769
918.717	14564
918.828	14765
918.939	14689
919.05	14693
919.161	14667
919.272	14434
919.383	14488
919.494	14678
919.604	14899
919.715	14720
919.826	14575
919.936	14663
920.047	14777
920.157	14625
920.267	14796
920.378	14682
920.488	14644
920.598	14838
920.708	14963
920.818	14769
920.928	14743
921.038	14933
921.148	14857
921.258	14571
921.368	14484
921.477	14408
921.587	14400
921.697	14176
921.806	14404
921.916	14256
922.025	14100
922.134	14062
922.244	13963
922.353	14123
922.462	13864
922.571	13883
922.68	13708
922.789	13597
922.898	13700
923.007	13685
923.116	13662
923.224	13681
923.333	13590
923.442	13529
923.55	13525
923.659	13468
923.767	13563
923.876	13400
923.984	13597
924.092	13327
924.201	13495
924.309	13346
924.417	13403
924.525	13426
924.633	13438
924.741	14092
924.849	13126
924.956	13316
925.064	13171
925.172	13110
925.279	13038
925.387	13008
925.494	13076
925.602	13179
925.709	13122
925.816	12989
925.924	13110
926.031	13015
926.138	13042
926.245	13069
926.352	12951
926.459	13031
926.566	13046
926.673	12951
926.779	12779
926.886	12817
926.993	12696
927.099	12673
927.206	12559
927.312	12654
927.419	12711
927.525	12597
927.631	12551
927.737	12525
927.843	12426
927.95	12357
928.056	12429
928.162	12517
928.267	12426
928.373	13103
928.479	12494
928.585	12216
928.69	12418
928.796	12475
928.901	12285
929.007	12155
929.112	12144
929.218	12308
929.323	12163
929.428	12152
929.533	12319
929.638	12159
929.743	12133
929.848	12171
929.953	12019
930.058	12026
930.163	11821
930.267	11847
930.372	12007
930.477	11866
930.581	12045
930.685	11889
930.79	11767
930.894	11798
930.998	11710
931.103	11855
931.207	11501
931.311	11414
931.415	11330
931.519	11162
931.623	11052
