Data from test_V78500241_2672.txt Node
Date: Fri Mar 25 15:28:27 CST 2022
User: usil
Spectrometer: V785-0024
Trigger mode: 0
Integration Time (sec): 4.000000E-1
Scans to average: 1
Nonlinearity correction enabled: false
Boxcar width: 0
Storing dark spectrum: false
XAxis mode: Wavelengths
Number of Pixels in Spectrum: 1024
>>>>>Begin Spectral Data<<<<<
801.071	26739
801.214	26792
801.356	26670
801.499	26568
801.641	26499
801.783	26419
801.926	26511
802.068	26473
802.211	26473
802.353	26320
802.496	26328
802.638	26046
802.78	26122
802.923	26031
803.065	26016
803.208	25989
803.35	26142
803.492	26214
803.635	26191
803.777	26142
803.919	26210
804.061	26427
804.204	26233
804.346	26119
804.488	26062
804.63	26183
804.773	26103
804.915	26218
805.057	26275
805.199	26161
805.341	26324
805.483	26290
805.626	26473
805.768	26161
805.91	26442
806.052	26244
806.194	26202
806.336	26385
806.478	26389
806.62	26161
806.762	26271
806.904	26503
807.046	26853
807.188	26587
807.33	26857
807.472	26785
807.614	26670
807.756	26560
807.898	26511
808.04	26522
808.182	26549
808.324	26530
808.465	26511
808.607	26788
808.749	26807
808.891	26891
809.033	27116
809.174	26994
809.316	26765
809.458	26899
809.6	26758
809.741	26960
809.883	27028
810.025	27062
810.166	27214
810.308	27279
810.45	27039
810.591	27184
810.733	26891
810.875	26811
811.016	26845
811.158	26765
811.299	26933
811.441	27081
811.582	27142
811.724	26853
811.865	26845
812.007	26800
812.148	26895
812.29	26811
812.431	27062
812.573	27157
812.714	27313
812.855	27268
812.997	27332
813.138	27507
813.279	27504
813.421	27157
813.562	27184
813.703	27207
813.845	27043
813.986	26811
814.127	26651
814.268	26484
814.41	26575
814.551	26503
814.692	26598
814.833	26427
814.974	26469
815.115	26347
815.256	26393
815.397	26336
815.539	26381
815.68	26434
815.821	26240
815.962	26324
816.103	26252
816.244	26138
816.385	26157
816.526	26027
816.666	25860
816.807	25811
816.948	25772
817.089	25868
817.23	25849
817.371	25689
817.512	25769
817.653	25765
817.793	25753
817.934	25803
818.075	25750
818.216	25727
818.356	25742
818.497	25559
818.638	25521
818.778	25407
818.919	25419
819.06	25567
819.2	25639
819.341	25814
819.481	25746
819.622	25963
819.762	26035
819.903	26134
820.043	25837
820.184	25784
820.324	25803
820.465	25864
820.605	25830
820.746	25811
820.886	25681
821.026	25917
821.167	25890
821.307	25898
821.447	25746
821.588	25674
821.728	25582
821.868	25381
822.008	25160
822.149	25266
822.289	25247
822.429	24848
822.569	24890
822.709	24951
822.849	24840
822.99	24741
823.13	24658
823.27	24688
823.41	24494
823.55	24357
823.69	24544
823.83	24475
823.97	24433
824.11	24342
824.25	24258
824.389	24327
824.529	24403
824.669	24433
824.809	24426
824.949	24319
825.089	24330
825.228	24296
825.368	24239
825.508	24235
825.648	24205
825.787	24159
825.927	24281
826.067	24117
826.206	24205
826.346	24308
826.485	24365
826.625	24167
826.765	24296
826.904	24201
827.044	24114
827.183	24060
827.323	23920
827.462	23973
827.601	23923
827.741	23836
827.88	24030
828.02	23714
828.159	23779
828.298	23851
828.437	23897
828.577	23764
828.716	23969
828.855	23809
828.994	23718
829.134	23695
829.273	23707
829.412	23558
829.551	23554
829.69	23535
829.829	23627
829.968	23623
830.107	23672
830.246	23592
830.385	23535
830.524	23581
830.663	23429
830.802	23368
830.941	23296
831.08	23086
831.219	23307
831.357	23303
831.496	23566
831.635	23398
831.774	23052
831.913	23079
832.051	22938
832.19	22987
832.329	23060
832.467	22980
832.606	22854
832.744	22869
832.883	22923
833.022	22965
833.16	22797
833.299	22930
833.437	22984
833.576	23029
833.714	23067
833.852	22991
833.991	23006
834.129	23060
834.267	23090
834.406	22980
834.544	23079
834.682	23056
834.821	22930
834.959	23109
835.097	22915
835.235	23006
835.373	22877
835.511	23006
835.65	22877
835.788	22820
835.926	22843
836.064	22721
836.202	22721
836.34	22900
836.478	22991
836.615	22706
836.753	22828
836.891	22896
837.029	22843
837.167	22824
837.305	22812
837.443	22729
837.58	22554
837.718	22809
837.856	22862
837.993	22641
838.131	22694
838.269	22577
838.406	22759
838.544	22470
838.681	22318
838.819	22394
838.956	22169
839.094	22196
839.231	22177
839.369	22295
839.506	22596
839.643	22363
839.781	22097
839.918	22112
840.055	22143
840.193	22128
840.33	22124
840.467	22166
840.604	22261
840.742	22386
840.879	21934
841.016	22029
841.153	21994
841.29	22166
841.427	22196
841.564	22162
841.701	22021
841.838	22032
841.975	21903
842.112	22082
842.249	21949
842.385	21884
842.522	22063
842.659	21960
842.796	21819
842.933	21895
843.069	22010
843.206	21816
843.343	21903
843.479	21857
843.616	21846
843.752	21576
843.889	21732
844.025	21747
844.162	21530
844.298	21671
844.435	21667
844.571	21564
844.708	21629
844.844	21759
844.98	21743
845.117	21694
845.253	21667
845.389	21549
845.525	21542
845.661	21504
845.798	21382
845.934	21321
846.07	21260
846.206	21397
846.342	21610
846.478	21359
846.614	21241
846.75	21116
846.886	21100
847.022	21104
847.158	21138
847.294	21085
847.429	21138
847.565	21100
847.701	21310
847.837	20918
847.972	20921
848.108	21024
848.244	20910
848.379	20792
848.515	20815
848.65	20773
848.786	20667
848.921	20792
849.057	20815
849.192	20754
849.328	20777
849.463	20746
849.598	20655
849.734	20583
849.869	20556
850.004	20415
850.14	20537
850.275	20461
850.41	20374
850.545	20476
850.68	20480
850.815	20400
850.95	20454
851.085	20693
851.22	20564
851.355	20583
851.49	20518
851.625	20480
851.76	20450
851.895	20499
852.03	20488
852.165	20495
852.299	20518
852.434	20575
852.569	20514
852.703	20492
852.838	20530
852.973	20644
853.107	20450
853.242	20427
853.376	20248
853.511	20142
853.645	20240
853.78	20366
853.914	20370
854.048	20271
854.183	20225
854.317	20271
854.451	20526
854.585	20282
854.72	20218
854.854	20343
854.988	20252
855.122	20248
855.256	20221
855.39	20229
855.524	20366
855.658	20351
855.792	20294
855.926	20355
856.06	20301
856.194	20351
856.327	20339
856.461	20168
856.595	20320
856.729	20336
856.862	20393
856.996	20362
857.13	20408
857.263	20366
857.397	20339
857.53	20282
857.664	20374
857.797	20511
857.931	20503
858.064	20400
858.197	20389
858.331	20263
858.464	20275
858.597	20267
858.731	20290
858.864	20267
858.997	20206
859.13	20202
859.263	20351
859.396	20396
859.529	20286
859.662	20233
859.795	20229
859.928	20183
860.061	20351
860.194	20545
860.327	20415
860.46	20336
860.592	20415
860.725	20374
860.858	20347
860.99	20336
861.123	20221
861.256	20256
861.388	20412
861.521	20929
861.653	20191
861.786	20153
861.918	20081
862.05	20157
862.183	20187
862.315	20233
862.447	20324
862.58	20183
862.712	20035
862.844	20031
862.976	20138
863.108	20039
863.24	20438
863.372	20050
863.504	19989
863.636	20142
863.768	20062
863.9	20142
864.032	20058
864.164	19963
864.296	20084
864.428	20142
864.559	20050
864.691	20134
864.823	20020
864.954	20062
865.086	19989
865.217	19921
865.349	19738
865.48	19868
865.612	19993
865.743	19978
865.875	19887
866.006	19944
866.137	20008
866.269	19909
866.4	20039
866.531	19837
866.662	19803
866.793	19883
866.924	19856
867.055	19894
867.186	19970
867.317	19776
867.448	19715
867.579	19860
867.71	19814
867.841	19776
867.972	19871
868.103	19742
868.233	19906
868.364	19974
868.495	20027
868.625	20100
868.756	20180
868.886	20062
869.017	20073
869.147	20221
869.278	20183
869.408	20065
869.539	20142
869.669	20267
869.799	20115
869.929	20320
870.06	20202
870.19	20309
870.32	20290
870.45	20412
870.58	20541
870.71	20571
870.84	20571
870.97	20507
871.1	20594
871.23	20689
871.36	20701
871.489	20727
871.619	20541
871.749	20754
871.879	20689
872.008	20861
872.138	20773
872.267	20746
872.397	20632
872.526	20514
872.656	20518
872.785	20609
872.915	20796
873.044	20777
873.173	20731
873.303	20762
873.432	20739
873.561	20872
873.69	20811
873.819	20720
873.948	20743
874.077	20830
874.206	20697
874.335	20659
874.464	20804
874.593	21055
874.722	20883
874.851	21093
874.979	20914
875.108	20921
875.237	20990
875.365	20910
875.494	21013
875.623	21066
875.751	20948
875.88	20906
876.008	21104
876.136	21272
876.265	21435
876.393	21568
876.521	21401
876.65	21420
876.778	21393
876.906	21454
877.034	21268
877.162	21294
877.29	21298
877.418	21370
877.546	21378
877.674	21397
877.802	21279
877.93	21351
878.058	21317
878.185	21214
878.313	21222
878.441	21344
878.568	21119
878.696	21203
878.824	21382
878.951	21382
879.079	21523
879.206	21614
879.333	21431
879.461	21458
879.588	21405
879.715	21595
879.842	21545
879.97	21507
880.097	21199
880.224	21135
880.351	21233
880.478	21066
880.605	21252
880.732	21249
880.859	21393
880.986	21237
881.112	21176
881.239	20982
881.366	20944
881.493	20864
881.619	20769
881.746	20880
881.872	20880
881.999	20830
882.125	20682
882.252	20876
882.378	20743
882.505	20857
882.631	20708
882.757	20473
882.883	20492
883.01	20492
883.136	20423
883.262	20313
883.388	20187
883.514	20454
883.64	20465
883.766	20400
883.892	20248
884.018	20278
884.143	20518
884.269	20492
884.395	20240
884.52	20199
884.646	20119
884.772	20001
884.897	20088
885.023	20081
885.148	20259
885.274	20317
885.399	20324
885.524	20168
885.65	20214
885.775	20119
885.9	20119
886.025	20210
886.15	20218
886.275	20065
886.4	19974
886.525	19974
886.65	20046
886.775	19982
886.9	20248
887.025	20366
887.149	19986
887.274	19913
887.399	19830
887.523	19818
887.648	19849
887.773	19757
887.897	19898
888.021	20039
888.146	19822
888.27	19993
888.395	19963
888.519	19955
888.643	19803
888.767	20005
888.891	19868
889.015	19677
889.139	19647
889.263	19757
889.387	19734
889.511	19883
889.635	19799
889.759	19685
889.883	19670
890.006	19708
890.13	19731
890.254	19556
890.377	19708
890.501	19571
890.624	19384
890.748	19400
890.871	19373
890.995	19335
891.118	19251
891.241	19388
891.364	19312
891.488	19548
891.611	19263
891.734	19346
891.857	19346
891.98	19381
892.103	19415
892.226	19247
892.349	19183
892.471	19118
892.594	19194
892.717	19179
892.839	19202
892.962	19183
893.085	19251
893.207	19179
893.33	19061
893.452	19091
893.575	19354
893.697	19221
893.819	19388
893.941	19449
894.064	19392
894.186	19168
894.308	19213
894.43	19278
894.552	19369
894.674	19266
894.796	19168
894.918	19285
895.04	19118
895.161	19285
895.283	19156
895.405	19148
895.526	19324
895.648	19084
895.769	19171
895.891	19266
896.012	19388
896.134	19304
896.255	19164
896.376	19217
896.498	19221
896.619	19324
896.74	19270
896.861	19293
896.982	19537
897.103	19643
897.224	19377
897.345	19468
897.466	19407
897.587	19438
897.708	19491
897.828	19575
897.949	19335
898.07	19274
898.19	19388
898.311	19506
898.431	19495
898.552	19426
898.672	19529
898.792	19571
898.913	19506
899.033	19403
899.153	19312
899.273	19320
899.393	19255
899.513	19194
899.633	19129
899.753	19198
899.873	19217
899.993	19251
900.113	19164
900.232	19247
900.352	19236
900.472	19034
900.591	19038
900.711	19057
900.83	18890
900.95	19126
901.069	19072
901.189	18924
901.308	18650
901.427	18711
901.546	18513
901.665	18650
901.784	18627
901.904	18521
902.023	18475
902.141	18243
902.26	18235
902.379	18239
902.498	18098
902.617	17904
902.735	18178
902.854	18019
902.973	18053
903.091	17954
903.21	17813
903.328	17859
903.446	17729
903.565	17691
903.683	17661
903.801	17520
903.919	17600
904.038	17573
904.156	17368
904.274	17520
904.392	17383
904.51	17452
904.627	17341
904.745	17520
904.863	17398
904.981	17231
905.098	17128
905.216	17048
905.334	17121
905.451	17094
905.569	17128
905.686	17113
905.803	17121
905.921	16850
906.038	16934
906.155	16877
906.272	16752
906.389	16733
906.506	16516
906.623	16573
906.74	16649
906.857	16550
906.974	16630
907.091	16679
907.208	16786
907.324	16679
907.441	16573
907.557	16348
907.674	16382
907.79	16306
907.907	16276
908.023	16382
908.139	16424
908.256	16333
908.372	16246
908.488	16242
908.604	16109
908.72	16021
908.836	16143
908.952	16048
909.068	16116
909.184	16120
909.3	16078
909.415	16112
909.531	16002
909.647	15793
909.762	15793
909.878	15751
909.993	15797
910.108	15804
910.224	15686
910.339	15804
910.454	15686
910.57	15584
910.685	15534
910.8	15785
910.915	15698
911.03	15618
911.145	15443
911.259	15443
911.374	15336
911.489	15329
911.604	15348
911.718	15055
911.833	15222
911.947	15138
912.062	15074
912.176	15142
912.291	15176
912.405	15214
912.519	15363
912.633	15424
912.748	15218
912.862	15131
912.976	14967
913.09	14781
913.204	14887
913.318	15070
913.431	14998
913.545	15001
913.659	15165
913.772	14956
913.886	14876
914	14830
914.113	14800
914.226	14853
914.34	14895
914.453	14640
914.566	14834
914.68	14651
914.793	14682
914.906	14511
915.019	14446
915.132	14328
915.245	14404
915.358	14434
915.47	14537
915.583	14366
915.696	14488
915.809	14549
915.921	14621
916.034	14457
916.146	14370
916.259	14240
916.371	14358
916.483	14385
916.595	14244
916.708	14259
916.82	14282
916.932	14142
917.044	14180
917.156	14149
917.268	14183
917.38	14103
917.491	14081
917.603	14058
917.715	14240
917.826	14107
917.938	14008
918.049	14012
918.161	14107
918.272	14126
918.384	14164
918.495	14012
918.606	13906
918.717	13909
918.828	13936
918.939	13951
919.05	13814
919.161	13833
919.272	13647
919.383	13727
919.494	13879
919.604	13940
919.715	13795
919.826	13841
919.936	13822
920.047	13894
920.157	13833
920.267	14096
920.378	13784
920.488	13871
920.598	14031
920.708	14107
920.818	14050
920.928	13993
921.038	14130
921.148	14035
921.258	13807
921.368	13772
921.477	13563
921.587	13609
921.697	13403
921.806	13571
921.916	13434
922.025	13304
922.134	13278
922.244	13236
922.353	13343
922.462	13190
922.571	13065
922.68	12814
922.789	12943
922.898	12810
923.007	12848
923.116	13004
923.224	12970
923.333	12890
923.442	12745
923.55	12772
923.659	12719
923.767	12817
923.876	12692
923.984	12798
924.092	12684
924.201	12650
924.309	12635
924.417	12722
924.525	12654
924.633	12585
924.741	13457
924.849	12410
924.956	12547
925.064	12365
925.172	12346
925.279	12452
925.387	12365
925.494	12334
925.602	12441
925.709	12346
925.816	12270
925.924	12346
926.031	12350
926.138	12247
926.245	12338
926.352	12235
926.459	12330
926.566	12422
926.673	12239
926.779	12136
926.886	12117
926.993	11977
927.099	11958
927.206	11908
927.312	11824
927.419	11897
927.525	11954
927.631	11965
927.737	11840
927.843	11805
927.95	11726
928.056	11809
928.162	11813
928.267	11817
928.373	12361
928.479	11840
928.585	11570
928.69	11752
928.796	11805
928.901	11646
929.007	11520
929.112	11596
929.218	11573
929.323	11547
929.428	11444
929.533	11665
929.638	11490
929.743	11448
929.848	11509
929.953	11474
930.058	11429
930.163	11223
930.267	11231
930.372	11417
930.477	11223
930.581	11444
930.685	11299
930.79	11102
930.894	11174
930.998	11124
931.103	11185
931.207	10877
931.311	10755
931.415	10698
931.519	10512
931.623	10573
