Data from test_V78500241_1982.txt Node
Date: Fri Mar 25 15:23:39 CST 2022
User: usil
Spectrometer: V785-0024
Trigger mode: 0
Integration Time (sec): 4.000000E-1
Scans to average: 1
Nonlinearity correction enabled: false
Boxcar width: 0
Storing dark spectrum: false
XAxis mode: Wavelengths
Number of Pixels in Spectrum: 1024
>>>>>Begin Spectral Data<<<<<
801.071	27835
801.214	27778
801.356	27572
801.499	27458
801.641	27382
801.783	27519
801.926	27408
802.068	27283
802.211	27302
802.353	27089
802.496	27020
802.638	27096
802.78	26956
802.923	26883
803.065	26967
803.208	26952
803.35	27051
803.492	27218
803.635	27226
803.777	27104
803.919	27230
804.061	27443
804.204	27317
804.346	27245
804.488	27142
804.63	27142
804.773	27119
804.915	27252
805.057	27302
805.199	27116
805.341	27249
805.483	27412
805.626	27458
805.768	27313
805.91	27302
806.052	27370
806.194	27272
806.336	27469
806.478	27435
806.62	27321
806.762	27393
806.904	27534
807.046	27713
807.188	27660
807.33	27751
807.472	27918
807.614	27614
807.756	27641
807.898	27580
808.04	27477
808.182	27739
808.324	27599
808.465	27736
808.607	27797
808.749	28040
808.891	27960
809.033	28143
809.174	27998
809.316	28040
809.458	27869
809.6	27945
809.741	28006
809.883	28112
810.025	28177
810.166	28287
810.308	28219
810.45	28128
810.591	28306
810.733	28051
810.875	27949
811.016	27888
811.158	27800
811.299	28013
811.441	28093
811.582	28143
811.724	27914
811.865	28044
812.007	28044
812.148	27968
812.29	28010
812.431	28109
812.573	28447
812.714	28417
812.855	28432
812.997	28497
813.138	28725
813.279	28584
813.421	28512
813.562	28656
813.703	28204
813.845	28074
813.986	27994
814.127	27823
814.268	27728
814.41	27686
814.551	27656
814.692	27648
814.833	27519
814.974	27492
815.115	27743
815.256	27485
815.397	27587
815.539	27557
815.68	27427
815.821	27408
815.962	27397
816.103	27420
816.244	27275
816.385	27237
816.526	27176
816.666	27009
816.807	26902
816.948	27119
817.089	27055
817.23	26998
817.371	26849
817.512	26906
817.653	26914
817.793	26940
817.934	27043
818.075	26937
818.216	27074
818.356	26994
818.497	26800
818.638	26731
818.778	26765
818.919	26750
819.06	26819
819.2	26800
819.341	26971
819.481	27112
819.622	27005
819.762	27367
819.903	27283
820.043	27180
820.184	27013
820.324	26979
820.465	27093
820.605	26979
820.746	27150
820.886	26899
821.026	27066
821.167	27066
821.307	27081
821.447	26998
821.588	26902
821.728	26807
821.868	26705
822.008	26590
822.149	26442
822.289	26499
822.429	26130
822.569	26069
822.709	26058
822.849	26016
822.99	26016
823.13	25902
823.27	25864
823.41	25833
823.55	25651
823.69	25928
823.83	25658
823.97	25833
824.11	25571
824.25	25548
824.389	25559
824.529	25643
824.669	25628
824.809	25628
824.949	25693
825.089	25662
825.228	25681
825.368	25415
825.508	25453
825.648	25476
825.787	25445
825.927	25601
826.067	25392
826.206	25415
826.346	25499
826.485	25472
826.625	25479
826.765	25544
826.904	25502
827.044	25320
827.183	25255
827.323	25187
827.462	25312
827.601	25107
827.741	25126
827.88	25091
828.02	24989
828.159	25251
828.298	25107
828.437	25236
828.577	25118
828.716	25285
828.855	25057
828.994	24859
829.134	24859
829.273	24951
829.412	24787
829.551	24882
829.69	24779
829.829	24856
829.968	24954
830.107	24859
830.246	24909
830.385	24654
830.524	24833
830.663	24711
830.802	24578
830.941	24452
831.08	24403
831.219	24517
831.357	24665
831.496	24661
831.635	24471
831.774	24498
831.913	24376
832.051	24323
832.19	24330
832.329	24281
832.467	24182
832.606	24213
832.744	24125
832.883	24182
833.022	24114
833.16	24144
833.299	24194
833.437	24155
833.576	24353
833.714	24232
833.852	24209
833.991	24296
834.129	24350
834.267	24247
834.406	24136
834.544	24270
834.682	24060
834.821	24239
834.959	24315
835.097	24201
835.235	24178
835.373	24213
835.511	24220
835.65	24121
835.788	24194
835.926	23916
836.064	23893
836.202	23923
836.34	23942
836.478	24038
836.615	23946
836.753	23992
836.891	24034
837.029	24045
837.167	24186
837.305	23954
837.443	23920
837.58	23897
837.718	23977
837.856	24049
837.993	23710
838.131	23950
838.269	23828
838.406	23764
838.544	23718
838.681	23543
838.819	23463
838.956	23391
839.094	23387
839.231	23429
839.369	23558
839.506	23771
839.643	23596
839.781	23318
839.918	23406
840.055	23303
840.193	23318
840.33	23349
840.467	23288
840.604	23368
840.742	23627
840.879	23124
841.016	23162
841.153	23185
841.29	23337
841.427	23318
841.564	23307
841.701	23280
841.838	23143
841.975	23208
842.112	23185
842.249	23098
842.385	23075
842.522	23227
842.659	23132
842.796	22991
842.933	22999
843.069	23071
843.206	22965
843.343	23143
843.479	23025
843.616	23090
843.752	22850
843.889	22790
844.025	22961
844.162	22721
844.298	22991
844.435	22733
844.571	22828
844.708	22828
844.844	23048
844.98	22984
845.117	22900
845.253	22672
845.389	22809
845.525	22736
845.661	22596
845.798	22573
845.934	22653
846.07	22561
846.206	22512
846.342	22577
846.478	22569
846.614	22382
846.75	22257
846.886	22295
847.022	22443
847.158	22246
847.294	22337
847.429	22276
847.565	22341
847.701	22474
847.837	22029
847.972	22036
848.108	22097
848.244	21994
848.379	22021
848.515	21922
848.65	21743
848.786	21930
848.921	21880
849.057	21945
849.192	22017
849.328	21854
849.463	21873
849.598	21873
849.734	21857
849.869	21865
850.004	21660
850.14	21785
850.275	21648
850.41	21572
850.545	21625
850.68	21553
850.815	21804
850.95	21583
851.085	21778
851.22	21838
851.355	21667
851.49	21538
851.625	21599
851.76	21553
851.895	21549
852.03	21435
852.165	21724
852.299	21698
852.434	21797
852.569	21637
852.703	21652
852.838	21644
852.973	21789
853.107	21728
853.242	21610
853.376	21530
853.511	21389
853.645	21355
853.78	21580
853.914	21500
854.048	21336
854.183	21329
854.317	21408
854.451	21568
854.585	21450
854.72	21443
854.854	21542
854.988	21458
855.122	21397
855.256	21359
855.39	21481
855.524	21572
855.658	21462
855.792	21526
855.926	21492
856.06	21500
856.194	21622
856.327	21485
856.461	21458
856.595	21466
856.729	21443
856.862	21564
856.996	21389
857.13	21523
857.263	21549
857.397	21530
857.53	21507
857.664	21523
857.797	21644
857.931	21507
858.064	21553
858.197	21583
858.331	21260
858.464	21370
858.597	21332
858.731	21462
858.864	21420
858.997	21466
859.13	21526
859.263	21389
859.396	21614
859.529	21469
859.662	21389
859.795	21447
859.928	21420
860.061	21595
860.194	21675
860.327	21458
860.46	21462
860.592	21549
860.725	21553
860.858	21530
860.99	21511
861.123	21447
861.256	21336
861.388	21389
861.521	22131
861.653	21344
861.786	21268
861.918	21256
862.05	21188
862.183	21397
862.315	21466
862.447	21351
862.58	21363
862.712	21195
862.844	21112
862.976	21226
863.108	21203
863.24	21694
863.372	21135
863.504	21051
863.636	21013
863.768	21100
863.9	21074
864.032	21131
864.164	21104
864.296	21226
864.428	21367
864.559	21195
864.691	21184
864.823	21169
864.954	21055
865.086	21169
865.217	21252
865.349	21017
865.48	20990
865.612	21066
865.743	21233
865.875	21058
866.006	21032
866.137	21058
866.269	21051
866.4	21051
866.531	20887
866.662	20971
866.793	21020
866.924	20963
867.055	21005
867.186	21017
867.317	20986
867.448	20864
867.579	20960
867.71	20857
867.841	21062
867.972	21047
868.103	21055
868.233	20998
868.364	20906
868.495	21112
868.625	21222
868.756	21344
868.886	21154
869.017	21188
869.147	21439
869.278	21397
869.408	21241
869.539	21275
869.669	21370
869.799	21298
869.929	21370
870.06	21351
870.19	21580
870.32	21526
870.45	21603
870.58	21629
870.71	21675
870.84	21701
870.97	21553
871.1	21701
871.23	21766
871.36	21865
871.489	21762
871.619	21835
871.749	21816
871.879	21899
872.008	21911
872.138	21892
872.267	21865
872.397	21701
872.526	21641
872.656	21778
872.785	21663
872.915	21915
873.044	21956
873.173	21884
873.303	21953
873.432	21937
873.561	21941
873.69	21812
873.819	21922
873.948	21945
874.077	21865
874.206	21857
874.335	21918
874.464	21964
874.593	22090
874.722	22070
874.851	22048
874.979	22169
875.108	22112
875.237	21987
875.365	21994
875.494	22249
875.623	22112
875.751	22048
875.88	22158
876.008	22234
876.136	22333
876.265	22470
876.393	22565
876.521	22546
876.65	22512
876.778	22371
876.906	22409
877.034	22523
877.162	22379
877.29	22436
877.418	22478
877.546	22356
877.674	22436
877.802	22485
877.93	22596
878.058	22424
878.185	22371
878.313	22382
878.441	22459
878.568	22360
878.696	22333
878.824	22375
878.951	22660
879.079	22637
879.206	22611
879.333	22580
879.461	22421
879.588	22546
879.715	22664
879.842	22706
879.97	22622
880.097	22295
880.224	22348
880.351	22299
880.478	22344
880.605	22226
880.732	22325
880.859	22592
880.986	22303
881.112	22394
881.239	22226
881.366	22032
881.493	21983
881.619	21861
881.746	21823
881.872	21838
881.999	21816
882.125	21895
882.252	21915
882.378	21747
882.505	21899
882.631	21800
882.757	21713
882.883	21603
883.01	21576
883.136	21542
883.262	21420
883.388	21306
883.514	21526
883.64	21629
883.766	21469
883.892	21344
884.018	21382
884.143	21507
884.269	21667
884.395	21272
884.52	21195
884.646	21119
884.772	20975
884.897	21070
885.023	21294
885.148	21275
885.274	21195
885.399	21329
885.524	21218
885.65	21237
885.775	21100
885.9	21222
886.025	21222
886.15	21199
886.275	21104
886.4	21039
886.525	21055
886.65	21017
886.775	21093
886.9	21291
887.025	21325
887.149	21119
887.274	20982
887.399	20960
887.523	20979
887.648	20819
887.773	20887
887.897	20975
888.021	20948
888.146	20845
888.27	21047
888.395	21112
888.519	20933
888.643	20975
888.767	20986
888.891	20918
889.015	20743
889.139	20746
889.263	20701
889.387	20720
889.511	20994
889.635	21005
889.759	20674
889.883	20697
890.006	20712
890.13	20739
890.254	20670
890.377	20754
890.501	20457
890.624	20438
890.748	20644
890.871	20518
890.995	20393
891.118	20259
891.241	20301
891.364	20473
891.488	20313
891.611	20393
891.734	20320
891.857	20290
891.98	20275
892.103	20377
892.226	20282
892.349	20187
892.471	20256
892.594	20210
892.717	20339
892.839	20313
892.962	20100
893.085	20313
893.207	20320
893.33	20180
893.452	20134
893.575	20263
893.697	20214
893.819	20362
893.941	20412
894.064	20294
894.186	20172
894.308	20054
894.43	20240
894.552	20438
894.674	20282
894.796	20153
894.918	20100
895.04	20153
895.161	20180
895.283	20206
895.405	20172
895.526	20103
895.648	20145
895.769	20176
895.891	20229
896.012	20221
896.134	20244
896.255	20324
896.376	20259
896.498	20122
896.619	20374
896.74	20206
896.861	20221
896.982	20617
897.103	20674
897.224	20556
897.345	20503
897.466	20305
897.587	20377
897.708	20579
897.828	20476
897.949	20457
898.07	20111
898.19	20267
898.311	20473
898.431	20385
898.552	20492
898.672	20476
898.792	20480
898.913	20309
899.033	20374
899.153	20286
899.273	20240
899.393	20256
899.513	20218
899.633	20180
899.753	20062
899.873	20035
899.993	20176
900.113	20161
900.232	20202
900.352	20024
900.472	19967
900.591	19887
900.711	19849
900.83	19974
900.95	20043
901.069	20043
901.189	19811
901.308	19556
901.427	19537
901.546	19624
901.665	19510
901.784	19590
901.904	19392
902.023	19285
902.141	19099
902.26	19038
902.379	19156
902.498	19095
902.617	18913
902.735	18989
902.854	19053
902.973	18943
903.091	18768
903.21	18745
903.328	18696
903.446	18658
903.565	18547
903.683	18494
903.801	18460
903.919	18452
904.038	18467
904.156	18346
904.274	18243
904.392	18224
904.51	18220
904.627	18281
904.745	18323
904.863	18426
904.981	18038
905.098	17935
905.216	17885
905.334	18003
905.451	17901
905.569	17946
905.686	17969
905.803	17843
905.921	17733
906.038	17813
906.155	17817
906.272	17680
906.389	17729
906.506	17535
906.623	17395
906.74	17482
906.857	17391
906.974	17383
907.091	17570
907.208	17600
907.324	17524
907.441	17353
907.557	17246
907.674	17193
907.79	17143
907.907	17174
908.023	17277
908.139	17242
908.256	17193
908.372	17155
908.488	17056
908.604	17064
908.72	16892
908.836	16938
908.952	16816
909.068	16957
909.184	17128
909.3	16934
909.415	16923
909.531	17022
909.647	16694
909.762	16675
909.878	16656
909.993	16637
910.108	16599
910.224	16618
910.339	16580
910.454	16386
910.57	16436
910.685	16348
910.8	16733
910.915	16607
911.03	16512
911.145	16268
911.259	16211
911.374	16272
911.489	16093
911.604	16154
911.718	16013
911.833	15968
911.947	15865
912.062	15785
912.176	15899
912.291	15873
912.405	15979
912.519	16086
912.633	16207
912.748	15991
912.862	15934
912.976	15793
913.09	15618
913.204	15717
913.318	15755
913.431	15911
913.545	15827
913.659	15823
913.772	15675
913.886	15644
914	15603
914.113	15641
914.226	15774
914.34	15629
914.453	15500
914.566	15549
914.68	15534
914.793	15397
914.906	15161
915.019	15218
915.132	15135
915.245	15199
915.358	15146
915.47	15119
915.583	15138
915.696	15256
915.809	15291
915.921	15306
916.034	15199
916.146	15070
916.259	15123
916.371	15093
916.483	15127
916.595	14998
916.708	15005
916.82	15081
916.932	15005
917.044	14929
917.156	14994
917.268	14883
917.38	14918
917.491	14819
917.603	14876
917.715	14819
917.826	14887
917.938	14739
918.049	14629
918.161	14807
918.272	14910
918.384	14857
918.495	14769
918.606	14533
918.717	14434
918.828	14632
918.939	14613
919.05	14541
919.161	14480
919.272	14370
919.383	14423
919.494	14621
919.604	14765
919.715	14511
919.826	14473
919.936	14545
920.047	14533
920.157	14549
920.267	14834
920.378	14549
920.488	14518
920.598	14746
920.708	14891
920.818	14655
920.928	14655
921.038	14918
921.148	14762
921.258	14434
921.368	14469
921.477	14294
921.587	14275
921.697	14134
921.806	14336
921.916	14096
922.025	14054
922.134	13963
922.244	13833
922.353	13955
922.462	13696
922.571	13807
922.68	13670
922.789	13571
922.898	13613
923.007	13472
923.116	13533
923.224	13502
923.333	13582
923.442	13460
923.55	13434
923.659	13483
923.767	13525
923.876	13343
923.984	13453
924.092	13285
924.201	13339
924.309	13293
924.417	13320
924.525	13266
924.633	13289
924.741	14088
924.849	12993
924.956	13152
925.064	13038
925.172	12916
925.279	13042
925.387	12996
925.494	12951
925.602	13065
925.709	12981
925.816	12863
925.924	12970
926.031	12981
926.138	12932
926.245	12951
926.352	12928
926.459	12996
926.566	12981
926.673	12806
926.779	12810
926.886	12817
926.993	12639
927.099	12551
927.206	12483
927.312	12540
927.419	12623
927.525	12578
927.631	12604
927.737	12506
927.843	12437
927.95	12296
928.056	12315
928.162	12399
928.267	12494
928.373	13042
928.479	12467
928.585	12148
928.69	12334
928.796	12380
928.901	12194
929.007	12053
929.112	12216
929.218	12125
929.323	12079
929.428	12079
929.533	12163
929.638	11920
929.743	12057
929.848	12038
929.953	12049
930.058	11939
930.163	11737
930.267	11748
930.372	11901
930.477	11710
930.581	11973
930.685	11786
930.79	11649
930.894	11630
930.998	11741
931.103	11779
931.207	11436
931.311	11334
931.415	11239
931.519	11083
931.623	11022
