Data from test_V78500241_1226.txt Node
Date: Fri Mar 25 15:18:23 CST 2022
User: usil
Spectrometer: V785-0024
Trigger mode: 0
Integration Time (sec): 4.000000E-1
Scans to average: 1
Nonlinearity correction enabled: false
Boxcar width: 0
Storing dark spectrum: false
XAxis mode: Wavelengths
Number of Pixels in Spectrum: 1024
>>>>>Begin Spectral Data<<<<<
801.071	28120
801.214	27930
801.356	27496
801.499	27778
801.641	27576
801.783	27656
801.926	27595
802.068	27511
802.211	27641
802.353	27473
802.496	27340
802.638	27294
802.78	27207
802.923	27161
803.065	27127
803.208	27108
803.35	27222
803.492	27317
803.635	27466
803.777	27291
803.919	27469
804.061	27827
804.204	27561
804.346	27530
804.488	27306
804.63	27496
804.773	27374
804.915	27481
805.057	27606
805.199	27485
805.341	27572
805.483	27660
805.626	27656
805.768	27545
805.91	27523
806.052	27561
806.194	27542
806.336	27705
806.478	27603
806.62	27538
806.762	27755
806.904	27895
807.046	28192
807.188	28002
807.33	28021
807.472	28147
807.614	27960
807.756	27941
807.898	27857
808.04	27884
808.182	27857
808.324	27975
808.465	27838
808.607	28051
808.749	28188
808.891	28394
809.033	28303
809.174	28310
809.316	28329
809.458	28276
809.6	28169
809.741	28272
809.883	28348
810.025	28573
810.166	28493
810.308	28588
810.45	28443
810.591	28447
810.733	28485
810.875	28360
811.016	28147
811.158	28101
811.299	28306
811.441	28508
811.582	28386
811.724	28284
811.865	28200
812.007	28223
812.148	28242
812.29	28280
812.431	28314
812.573	28641
812.714	28611
812.855	28755
812.997	28824
813.138	28957
813.279	28968
813.421	28797
813.562	28679
813.703	28573
813.845	28474
813.986	28310
814.127	28044
814.268	28086
814.41	27960
814.551	27895
814.692	28048
814.833	28147
814.974	28021
815.115	27880
815.256	27831
815.397	27804
815.539	27842
815.68	27701
815.821	27622
815.962	27800
816.103	27743
816.244	27713
816.385	27599
816.526	27549
816.666	27454
816.807	27165
816.948	27340
817.089	27325
817.23	27325
817.371	27165
817.512	27256
817.653	27214
817.793	27256
817.934	27340
818.075	27321
818.216	27249
818.356	27291
818.497	27131
818.638	27024
818.778	26982
818.919	26960
819.06	27112
819.2	27085
819.341	27218
819.481	27249
819.622	27378
819.762	27553
819.903	27363
820.043	27458
820.184	27386
820.324	27367
820.465	27450
820.605	27359
820.746	27298
820.886	27233
821.026	27252
821.167	27283
821.307	27427
821.447	27237
821.588	27192
821.728	27001
821.868	26960
822.008	26773
822.149	26663
822.289	26708
822.429	26427
822.569	26453
822.709	26495
822.849	26309
822.99	26195
823.13	26313
823.27	26259
823.41	26100
823.55	26024
823.69	26134
823.83	26039
823.97	25883
824.11	26020
824.25	25795
824.389	25856
824.529	26073
824.669	25932
824.809	26195
824.949	26039
825.089	26031
825.228	25982
825.368	25780
825.508	25769
825.648	25780
825.787	25769
825.927	25864
826.067	25951
826.206	25883
826.346	25826
826.485	25841
826.625	25837
826.765	26001
826.904	25879
827.044	25571
827.183	25643
827.323	25464
827.462	25715
827.601	25578
827.741	25556
827.88	25594
828.02	25441
828.159	25540
828.298	25582
828.437	25715
828.577	25548
828.716	25506
828.855	25457
828.994	25304
829.134	25354
829.273	25183
829.412	25168
829.551	25198
829.69	25179
829.829	25308
829.968	25251
830.107	25232
830.246	25217
830.385	25183
830.524	25042
830.663	24939
830.802	24901
830.941	24916
831.08	24981
831.219	24913
831.357	24992
831.496	24996
831.635	24897
831.774	24806
831.913	24798
832.051	24635
832.19	24665
832.329	24726
832.467	24475
832.606	24414
832.744	24391
832.883	24661
833.022	24353
833.16	24445
833.299	24593
833.437	24604
833.576	24578
833.714	24688
833.852	24574
833.991	24551
834.129	24505
834.267	24582
834.406	24620
834.544	24658
834.682	24639
834.821	24707
834.959	24719
835.097	24407
835.235	24677
835.373	24566
835.511	24654
835.65	24509
835.788	24475
835.926	24353
836.064	24327
836.202	24414
836.34	24437
836.478	24555
836.615	24372
836.753	24460
836.891	24540
837.029	24460
837.167	24350
837.305	24300
837.443	24232
837.58	24262
837.718	24353
837.856	24224
837.993	24171
838.131	24281
838.269	24095
838.406	24247
838.544	24072
838.681	23958
838.819	23973
838.956	23802
839.094	23657
839.231	23756
839.369	23961
839.506	24197
839.643	24022
839.781	23786
839.918	23623
840.055	23779
840.193	23741
840.33	23687
840.467	23676
840.604	23619
840.742	24034
840.879	23570
841.016	23486
841.153	23433
841.29	23786
841.427	23691
841.564	23672
841.701	23630
841.838	23649
841.975	23417
842.112	23516
842.249	23421
842.385	23364
842.522	23512
842.659	23512
842.796	23417
842.933	23452
843.069	23349
843.206	23417
843.343	23421
843.479	23334
843.616	23330
843.752	23178
843.889	23303
844.025	23239
844.162	23140
844.298	23307
844.435	23204
844.571	23288
844.708	23181
844.844	23372
844.98	23261
845.117	23254
845.253	23162
845.389	23056
845.525	22980
845.661	23086
845.798	22869
845.934	22919
846.07	22877
846.206	23064
846.342	23006
846.478	22896
846.614	22649
846.75	22557
846.886	22637
847.022	22611
847.158	22755
847.294	22607
847.429	22698
847.565	22653
847.701	22843
847.837	22352
847.972	22386
848.108	22493
848.244	22493
848.379	22124
848.515	22226
848.65	22219
848.786	22265
848.921	22322
849.057	22356
849.192	22215
849.328	22322
849.463	22314
849.598	22238
849.734	22082
849.869	22135
850.004	22048
850.14	22063
850.275	21975
850.41	21884
850.545	21907
850.68	21922
850.815	22090
850.95	21880
851.085	22147
851.22	22147
851.355	21994
851.49	21899
851.625	21998
851.76	21987
851.895	21937
852.03	22010
852.165	22029
852.299	22029
852.434	21956
852.569	22093
852.703	21953
852.838	22051
852.973	22124
853.107	22166
853.242	21888
853.376	21793
853.511	21819
853.645	21857
853.78	21998
853.914	21846
854.048	21816
854.183	21861
854.317	22036
854.451	21964
854.585	21720
854.72	21869
854.854	21873
854.988	21793
855.122	21903
855.256	21732
855.39	21781
855.524	21907
855.658	21816
855.792	21880
855.926	21736
856.06	21930
856.194	21899
856.327	21755
856.461	21732
856.595	21724
856.729	21732
856.862	21854
856.996	21808
857.13	21876
857.263	21949
857.397	21823
857.53	21751
857.664	21854
857.797	21755
857.931	21915
858.064	21838
858.197	21899
858.331	21781
858.464	21739
858.597	21747
858.731	21781
858.864	21857
858.997	21838
859.13	21831
859.263	21854
859.396	21827
859.529	21854
859.662	21800
859.795	21797
859.928	21846
860.061	22055
860.194	21968
860.327	21781
860.46	21857
860.592	21968
860.725	21884
860.858	21838
860.99	21884
861.123	21766
861.256	21732
861.388	21781
861.521	22417
861.653	21759
861.786	21667
861.918	21663
862.05	21633
862.183	21747
862.315	21823
862.447	21629
862.58	21819
862.712	21641
862.844	21370
862.976	21545
863.108	21709
863.24	21857
863.372	21504
863.504	21614
863.636	21420
863.768	21549
863.9	21488
864.032	21473
864.164	21500
864.296	21580
864.428	21549
864.559	21454
864.691	21633
864.823	21580
864.954	21424
865.086	21488
865.217	21405
865.349	21294
865.48	21397
865.612	21420
865.743	21526
865.875	21386
866.006	21424
866.137	21325
866.269	21408
866.4	21329
866.531	21359
866.662	21233
866.793	21310
866.924	21355
867.055	21287
867.186	21241
867.317	21332
867.448	21340
867.579	21428
867.71	21222
867.841	21256
867.972	21424
868.103	21275
868.233	21336
868.364	21367
868.495	21439
868.625	21606
868.756	21614
868.886	21481
869.017	21458
869.147	21720
869.278	21675
869.408	21523
869.539	21477
869.669	21686
869.799	21572
869.929	21663
870.06	21637
870.19	21861
870.32	21930
870.45	21945
870.58	21941
870.71	22044
870.84	22025
870.97	21994
871.1	21888
871.23	22150
871.36	22086
871.489	22158
871.619	22223
871.749	22074
871.879	22078
872.008	22150
872.138	22120
872.267	22185
872.397	21983
872.526	21960
872.656	22067
872.785	22044
872.915	22147
873.044	22196
873.173	22135
873.303	22268
873.432	22295
873.561	22272
873.69	22188
873.819	22147
873.948	22207
874.077	22204
874.206	22109
874.335	22147
874.464	22360
874.593	22329
874.722	22337
874.851	22382
874.979	22413
875.108	22344
875.237	22356
875.365	22333
875.494	22226
875.623	22523
875.751	22329
875.88	22291
876.008	22561
876.136	22508
876.265	22869
876.393	22961
876.521	22896
876.65	22927
876.778	22759
876.906	22721
877.034	22679
877.162	22691
877.29	22771
877.418	22744
877.546	22710
877.674	22664
877.802	22740
877.93	22805
878.058	22687
878.185	22599
878.313	22797
878.441	22672
878.568	22584
878.696	22683
878.824	22702
878.951	22869
879.079	22908
879.206	23003
879.333	23037
879.461	22793
879.588	22831
879.715	22919
879.842	23102
879.97	22786
880.097	22584
880.224	22478
880.351	22561
880.478	22607
880.605	22618
880.732	22596
880.859	22885
880.986	22599
881.112	22546
881.239	22409
881.366	22287
881.493	22143
881.619	22173
881.746	22207
881.872	22196
881.999	22207
882.125	22032
882.252	22219
882.378	22086
882.505	22181
882.631	21911
882.757	21930
882.883	21865
883.01	21915
883.136	21831
883.262	21759
883.388	21739
883.514	21732
883.64	21918
883.766	21720
883.892	21530
884.018	21595
884.143	21797
884.269	21770
884.395	21603
884.52	21367
884.646	21393
884.772	21504
884.897	21405
885.023	21378
885.148	21557
885.274	21580
885.399	21481
885.524	21481
885.65	21458
885.775	21393
885.9	21507
886.025	21576
886.15	21473
886.275	21370
886.4	21477
886.525	21386
886.65	21473
886.775	21351
886.9	21610
887.025	21652
887.149	21355
887.274	21279
887.399	21287
887.523	21135
887.648	21161
887.773	21096
887.897	21237
888.021	21401
888.146	21207
888.27	21283
888.395	21370
888.519	21249
888.643	21157
888.767	21268
888.891	21108
889.015	21009
889.139	20960
889.263	20986
889.387	21077
889.511	21245
889.635	21116
889.759	20963
889.883	20986
890.006	21096
890.13	21081
890.254	20872
890.377	20906
890.501	20765
890.624	20667
890.748	20895
890.871	20632
890.995	20655
891.118	20503
891.241	20609
891.364	20693
891.488	20731
891.611	20598
891.734	20609
891.857	20686
891.98	20537
892.103	20644
892.226	20632
892.349	20541
892.471	20305
892.594	20575
892.717	20530
892.839	20492
892.962	20454
893.085	20533
893.207	20389
893.33	20377
893.452	20305
893.575	20587
893.697	20389
893.819	20667
893.941	20693
894.064	20636
894.186	20438
894.308	20351
894.43	20609
894.552	20594
894.674	20442
894.796	20423
894.918	20396
895.04	20495
895.161	20514
895.283	20507
895.405	20385
895.526	20511
895.648	20450
895.769	20450
895.891	20518
896.012	20549
896.134	20393
896.255	20465
896.376	20408
896.498	20476
896.619	20499
896.74	20484
896.861	20511
896.982	20629
897.103	20921
897.224	20705
897.345	20674
897.466	20746
897.587	20632
897.708	20659
897.828	20632
897.949	20530
898.07	20465
898.19	20541
898.311	20731
898.431	20530
898.552	20708
898.672	20640
898.792	20811
898.913	20655
899.033	20587
899.153	20507
899.273	20389
899.393	20358
899.513	20450
899.633	20332
899.753	20408
899.873	20396
899.993	20427
900.113	20278
900.232	20347
900.352	20240
900.472	20202
900.591	20138
900.711	20305
900.83	20073
900.95	20286
901.069	20218
901.189	19986
901.308	19799
901.427	19700
901.546	19917
901.665	19734
901.784	19818
901.904	19464
902.023	19506
902.141	19358
902.26	19293
902.379	19373
902.498	19297
902.617	19263
902.735	19346
902.854	19274
902.973	19122
903.091	18833
903.21	18962
903.328	18848
903.446	18848
903.565	18741
903.683	18787
903.801	18601
903.919	18688
904.038	18661
904.156	18540
904.274	18502
904.392	18498
904.51	18528
904.627	18494
904.745	18574
904.863	18429
904.981	18338
905.098	18148
905.216	18273
905.334	18163
905.451	18201
905.569	18178
905.686	18194
905.803	18152
905.921	17935
906.038	18095
906.155	17973
906.272	17866
906.389	17840
906.506	17745
906.623	17824
906.74	17695
906.857	17642
906.974	17608
907.091	17786
907.208	17851
907.324	17733
907.441	17611
907.557	17467
907.674	17337
907.79	17330
907.907	17452
908.023	17402
908.139	17444
908.256	17444
908.372	17372
908.488	17318
908.604	17147
908.72	17132
908.836	17121
908.952	17067
909.068	17136
909.184	17159
909.3	17124
909.415	17178
909.531	17086
909.647	16965
909.762	16824
909.878	16877
909.993	16927
910.108	16881
910.224	16812
910.339	16793
910.454	16721
910.57	16649
910.685	16618
910.8	16831
910.915	16820
911.03	16733
911.145	16466
911.259	16379
911.374	16375
911.489	16356
911.604	16417
911.718	16128
911.833	16143
911.947	16082
912.062	15991
912.176	16124
912.291	16071
912.405	16154
912.519	16386
912.633	16348
912.748	16242
912.862	16101
912.976	15991
913.09	15895
913.204	16055
913.318	15991
913.431	16238
913.545	16154
913.659	15964
913.772	16025
913.886	15857
914	15808
914.113	15895
914.226	15907
914.34	15808
914.453	15671
914.566	15770
914.68	15686
914.793	15663
914.906	15511
915.019	15378
915.132	15321
915.245	15336
915.358	15351
915.47	15325
915.583	15435
915.696	15405
915.809	15507
915.921	15507
916.034	15279
916.146	15272
916.259	15260
916.371	15431
916.483	15340
916.595	15199
916.708	15237
916.82	15260
916.932	15058
917.044	15020
917.156	15150
917.268	15024
917.38	15131
917.491	14956
917.603	14952
917.715	15081
917.826	15138
917.938	14941
918.049	14819
918.161	14998
918.272	15051
918.384	15123
918.495	15001
918.606	14807
918.717	14632
918.828	14651
918.939	14842
919.05	14682
919.161	14815
919.272	14655
919.383	14682
919.494	14792
919.604	14925
919.715	14769
919.826	14720
919.936	14670
920.047	14739
920.157	14705
920.267	14887
920.378	14830
920.488	14632
920.598	14880
920.708	14982
920.818	14861
920.928	14887
921.038	14990
921.148	15024
921.258	14655
921.368	14556
921.477	14469
921.587	14427
921.697	14336
921.806	14446
921.916	14438
922.025	14145
922.134	14164
922.244	14031
922.353	14168
922.462	13963
922.571	13902
922.68	13791
922.789	13696
922.898	13769
923.007	13727
923.116	13871
923.224	13750
923.333	13742
923.442	13575
923.55	13597
923.659	13590
923.767	13609
923.876	13567
923.984	13620
924.092	13415
924.201	13445
924.309	13457
924.417	13434
924.525	13381
924.633	13434
924.741	14161
924.849	13118
924.956	13346
925.064	13225
925.172	13129
925.279	13164
925.387	13160
925.494	13110
925.602	13293
925.709	13209
925.816	13053
925.924	13050
926.031	13225
926.138	13091
926.245	13099
926.352	13038
926.459	13179
926.566	13099
926.673	12947
926.779	12886
926.886	12821
926.993	12757
927.099	12719
927.206	12623
927.312	12662
927.419	12768
927.525	12654
927.631	12745
927.737	12555
927.843	12513
927.95	12513
928.056	12547
928.162	12502
928.267	12498
928.373	13080
928.479	12627
928.585	12342
928.69	12429
928.796	12521
928.901	12448
929.007	12254
929.112	12346
929.218	12365
929.323	12159
929.428	12194
929.533	12395
929.638	12209
929.743	12140
929.848	12201
929.953	12186
930.058	12087
930.163	11980
930.267	11935
930.372	12072
930.477	11889
930.581	12129
930.685	11904
930.79	11771
930.894	11874
930.998	11813
931.103	11935
931.207	11501
931.311	11379
931.415	11410
931.519	11258
931.623	11166
