Data from test_V78500241_1593.txt Node
Date: Fri Mar 25 15:20:56 CST 2022
User: usil
Spectrometer: V785-0024
Trigger mode: 0
Integration Time (sec): 4.000000E-1
Scans to average: 1
Nonlinearity correction enabled: false
Boxcar width: 0
Storing dark spectrum: false
XAxis mode: Wavelengths
Number of Pixels in Spectrum: 1024
>>>>>Begin Spectral Data<<<<<
801.071	28188
801.214	27918
801.356	27800
801.499	27652
801.641	27530
801.783	27698
801.926	27504
802.068	27523
802.211	27549
802.353	27549
802.496	27367
802.638	27313
802.78	27043
802.923	27192
803.065	27108
803.208	27199
803.35	27275
803.492	27306
803.635	27389
803.777	27329
803.919	27462
804.061	27751
804.204	27447
804.346	27344
804.488	27382
804.63	27462
804.773	27344
804.915	27363
805.057	27549
805.199	27466
805.341	27614
805.483	27523
805.626	27675
805.768	27401
805.91	27538
806.052	27511
806.194	27682
806.336	27816
806.478	27591
806.62	27568
806.762	27614
806.904	27926
807.046	28002
807.188	27934
807.33	28074
807.472	28032
807.614	27945
807.756	27930
807.898	27720
808.04	27770
808.182	27854
808.324	27880
808.465	27960
808.607	28139
808.749	28215
808.891	28204
809.033	28409
809.174	28226
809.316	28185
809.458	28249
809.6	28131
809.741	28284
809.883	28542
810.025	28478
810.166	28436
810.308	28432
810.45	28519
810.591	28337
810.733	28249
810.875	28166
811.016	28120
811.158	27987
811.299	28409
811.441	28379
811.582	28299
811.724	28154
811.865	28158
812.007	28131
812.148	28204
812.29	28344
812.431	28497
812.573	28542
812.714	28550
812.855	28774
812.997	28771
813.138	28866
813.279	28820
813.421	28793
813.562	28660
813.703	28573
813.845	28356
813.986	28120
814.127	28002
814.268	27831
814.41	27983
814.551	27812
814.692	28006
814.833	27755
814.974	27762
815.115	27926
815.256	27709
815.397	27816
815.539	27831
815.68	27686
815.821	27637
815.962	27724
816.103	27660
816.244	27675
816.385	27397
816.526	27458
816.666	27329
816.807	27241
816.948	27245
817.089	27367
817.23	27313
817.371	27066
817.512	27150
817.653	27104
817.793	27138
817.934	27249
818.075	27176
818.216	27154
818.356	27104
818.497	27036
818.638	26914
818.778	26796
818.919	26887
819.06	27005
819.2	27173
819.341	27188
819.481	27203
819.622	27275
819.762	27568
819.903	27340
820.043	27496
820.184	27351
820.324	27291
820.465	27340
820.605	27359
820.746	27294
820.886	27119
821.026	27321
821.167	27230
821.307	27340
821.447	27268
821.588	27017
821.728	27020
821.868	26899
822.008	26735
822.149	26720
822.289	26651
822.429	26355
822.569	26275
822.709	26339
822.849	26145
822.99	26164
823.13	26218
823.27	26202
823.41	25947
823.55	25913
823.69	26069
823.83	25837
823.97	25936
824.11	25887
824.25	25761
824.389	25841
824.529	25871
824.669	25784
824.809	25936
824.949	26005
825.089	25852
825.228	25830
825.368	25586
825.508	25643
825.648	25681
825.787	25731
825.927	25852
826.067	25647
826.206	25643
826.346	25765
826.485	25715
826.625	25571
826.765	25761
826.904	25799
827.044	25426
827.183	25529
827.323	25518
827.462	25499
827.601	25438
827.741	25346
827.88	25335
828.02	25179
828.159	25331
828.298	25457
828.437	25422
828.577	25270
828.716	25502
828.855	25255
828.994	25168
829.134	25137
829.273	25069
829.412	25099
829.551	25088
829.69	25099
829.829	25190
829.968	25175
830.107	25080
830.246	25019
830.385	25088
830.524	24951
830.663	24837
830.802	24753
830.941	24639
831.08	24692
831.219	24783
831.357	24783
831.496	24943
831.635	24730
831.774	24623
831.913	24608
832.051	24513
832.19	24433
832.329	24433
832.467	24346
832.606	24285
832.744	24361
832.883	24361
833.022	24330
833.16	24388
833.299	24483
833.437	24277
833.576	24547
833.714	24281
833.852	24372
833.991	24601
834.129	24505
834.267	24399
834.406	24521
834.544	24490
834.682	24395
834.821	24365
834.959	24574
835.097	24300
835.235	24384
835.373	24422
835.511	24410
835.65	24296
835.788	24270
835.926	24079
836.064	23996
836.202	24064
836.34	24239
836.478	24391
836.615	24167
836.753	24353
836.891	24281
837.029	24258
837.167	24243
837.305	24121
837.443	24125
837.58	24007
837.718	24262
837.856	24079
837.993	24007
838.131	24072
838.269	23912
838.406	24045
838.544	23980
838.681	23767
838.819	23695
838.956	23528
839.094	23566
839.231	23611
839.369	23760
839.506	24011
839.643	23832
839.781	23509
839.918	23585
840.055	23539
840.193	23558
840.33	23497
840.467	23436
840.604	23440
840.742	23748
840.879	23334
841.016	23455
841.153	23261
841.29	23570
841.427	23398
841.564	23581
841.701	23463
841.838	23368
841.975	23376
842.112	23372
842.249	23273
842.385	23231
842.522	23474
842.659	23174
842.796	23166
842.933	23166
843.069	23303
843.206	23235
843.343	23303
843.479	23299
843.616	23200
843.752	22991
843.889	22919
844.025	23113
844.162	22930
844.298	23147
844.435	22961
844.571	22980
844.708	23006
844.844	23086
844.98	23121
845.117	23174
845.253	22991
845.389	22911
845.525	22839
845.661	22854
845.798	22687
845.934	22748
846.07	22691
846.206	22793
846.342	22843
846.478	22752
846.614	22580
846.75	22504
846.886	22516
847.022	22485
847.158	22500
847.294	22500
847.429	22561
847.565	22451
847.701	22706
847.837	22253
847.972	22226
848.108	22253
848.244	22166
848.379	22101
848.515	21941
848.65	22078
848.786	21892
848.921	22067
849.057	22200
849.192	22135
849.328	22124
849.463	22082
849.598	21937
849.734	22040
849.869	21819
850.004	21884
850.14	21865
850.275	21876
850.41	21819
850.545	21838
850.68	21789
850.815	21934
850.95	21899
851.085	22036
851.22	21922
851.355	21880
851.49	21808
851.625	21808
851.76	21728
851.895	21789
852.03	21701
852.165	21937
852.299	21781
852.434	21922
852.569	21922
852.703	21876
852.838	21876
852.973	21949
853.107	21941
853.242	21812
853.376	21667
853.511	21504
853.645	21549
853.78	21713
853.914	21618
854.048	21690
854.183	21568
854.317	21641
854.451	21930
854.585	21641
854.72	21686
854.854	21720
854.988	21603
855.122	21705
855.256	21583
855.39	21656
855.524	21778
855.658	21610
855.792	21576
855.926	21671
856.06	21690
856.194	21614
856.327	21599
856.461	21557
856.595	21690
856.729	21679
856.862	21690
856.996	21644
857.13	21732
857.263	21778
857.397	21698
857.53	21641
857.664	21656
857.797	21656
857.931	21751
858.064	21739
858.197	21766
858.331	21660
858.464	21644
858.597	21603
858.731	21641
858.864	21572
858.997	21542
859.13	21633
859.263	21663
859.396	21701
859.529	21572
859.662	21682
859.795	21629
859.928	21595
860.061	21789
860.194	21823
860.327	21778
860.46	21701
860.592	21789
860.725	21766
860.858	21762
860.99	21629
861.123	21614
861.256	21660
861.388	21580
861.521	22306
861.653	21447
861.786	21355
861.918	21405
862.05	21625
862.183	21500
862.315	21603
862.447	21633
862.58	21519
862.712	21431
862.844	21245
862.976	21523
863.108	21378
863.24	21675
863.372	21249
863.504	21367
863.636	21386
863.768	21378
863.9	21332
864.032	21226
864.164	21302
864.296	21473
864.428	21507
864.559	21439
864.691	21428
864.823	21397
864.954	21367
865.086	21370
865.217	21161
865.349	21218
865.48	21222
865.612	21214
865.743	21329
865.875	21127
866.006	21192
866.137	21203
866.269	21203
866.4	21203
866.531	21150
866.662	21123
866.793	21093
866.924	21135
867.055	21260
867.186	21055
867.317	21173
867.448	21020
867.579	21047
867.71	21112
867.841	21043
867.972	21272
868.103	21127
868.233	21138
868.364	21203
868.495	21218
868.625	21412
868.756	21485
868.886	21283
869.017	21359
869.147	21504
869.278	21561
869.408	21424
869.539	21420
869.669	21587
869.799	21416
869.929	21625
870.06	21542
870.19	21732
870.32	21694
870.45	21724
870.58	21755
870.71	21911
870.84	21880
870.97	21694
871.1	21774
871.23	21941
871.36	21945
871.489	21930
871.619	21960
871.749	21838
871.879	21895
872.008	22070
872.138	21983
872.267	21960
872.397	21793
872.526	21808
872.656	21747
872.785	21816
872.915	22067
873.044	22067
873.173	22013
873.303	22055
873.432	21960
873.561	22074
873.69	22074
873.819	22082
873.948	22067
874.077	21983
874.206	22185
874.335	22032
874.464	22078
874.593	22192
874.722	22188
874.851	22276
874.979	22169
875.108	22253
875.237	22318
875.365	22219
875.494	22246
875.623	22238
875.751	22105
875.88	22169
876.008	22318
876.136	22318
876.265	22630
876.393	22679
876.521	22710
876.65	22607
876.778	22596
876.906	22592
877.034	22596
877.162	22588
877.29	22527
877.418	22550
877.546	22641
877.674	22645
877.802	22596
877.93	22546
878.058	22535
878.185	22485
878.313	22550
878.441	22485
878.568	22371
878.696	22504
878.824	22618
878.951	22778
879.079	22733
879.206	22930
879.333	22687
879.461	22694
879.588	22664
879.715	22843
879.842	22869
879.97	22580
880.097	22360
880.224	22386
880.351	22428
880.478	22382
880.605	22409
880.732	22352
880.859	22618
880.986	22314
881.112	22348
881.239	22215
881.366	22188
881.493	22029
881.619	22051
881.746	22025
881.872	21979
881.999	22059
882.125	21888
882.252	22013
882.378	21983
882.505	22013
882.631	21785
882.757	21778
882.883	21857
883.01	21816
883.136	21663
883.262	21538
883.388	21500
883.514	21652
883.64	21656
883.766	21545
883.892	21561
884.018	21515
884.143	21644
884.269	21743
884.395	21370
884.52	21222
884.646	21241
884.772	21348
884.897	21180
885.023	21344
885.148	21401
885.274	21504
885.399	21405
885.524	21378
885.65	21344
885.775	21127
885.9	21382
886.025	21408
886.15	21310
886.275	21275
886.4	21176
886.525	21260
886.65	21279
886.775	21256
886.9	21428
887.025	21500
887.149	21173
887.274	21013
887.399	21043
887.523	21127
887.648	21081
887.773	20967
887.897	21157
888.021	21055
888.146	20902
888.27	21070
888.395	21077
888.519	21058
888.643	21096
888.767	21123
888.891	20979
889.015	20929
889.139	20811
889.263	20864
889.387	20937
889.511	21009
889.635	20861
889.759	20811
889.883	20788
890.006	20883
890.13	21001
890.254	20754
890.377	20800
890.501	20526
890.624	20705
890.748	20735
890.871	20598
890.995	20396
891.118	20328
891.241	20389
891.364	20465
891.488	20499
891.611	20522
891.734	20415
891.857	20503
891.98	20336
892.103	20484
892.226	20412
892.349	20267
892.471	20161
892.594	20290
892.717	20259
892.839	20233
892.962	20305
893.085	20374
893.207	20282
893.33	20271
893.452	20271
893.575	20298
893.697	20408
893.819	20446
893.941	20526
894.064	20423
894.186	20271
894.308	20313
894.43	20396
894.552	20476
894.674	20374
894.796	20218
894.918	20286
895.04	20336
895.161	20450
895.283	20358
895.405	20324
895.526	20278
895.648	20225
895.769	20385
895.891	20328
896.012	20442
896.134	20343
896.255	20393
896.376	20336
896.498	20396
896.619	20339
896.74	20233
896.861	20313
896.982	20594
897.103	20788
897.224	20621
897.345	20400
897.466	20484
897.587	20488
897.708	20609
897.828	20526
897.949	20408
898.07	20339
898.19	20389
898.311	20602
898.431	20419
898.552	20560
898.672	20530
898.792	20568
898.913	20514
899.033	20389
899.153	20434
899.273	20282
899.393	20233
899.513	20286
899.633	20286
899.753	20317
899.873	20286
899.993	20240
900.113	20187
900.232	20347
900.352	20282
900.472	20145
900.591	19978
900.711	20058
900.83	19986
900.95	20065
901.069	20122
901.189	19993
901.308	19681
901.427	19620
901.546	19769
901.665	19537
901.784	19590
901.904	19491
902.023	19358
902.141	19282
902.26	19228
902.379	19225
902.498	19076
902.617	19046
902.735	19175
902.854	19194
902.973	19103
903.091	18760
903.21	18867
903.328	18806
903.446	18661
903.565	18601
903.683	18551
903.801	18513
903.919	18612
904.038	18509
904.156	18380
904.274	18448
904.392	18376
904.51	18315
904.627	18327
904.745	18471
904.863	18361
904.981	18174
905.098	18030
905.216	18102
905.334	18133
905.451	18003
905.569	18019
905.686	18129
905.803	17931
905.921	17805
906.038	17901
906.155	17760
906.272	17672
906.389	17798
906.506	17695
906.623	17558
906.74	17634
906.857	17509
906.974	17478
907.091	17665
907.208	17661
907.324	17600
907.441	17600
907.557	17250
907.674	17341
907.79	17246
907.907	17307
908.023	17303
908.139	17299
908.256	17200
908.372	17147
908.488	17239
908.604	17014
908.72	17029
908.836	16999
908.952	17018
909.068	17045
909.184	17166
909.3	16949
909.415	17064
909.531	17003
909.647	16854
909.762	16694
909.878	16778
909.993	16668
910.108	16767
910.224	16607
910.339	16706
910.454	16538
910.57	16535
910.685	16519
910.8	16645
910.915	16630
911.03	16554
911.145	16322
911.259	16303
911.374	16329
911.489	16230
911.604	16150
911.718	16067
911.833	16067
911.947	15915
912.062	15953
912.176	16013
912.291	15994
912.405	16021
912.519	16192
912.633	16284
912.748	16063
912.862	15998
912.976	15861
913.09	15819
913.204	15861
913.318	15831
913.431	15930
913.545	16017
913.659	16025
913.772	15713
913.886	15690
914	15610
914.113	15701
914.226	15831
914.34	15800
914.453	15595
914.566	15679
914.68	15629
914.793	15595
914.906	15351
915.019	15355
915.132	15268
915.245	15298
915.358	15317
915.47	15344
915.583	15302
915.696	15279
915.809	15458
915.921	15401
916.034	15188
916.146	15249
916.259	15222
916.371	15256
916.483	15260
916.595	15218
916.708	15230
916.82	15123
916.932	15043
917.044	15165
917.156	15108
917.268	15024
917.38	14986
917.491	14994
917.603	15017
917.715	15020
917.826	15001
917.938	14956
918.049	14861
918.161	14990
918.272	15081
918.384	15119
918.495	14982
918.606	14769
918.717	14667
918.828	14739
918.939	14693
919.05	14689
919.161	14697
919.272	14556
919.383	14492
919.494	14720
919.604	14883
919.715	14765
919.826	14606
919.936	14724
920.047	14724
920.157	14644
920.267	14876
920.378	14568
920.488	14648
920.598	14807
920.708	14857
920.818	14781
920.928	14914
921.038	14990
921.148	14910
921.258	14549
921.368	14579
921.477	14385
921.587	14385
921.697	14301
921.806	14446
921.916	14244
922.025	14138
922.134	13963
922.244	13993
922.353	14142
922.462	14065
922.571	13841
922.68	13685
922.789	13616
922.898	13742
923.007	13609
923.116	13750
923.224	13613
923.333	13639
923.442	13609
923.55	13510
923.659	13476
923.767	13605
923.876	13445
923.984	13518
924.092	13358
924.201	13491
924.309	13480
924.417	13499
924.525	13350
924.633	13445
924.741	14244
924.849	13156
924.956	13244
925.064	13122
925.172	13057
925.279	13046
925.387	13023
925.494	13175
925.602	13240
925.709	13091
925.816	12935
925.924	13038
926.031	13156
926.138	13080
926.245	13053
926.352	12932
926.459	13065
926.566	13133
926.673	12970
926.779	12951
926.886	12802
926.993	12608
927.099	12677
927.206	12601
927.312	12608
927.419	12700
927.525	12692
927.631	12696
927.737	12544
927.843	12483
927.95	12475
928.056	12467
928.162	12414
928.267	12486
928.373	13194
928.479	12574
928.585	12273
928.69	12418
928.796	12445
928.901	12391
929.007	12117
929.112	12361
929.218	12285
929.323	12235
929.428	12148
929.533	12239
929.638	12095
929.743	12140
929.848	12228
929.953	12129
930.058	12011
930.163	11878
930.267	11946
930.372	12003
930.477	11832
930.581	12114
930.685	11939
930.79	11760
930.894	11779
930.998	11733
931.103	11882
931.207	11444
931.311	11463
931.415	11387
931.519	11193
931.623	11140
