Data from test_V78500241_2679.txt Node
Date: Fri Mar 25 15:28:30 CST 2022
User: usil
Spectrometer: V785-0024
Trigger mode: 0
Integration Time (sec): 4.000000E-1
Scans to average: 1
Nonlinearity correction enabled: false
Boxcar width: 0
Storing dark spectrum: false
XAxis mode: Wavelengths
Number of Pixels in Spectrum: 1024
>>>>>Begin Spectral Data<<<<<
801.071	27039
801.214	27047
801.356	26914
801.499	26773
801.641	26648
801.783	26644
801.926	26754
802.068	26575
802.211	26419
802.353	26522
802.496	26339
802.638	26320
802.78	26202
802.923	26214
803.065	26157
803.208	26229
803.35	26199
803.492	26377
803.635	26473
803.777	26187
803.919	26358
804.061	26598
804.204	26286
804.346	26218
804.488	26214
804.63	26343
804.773	26290
804.915	26408
805.057	26476
805.199	26419
805.341	26336
805.483	26389
805.626	26484
805.768	26415
805.91	26366
806.052	26514
806.194	26431
806.336	26560
806.478	26480
806.62	26590
806.762	26556
806.904	26701
807.046	27074
807.188	26868
807.33	27020
807.472	26944
807.614	26746
807.756	26735
807.898	26773
808.04	26769
808.182	26731
808.324	26655
808.465	26682
808.607	26914
808.749	27157
808.891	27127
809.033	27176
809.174	27127
809.316	26986
809.458	27039
809.6	27039
809.741	27100
809.883	27169
810.025	27294
810.166	27386
810.308	27298
810.45	27408
810.591	27230
810.733	27237
810.875	27074
811.016	26967
811.158	27051
811.299	27127
811.441	27211
811.582	27108
811.724	27112
811.865	27005
812.007	27036
812.148	27036
812.29	26982
812.431	27100
812.573	27454
812.714	27367
812.855	27587
812.997	27557
813.138	27789
813.279	27648
813.421	27477
813.562	27526
813.703	27435
813.845	27264
813.986	26918
814.127	26937
814.268	26788
814.41	26758
814.551	26705
814.692	26746
814.833	26450
814.974	26678
815.115	26575
815.256	26568
815.397	26587
815.539	26682
815.68	26613
815.821	26229
815.962	26495
816.103	26442
816.244	26282
816.385	26221
816.526	26187
816.666	26088
816.807	25906
816.948	26107
817.089	26073
817.23	25944
817.371	26001
817.512	25799
817.653	25921
817.793	25826
817.934	26005
818.075	25940
818.216	25811
818.356	25894
818.497	25727
818.638	25666
818.778	25658
818.919	25628
819.06	25674
819.2	25868
819.341	25894
819.481	25902
819.622	26027
819.762	26199
819.903	26157
820.043	26119
820.184	25989
820.324	25909
820.465	26199
820.605	26172
820.746	25852
820.886	25925
821.026	26031
821.167	25898
821.307	25993
821.447	25932
821.588	25788
821.728	25757
821.868	25468
822.008	25335
822.149	25327
822.289	25354
822.429	25069
822.569	25183
822.709	25141
822.849	24954
822.99	24913
823.13	24852
823.27	24856
823.41	24734
823.55	24631
823.69	24764
823.83	24795
823.97	24673
824.11	24486
824.25	24639
824.389	24525
824.529	24486
824.669	24464
824.809	24582
824.949	24608
825.089	24578
825.228	24498
825.368	24418
825.508	24414
825.648	24407
825.787	24414
825.927	24570
826.067	24414
826.206	24509
826.346	24498
826.485	24426
826.625	24456
826.765	24570
826.904	24429
827.044	24258
827.183	24220
827.323	24087
827.462	24159
827.601	24133
827.741	23984
827.88	24057
828.02	23916
828.159	23999
828.298	24258
828.437	24117
828.577	24018
828.716	24117
828.855	23965
828.994	23908
829.134	23897
829.273	23805
829.412	23699
829.551	23657
829.69	23684
829.829	23760
829.968	23950
830.107	23847
830.246	23923
830.385	23687
830.524	23726
830.663	23680
830.802	23490
830.941	23562
831.08	23387
831.219	23528
831.357	23482
831.496	23611
831.635	23414
831.774	23299
831.913	23258
832.051	23311
832.19	23098
832.329	23223
832.467	23018
832.606	23056
832.744	23060
832.883	23136
833.022	23060
833.16	23159
833.299	23079
833.437	23090
833.576	23143
833.714	23216
833.852	23204
833.991	23212
834.129	23121
834.267	23299
834.406	23216
834.544	23292
834.682	23223
834.821	23025
834.959	23402
835.097	23204
835.235	23200
835.373	23136
835.511	23273
835.65	22980
835.788	23033
835.926	22911
836.064	22816
836.202	22850
836.34	22972
836.478	23132
836.615	22957
836.753	23056
836.891	23025
837.029	23048
837.167	22999
837.305	22965
837.443	22942
837.58	22854
837.718	22980
837.856	22927
837.993	22839
838.131	22915
838.269	22645
838.406	22759
838.544	22611
838.681	22432
838.819	22554
838.956	22284
839.094	22185
839.231	22382
839.369	22554
839.506	22698
839.643	22683
839.781	22470
839.918	22223
840.055	22348
840.193	22284
840.33	22200
840.467	22291
840.604	22322
840.742	22641
840.879	22147
841.016	22219
841.153	22341
841.29	22382
841.427	22295
841.564	22325
841.701	22276
841.838	22268
841.975	22162
842.112	22207
842.249	22238
842.385	22120
842.522	22314
842.659	22078
842.796	22090
842.933	22059
843.069	22021
843.206	21983
843.343	22109
843.479	21968
843.616	21956
843.752	21728
843.889	21873
844.025	21895
844.162	21827
844.298	21861
844.435	21835
844.571	21846
844.708	21831
844.844	21991
844.98	21994
845.117	21888
845.253	21759
845.389	21591
845.525	21663
845.661	21637
845.798	21561
845.934	21641
846.07	21511
846.206	21591
846.342	21663
846.478	21435
846.614	21401
846.75	21321
846.886	21272
847.022	21401
847.158	21363
847.294	21351
847.429	21408
847.565	21260
847.701	21443
847.837	21009
847.972	20998
848.108	21085
848.244	21135
848.379	20864
848.515	20883
848.65	20956
848.786	20845
848.921	20982
849.057	21001
849.192	20921
849.328	20883
849.463	20918
849.598	20830
849.734	20792
849.869	20731
850.004	20701
850.14	20724
850.275	20705
850.41	20568
850.545	20514
850.68	20724
850.815	20762
850.95	20701
851.085	20861
851.22	20811
851.355	20708
851.49	20621
851.625	20609
851.76	20632
851.895	20537
852.03	20655
852.165	20659
852.299	20724
852.434	20674
852.569	20602
852.703	20686
852.838	20636
852.973	20705
853.107	20727
853.242	20571
853.376	20450
853.511	20431
853.645	20438
853.78	20625
853.914	20488
854.048	20362
854.183	20454
854.317	20404
854.451	20651
854.585	20511
854.72	20492
854.854	20568
854.988	20465
855.122	20427
855.256	20358
855.39	20492
855.524	20613
855.658	20507
855.792	20427
855.926	20514
856.06	20526
856.194	20560
856.327	20476
856.461	20423
856.595	20499
856.729	20533
856.862	20526
856.996	20609
857.13	20537
857.263	20686
857.397	20492
857.53	20461
857.664	20583
857.797	20499
857.931	20537
858.064	20427
858.197	20568
858.331	20370
858.464	20423
858.597	20377
858.731	20454
858.864	20484
858.997	20522
859.13	20488
859.263	20457
859.396	20564
859.529	20503
859.662	20427
859.795	20495
859.928	20446
860.061	20568
860.194	20644
860.327	20564
860.46	20446
860.592	20541
860.725	20568
860.858	20629
860.99	20514
861.123	20366
861.256	20492
861.388	20480
861.521	21077
861.653	20336
861.786	20313
861.918	20317
862.05	20389
862.183	20339
862.315	20362
862.447	20457
862.58	20469
862.712	20290
862.844	20054
862.976	20237
863.108	20176
863.24	20651
863.372	20130
863.504	20157
863.636	20157
863.768	20214
863.9	20259
864.032	20130
864.164	20301
864.296	20119
864.428	20343
864.559	20214
864.691	20404
864.823	20267
864.954	20142
865.086	20237
865.217	20103
865.349	19993
865.48	20092
865.612	20043
865.743	20176
865.875	20043
866.006	20103
866.137	20130
866.269	19997
866.4	20005
866.531	20001
866.662	19974
866.793	20065
866.924	20058
867.055	20081
867.186	20046
867.317	19917
867.448	19833
867.579	20008
867.71	19993
867.841	19932
867.972	20081
868.103	19932
868.233	20176
868.364	20122
868.495	20149
868.625	20164
868.756	20415
868.886	20161
869.017	20336
869.147	20370
869.278	20374
869.408	20309
869.539	20275
869.669	20393
869.799	20412
869.929	20412
870.06	20351
870.19	20480
870.32	20545
870.45	20640
870.58	20731
870.71	20861
870.84	20731
870.97	20686
871.1	20625
871.23	20834
871.36	20979
871.489	20739
871.619	20864
871.749	20921
871.879	20876
872.008	21100
872.138	20861
872.267	21009
872.397	20914
872.526	20765
872.656	20674
872.785	20788
872.915	20952
873.044	20975
873.173	20979
873.303	20963
873.432	20929
873.561	21077
873.69	20986
873.819	20887
873.948	21001
874.077	20857
874.206	20872
874.335	20899
874.464	21074
874.593	21211
874.722	21104
874.851	21161
874.979	21157
875.108	21287
875.237	21104
875.365	21138
875.494	21116
875.623	21192
875.751	21165
875.88	21222
876.008	21310
876.136	21310
876.265	21557
876.393	21622
876.521	21591
876.65	21698
876.778	21431
876.906	21473
877.034	21405
877.162	21511
877.29	21469
877.418	21652
877.546	21530
877.674	21515
877.802	21443
877.93	21542
878.058	21424
878.185	21389
878.313	21447
878.441	21519
878.568	21268
878.696	21443
878.824	21504
878.951	21557
879.079	21671
879.206	21762
879.333	21656
879.461	21526
879.588	21587
879.715	21698
879.842	21766
879.97	21542
880.097	21275
880.224	21291
880.351	21332
880.478	21214
880.605	21382
880.732	21401
880.859	21564
880.986	21310
881.112	21184
881.239	21104
881.366	21032
881.493	21051
881.619	20933
881.746	20956
881.872	20876
881.999	20849
882.125	20845
882.252	20864
882.378	20769
882.505	21009
882.631	20754
882.757	20636
882.883	20636
883.01	20625
883.136	20469
883.262	20480
883.388	20583
883.514	20720
883.64	20598
883.766	20560
883.892	20423
884.018	20438
884.143	20522
884.269	20594
884.395	20298
884.52	20221
884.646	20343
884.772	20176
884.897	20096
885.023	20244
885.148	20263
885.274	20358
885.399	20454
885.524	20252
885.65	20278
885.775	20142
885.9	20313
886.025	20294
886.15	20400
886.275	20317
886.4	20134
886.525	20275
886.65	20134
886.775	20122
886.9	20332
887.025	20492
887.149	20267
887.274	20084
887.399	20016
887.523	19982
887.648	20065
887.773	19955
887.897	20218
888.021	20005
888.146	19982
888.27	20069
888.395	20210
888.519	20096
888.643	20073
888.767	20161
888.891	19913
889.015	19788
889.139	19776
889.263	19852
889.387	20001
889.511	20069
889.635	20084
889.759	19788
889.883	19921
890.006	19765
890.13	20024
890.254	19799
890.377	19837
890.501	19635
890.624	19635
890.748	19693
890.871	19582
890.995	19434
891.118	19415
891.241	19434
891.364	19438
891.488	19559
891.611	19407
891.734	19388
891.857	19472
891.98	19403
892.103	19510
892.226	19441
892.349	19396
892.471	19232
892.594	19434
892.717	19453
892.839	19381
892.962	19240
893.085	19324
893.207	19251
893.33	19320
893.452	19259
893.575	19377
893.697	19449
893.819	19506
893.941	19521
894.064	19510
894.186	19301
894.308	19324
894.43	19594
894.552	19533
894.674	19365
894.796	19263
894.918	19301
895.04	19350
895.161	19400
895.283	19320
895.405	19251
895.526	19369
895.648	19270
895.769	19365
895.891	19384
896.012	19415
896.134	19438
896.255	19346
896.376	19331
896.498	19343
896.619	19312
896.74	19343
896.861	19377
896.982	19616
897.103	19814
897.224	19655
897.345	19502
897.466	19544
897.587	19582
897.708	19605
897.828	19540
897.949	19567
898.07	19358
898.19	19491
898.311	19731
898.431	19594
898.552	19643
898.672	19628
898.792	19647
898.913	19616
899.033	19381
899.153	19426
899.273	19179
899.393	19392
899.513	19460
899.633	19396
899.753	19415
899.873	19392
899.993	19400
900.113	19331
900.232	19289
900.352	19160
900.472	19221
900.591	19152
900.711	19232
900.83	19274
900.95	19244
901.069	19164
901.189	19141
901.308	18848
901.427	18726
901.546	18688
901.665	18829
901.784	18658
901.904	18677
902.023	18627
902.141	18414
902.26	18270
902.379	18346
902.498	18277
902.617	18258
902.735	18315
902.854	18323
902.973	18216
903.091	17946
903.21	18026
903.328	17912
903.446	17809
903.565	17726
903.683	17786
903.801	17752
903.919	17771
904.038	17726
904.156	17509
904.274	17627
904.392	17532
904.51	17474
904.627	17440
904.745	17520
904.863	17577
904.981	17459
905.098	17174
905.216	17239
905.334	17299
905.451	17242
905.569	17102
905.686	17261
905.803	17231
905.921	16965
906.038	17090
906.155	17025
906.272	16946
906.389	16930
906.506	16717
906.623	16733
906.74	16721
906.857	16611
906.974	16679
907.091	16725
907.208	16896
907.324	16759
907.441	16615
907.557	16519
907.674	16462
907.79	16394
907.907	16481
908.023	16443
908.139	16466
908.256	16310
908.372	16382
908.488	16402
908.604	16226
908.72	16150
908.836	16242
908.952	16147
909.068	16158
909.184	16348
909.3	16192
909.415	16173
909.531	16211
909.647	15930
909.762	15873
909.878	15861
909.993	15945
910.108	15915
910.224	15861
910.339	15816
910.454	15743
910.57	15739
910.685	15568
910.8	15911
910.915	15812
911.03	15686
911.145	15526
911.259	15473
911.374	15557
911.489	15439
911.604	15386
911.718	15351
911.833	15389
911.947	15241
912.062	15127
912.176	15374
912.291	15363
912.405	15302
912.519	15317
912.633	15397
912.748	15310
912.862	15195
912.976	15024
913.09	14952
913.204	15127
913.318	15104
913.431	15256
913.545	15154
913.659	15188
913.772	15020
913.886	14998
914	14857
914.113	14914
914.226	15070
914.34	15024
914.453	14804
914.566	14921
914.68	14819
914.793	14701
914.906	14549
915.019	14568
915.132	14473
915.245	14541
915.358	14522
915.47	14469
915.583	14549
915.696	14598
915.809	14579
915.921	14644
916.034	14484
916.146	14431
916.259	14427
916.371	14507
916.483	14480
916.595	14385
916.708	14396
916.82	14374
916.932	14317
917.044	14374
917.156	14324
917.268	14111
917.38	14328
917.491	14176
917.603	14275
917.715	14301
917.826	14282
917.938	14195
918.049	14035
918.161	14134
918.272	14225
918.384	14172
918.495	14214
918.606	13986
918.717	13860
918.828	14069
918.939	14024
919.05	13917
919.161	13967
919.272	13750
919.383	13845
919.494	13989
919.604	14157
919.715	14035
919.826	13833
919.936	13879
920.047	14077
920.157	13887
920.267	13997
920.378	13925
920.488	13913
920.598	14130
920.708	14191
920.818	14043
920.928	13989
921.038	14256
921.148	14153
921.258	13864
921.368	13795
921.477	13655
921.587	13696
921.697	13518
921.806	13753
921.916	13540
922.025	13331
922.134	13392
922.244	13312
922.353	13312
922.462	13244
922.571	13141
922.68	13019
922.789	12989
922.898	13008
923.007	12943
923.116	13031
923.224	12977
923.333	12973
923.442	12886
923.55	12802
923.659	12859
923.767	12924
923.876	12768
923.984	12722
924.092	12658
924.201	12738
924.309	12810
924.417	12696
924.525	12681
924.633	12700
924.741	13677
924.849	12414
924.956	12589
925.064	12498
925.172	12350
925.279	12494
925.387	12414
925.494	12407
925.602	12589
925.709	12395
925.816	12292
925.924	12388
926.031	12483
926.138	12433
926.245	12422
926.352	12338
926.459	12418
926.566	12566
926.673	12315
926.779	12205
926.886	12209
926.993	12049
927.099	11977
927.206	11992
927.312	11954
927.419	12041
927.525	11992
927.631	12045
927.737	11904
927.843	11901
927.95	11771
928.056	11885
928.162	11866
928.267	11897
928.373	12407
928.479	11950
928.585	11703
928.69	11878
928.796	11870
928.901	11710
929.007	11581
929.112	11710
929.218	11691
929.323	11589
929.428	11532
929.533	11699
929.638	11501
929.743	11547
929.848	11596
929.953	11433
930.058	11463
930.163	11273
930.267	11296
930.372	11433
930.477	11318
930.581	11509
930.685	11387
930.79	11178
930.894	11280
930.998	11147
931.103	11250
931.207	10991
931.311	10759
931.415	10752
931.519	10599
931.623	10538
