Data from test_V78500241_1451.txt Node
Date: Fri Mar 25 15:19:57 CST 2022
User: usil
Spectrometer: V785-0024
Trigger mode: 0
Integration Time (sec): 4.000000E-1
Scans to average: 1
Nonlinearity correction enabled: false
Boxcar width: 0
Storing dark spectrum: false
XAxis mode: Wavelengths
Number of Pixels in Spectrum: 1024
>>>>>Begin Spectral Data<<<<<
801.071	28325
801.214	28226
801.356	28029
801.499	27873
801.641	27724
801.783	27930
801.926	27888
802.068	27869
802.211	27682
802.353	27751
802.496	27447
802.638	27656
802.78	27348
802.923	27488
803.065	27272
803.208	27450
803.35	27458
803.492	27599
803.635	27728
803.777	27603
803.919	27739
804.061	28147
804.204	27857
804.346	27694
804.488	27622
804.63	27705
804.773	27660
804.915	27705
805.057	27728
805.199	27583
805.341	27835
805.483	27895
805.626	27926
805.768	27865
805.91	27850
806.052	27880
806.194	27679
806.336	27987
806.478	27945
806.62	27873
806.762	28097
806.904	28223
807.046	28341
807.188	28257
807.33	28234
807.472	28333
807.614	28162
807.756	28158
807.898	28013
808.04	28135
808.182	28059
808.324	28158
808.465	28196
808.607	28318
808.749	28508
808.891	28424
809.033	28687
809.174	28615
809.316	28398
809.458	28314
809.6	28538
809.741	28645
809.883	28660
810.025	28965
810.166	28881
810.308	28793
810.45	28759
810.591	28828
810.733	28596
810.875	28557
811.016	28599
811.158	28428
811.299	28683
811.441	28645
811.582	28729
811.724	28531
811.865	28360
812.007	28535
812.148	28478
812.29	28516
812.431	28649
812.573	28824
812.714	28866
812.855	29064
812.997	29166
813.138	29162
813.279	29075
813.421	29075
813.562	29033
813.703	28835
813.845	28801
813.986	28550
814.127	28409
814.268	28276
814.41	28314
814.551	28257
814.692	28348
814.833	28192
814.974	28173
815.115	28356
815.256	28097
815.397	28044
815.539	28002
815.68	28006
815.821	27960
815.962	28070
816.103	28017
816.244	27835
816.385	27854
816.526	27732
816.666	27515
816.807	27542
816.948	27526
817.089	27648
817.23	27500
817.371	27614
817.512	27587
817.653	27538
817.793	27420
817.934	27564
818.075	27526
818.216	27568
818.356	27572
818.497	27488
818.638	27291
818.778	27233
818.919	27370
819.06	27481
819.2	27462
819.341	27523
819.481	27431
819.622	27641
819.762	27895
819.903	27759
820.043	27629
820.184	27580
820.324	27667
820.465	27736
820.605	27728
820.746	27660
820.886	27534
821.026	27606
821.167	27568
821.307	27667
821.447	27523
821.588	27382
821.728	27321
821.868	27294
822.008	27085
822.149	26956
822.289	26979
822.429	26720
822.569	26796
822.709	26636
822.849	26514
822.99	26594
823.13	26594
823.27	26328
823.41	26355
823.55	26199
823.69	26309
823.83	26396
823.97	26256
824.11	26244
824.25	26039
824.389	26088
824.529	26358
824.669	26237
824.809	26347
824.949	26210
825.089	26202
825.228	26161
825.368	25906
825.508	25944
825.648	25997
825.787	26126
825.927	26050
826.067	25871
826.206	25951
826.346	26024
826.485	26134
826.625	26043
826.765	26161
826.904	26024
827.044	25765
827.183	25788
827.323	25727
827.462	25746
827.601	25738
827.741	25628
827.88	25818
828.02	25635
828.159	25658
828.298	25715
828.437	25791
828.577	25746
828.716	25849
828.855	25582
828.994	25540
829.134	25445
829.273	25434
829.412	25266
829.551	25540
829.69	25377
829.829	25377
829.968	25548
830.107	25605
830.246	25457
830.385	25430
830.524	25392
830.663	25183
830.802	25198
830.941	25080
831.08	24951
831.219	25110
831.357	25171
831.496	25129
831.635	25084
831.774	24890
831.913	24935
832.051	24806
832.19	24886
832.329	24825
832.467	24783
832.606	24623
832.744	24547
832.883	24650
833.022	24665
833.16	24779
833.299	24726
833.437	24806
833.576	24837
833.714	24753
833.852	24890
833.991	24825
834.129	24738
834.267	24833
834.406	24962
834.544	24932
834.682	24817
834.821	24798
834.959	24901
835.097	24753
835.235	24635
835.373	24856
835.511	24688
835.65	24669
835.788	24582
835.926	24395
836.064	24300
836.202	24334
836.34	24578
836.478	24810
836.615	24551
836.753	24479
836.891	24582
837.029	24608
837.167	24589
837.305	24540
837.443	24403
837.58	24494
837.718	24391
837.856	24475
837.993	24418
838.131	24308
838.269	24251
838.406	24254
838.544	24342
838.681	24064
838.819	24068
838.956	23901
839.094	23923
839.231	23920
839.369	24018
839.506	24216
839.643	24224
839.781	23908
839.918	23851
840.055	23863
840.193	23817
840.33	23737
840.467	23847
840.604	23828
840.742	23996
840.879	23691
841.016	23718
841.153	23840
841.29	23798
841.427	23824
841.564	23809
841.701	23745
841.838	23783
841.975	23748
842.112	23634
842.249	23672
842.385	23474
842.522	23695
842.659	23577
842.796	23535
842.933	23665
843.069	23543
843.206	23429
843.343	23665
843.479	23566
843.616	23497
843.752	23356
843.889	23429
844.025	23539
844.162	23235
844.298	23345
844.435	23265
844.571	23296
844.708	23258
844.844	23535
844.98	23512
845.117	23410
845.253	23277
845.389	23197
845.525	23208
845.661	23185
845.798	23094
845.934	23048
846.07	22908
846.206	22984
846.342	23136
846.478	22877
846.614	23014
846.75	22824
846.886	22763
847.022	22930
847.158	22793
847.294	22854
847.429	22809
847.565	22675
847.701	22938
847.837	22577
847.972	22523
848.108	22645
848.244	22622
848.379	22398
848.515	22367
848.65	22261
848.786	22394
848.921	22303
849.057	22535
849.192	22478
849.328	22466
849.463	22360
849.598	22382
849.734	22192
849.869	22276
850.004	22173
850.14	22074
850.275	22090
850.41	22025
850.545	22090
850.68	22158
850.815	22272
850.95	22101
851.085	22265
851.22	22150
851.355	22070
851.49	22048
851.625	22101
851.76	22173
851.895	22017
852.03	22051
852.165	22040
852.299	22211
852.434	22299
852.569	22120
852.703	22070
852.838	22124
852.973	22188
853.107	22230
853.242	22150
853.376	21994
853.511	21884
853.645	21903
853.78	22017
853.914	21964
854.048	21857
854.183	21869
854.317	21918
854.451	22177
854.585	21994
854.72	21956
854.854	22067
854.988	21736
855.122	21922
855.256	21759
855.39	21911
855.524	21903
855.658	21983
855.792	21884
855.926	21850
856.06	22029
856.194	21972
856.327	21911
856.461	21793
856.595	21922
856.729	21934
856.862	21934
856.996	22040
857.13	21956
857.263	22010
857.397	22120
857.53	21930
857.664	21838
857.797	22032
857.931	22029
858.064	22063
858.197	22101
858.331	21800
858.464	21854
858.597	21960
858.731	21991
858.864	21918
858.997	21797
859.13	21960
859.263	21949
859.396	22002
859.529	21949
859.662	21899
859.795	21922
859.928	21835
860.061	22150
860.194	22109
860.327	22086
860.46	21918
860.592	22021
860.725	22067
860.858	22090
860.99	21903
861.123	21873
861.256	21850
861.388	21869
861.521	22557
861.653	21774
861.786	21682
861.918	21747
862.05	21857
862.183	21873
862.315	21857
862.447	21949
862.58	21823
862.712	21625
862.844	21736
862.976	21720
863.108	21663
863.24	22010
863.372	21610
863.504	21675
863.636	21591
863.768	21728
863.9	21766
864.032	21492
864.164	21603
864.296	21583
864.428	21633
864.559	21720
864.691	21587
864.823	21679
864.954	21534
865.086	21477
865.217	21576
865.349	21507
865.48	21523
865.612	21485
865.743	21690
865.875	21572
866.006	21408
866.137	21526
866.269	21469
866.4	21580
866.531	21401
866.662	21329
866.793	21401
866.924	21481
867.055	21424
867.186	21447
867.317	21515
867.448	21458
867.579	21428
867.71	21241
867.841	21435
867.972	21321
868.103	21412
868.233	21549
868.364	21515
868.495	21530
868.625	21652
868.756	21701
868.886	21660
869.017	21682
869.147	21800
869.278	21759
869.408	21686
869.539	21591
869.669	21713
869.799	21614
869.929	21686
870.06	21823
870.19	22002
870.32	21968
870.45	21994
870.58	22025
870.71	22158
870.84	22181
870.97	22253
871.1	22070
871.23	22177
871.36	22322
871.489	22109
871.619	22207
871.749	22181
871.879	22268
872.008	22322
872.138	22223
872.267	22371
872.397	22207
872.526	22128
872.656	22093
872.785	22135
872.915	22322
873.044	22276
873.173	22348
873.303	22440
873.432	22432
873.561	22363
873.69	22299
873.819	22284
873.948	22348
874.077	22306
874.206	22253
874.335	22333
874.464	22325
874.593	22481
874.722	22462
874.851	22687
874.979	22546
875.108	22527
875.237	22500
875.365	22375
875.494	22592
875.623	22485
875.751	22470
875.88	22443
876.008	22596
876.136	22691
876.265	22820
876.393	22987
876.521	23029
876.65	22873
876.778	22938
876.906	22896
877.034	22831
877.162	22820
877.29	22767
877.418	22843
877.546	22854
877.674	22805
877.802	22812
877.93	22881
878.058	22748
878.185	22763
878.313	22797
878.441	22797
878.568	22717
878.696	22725
878.824	22858
878.951	22839
879.079	23060
879.206	23208
879.333	23025
879.461	22934
879.588	22873
879.715	22816
879.842	23147
879.97	22980
880.097	22615
880.224	22713
880.351	22660
880.478	22660
880.605	22672
880.732	22630
880.859	22759
880.986	22694
881.112	22740
881.239	22409
881.366	22405
881.493	22291
881.619	22219
881.746	22272
881.872	22185
881.999	22253
882.125	22196
882.252	22204
882.378	22253
882.505	22371
882.631	22150
882.757	21831
882.883	21994
883.01	21949
883.136	21899
883.262	21899
883.388	21717
883.514	21850
883.64	21819
883.766	21812
883.892	21652
884.018	21789
884.143	21865
884.269	21911
884.395	21553
884.52	21462
884.646	21511
884.772	21477
884.897	21431
885.023	21496
885.148	21641
885.274	21679
885.399	21728
885.524	21671
885.65	21564
885.775	21568
885.9	21557
886.025	21709
886.15	21656
886.275	21538
886.4	21397
886.525	21519
886.65	21504
886.775	21477
886.9	21599
887.025	21717
887.149	21507
887.274	21336
887.399	21351
887.523	21310
887.648	21192
887.773	21252
887.897	21374
888.021	21397
888.146	21116
888.27	21397
888.395	21367
888.519	21302
888.643	21348
888.767	21355
888.891	21192
889.015	21146
889.139	21104
889.263	21226
889.387	21245
889.511	21256
889.635	21351
889.759	21051
889.883	21017
890.006	21051
890.13	21218
890.254	21020
890.377	21028
890.501	20956
890.624	20762
890.748	20944
890.871	20739
890.995	20777
891.118	20720
891.241	20655
891.364	20674
891.488	20800
891.611	20689
891.734	20682
891.857	20724
891.98	20773
892.103	20693
892.226	20552
892.349	20659
892.471	20499
892.594	20571
892.717	20640
892.839	20541
892.962	20590
893.085	20560
893.207	20552
893.33	20499
893.452	20514
893.575	20606
893.697	20564
893.819	20708
893.941	20785
894.064	20724
894.186	20438
894.308	20412
894.43	20648
894.552	20598
894.674	20552
894.796	20549
894.918	20564
895.04	20427
895.161	20781
895.283	20552
895.405	20514
895.526	20655
895.648	20590
895.769	20552
895.891	20587
896.012	20541
896.134	20533
896.255	20492
896.376	20526
896.498	20564
896.619	20564
896.74	20537
896.861	20625
896.982	20876
897.103	20906
897.224	20823
897.345	20773
897.466	20640
897.587	20750
897.708	20872
897.828	20731
897.949	20667
898.07	20644
898.19	20750
898.311	20899
898.431	20758
898.552	20667
898.672	20811
898.792	20838
898.913	20682
899.033	20571
899.153	20560
899.273	20526
899.393	20511
899.513	20476
899.633	20446
899.753	20571
899.873	20495
899.993	20552
900.113	20396
900.232	20434
900.352	20393
900.472	20362
900.591	20210
900.711	20286
900.83	20206
900.95	20358
901.069	20339
901.189	20199
901.308	19959
901.427	19890
901.546	19841
901.665	19780
901.784	19894
901.904	19731
902.023	19613
902.141	19445
902.26	19358
902.379	19487
902.498	19377
902.617	19403
902.735	19529
902.854	19350
902.973	19171
903.091	19065
903.21	18985
903.328	19038
903.446	18871
903.565	18798
903.683	18840
903.801	18791
903.919	18726
904.038	18741
904.156	18635
904.274	18589
904.392	18490
904.51	18563
904.627	18650
904.745	18665
904.863	18646
904.981	18418
905.098	18216
905.216	18330
905.334	18319
905.451	18224
905.569	18296
905.686	18270
905.803	18285
905.921	17988
906.038	18140
906.155	17996
906.272	17939
906.389	17969
906.506	17859
906.623	17878
906.74	17733
906.857	17805
906.974	17710
907.091	17805
907.208	17935
907.324	17859
907.441	17691
907.557	17554
907.674	17611
907.79	17493
907.907	17604
908.023	17524
908.139	17482
908.256	17573
908.372	17383
908.488	17459
908.604	17341
908.72	17231
908.836	17254
908.952	17220
909.068	17246
909.184	17296
909.3	17258
909.415	17284
909.531	17159
909.647	16930
909.762	16915
909.878	16847
909.993	17018
910.108	16896
910.224	16908
910.339	16900
910.454	16820
910.57	16740
910.685	16607
910.8	16892
910.915	16900
911.03	16710
911.145	16577
911.259	16470
911.374	16443
911.489	16500
911.604	16348
911.718	16219
911.833	16341
911.947	16135
912.062	16124
912.176	16265
912.291	16215
912.405	16226
912.519	16432
912.633	16360
912.748	16242
912.862	16230
912.976	16063
913.09	15983
913.204	16013
913.318	16036
913.431	16112
913.545	16238
913.659	16169
913.772	16025
913.886	15762
914	15869
914.113	15823
914.226	15827
914.34	15945
914.453	15755
914.566	15857
914.68	15766
914.793	15751
914.906	15576
915.019	15412
915.132	15469
915.245	15496
915.358	15454
915.47	15530
915.583	15458
915.696	15439
915.809	15496
915.921	15542
916.034	15481
916.146	15439
916.259	15336
916.371	15500
916.483	15401
916.595	15249
916.708	15287
916.82	15260
916.932	15218
917.044	15237
917.156	15135
917.268	15020
917.38	15036
917.491	15142
917.603	15009
917.715	15097
917.826	15173
917.938	15013
918.049	14994
918.161	15024
918.272	15192
918.384	15222
918.495	15070
918.606	14902
918.717	14819
918.828	14853
918.939	14838
919.05	14716
919.161	14861
919.272	14674
919.383	14727
919.494	14914
919.604	15024
919.715	14861
919.826	14678
919.936	14716
920.047	14883
920.157	14838
920.267	15024
920.378	14785
920.488	14788
920.598	14952
920.708	15165
920.818	14887
920.928	14899
921.038	15123
921.148	15017
921.258	14701
921.368	14674
921.477	14488
921.587	14545
921.697	14381
921.806	14560
921.916	14351
922.025	14248
922.134	14145
922.244	14077
922.353	14130
922.462	13993
922.571	13967
922.68	13833
922.789	13795
922.898	13837
923.007	13791
923.116	13845
923.224	13784
923.333	13837
923.442	13689
923.55	13636
923.659	13655
923.767	13563
923.876	13567
923.984	13586
924.092	13548
924.201	13700
924.309	13506
924.417	13521
924.525	13441
924.633	13453
924.741	14206
924.849	13289
924.956	13403
925.064	13183
925.172	13179
925.279	13221
925.387	13236
925.494	13202
925.602	13362
925.709	13251
925.816	13160
925.924	13145
926.031	13289
926.138	13122
926.245	13240
926.352	13088
926.459	13175
926.566	13149
926.673	13076
926.779	12962
926.886	12989
926.993	12814
927.099	12810
927.206	12734
927.312	12612
927.419	12814
927.525	12684
927.631	12779
927.737	12623
927.843	12593
927.95	12441
928.056	12574
928.162	12635
928.267	12608
928.373	13175
928.479	12719
928.585	12388
928.69	12513
928.796	12623
928.901	12525
929.007	12338
929.112	12448
929.218	12422
929.323	12342
929.428	12239
929.533	12422
929.638	12258
929.743	12243
929.848	12251
929.953	12262
930.058	12171
930.163	12083
930.267	12026
930.372	12102
930.477	11969
930.581	12175
930.685	12003
930.79	11954
930.894	11851
930.998	11893
931.103	12007
931.207	11573
931.311	11573
931.415	11455
931.519	11201
931.623	11239
