Data from test_V78500241_1696.txt Node
Date: Fri Mar 25 15:21:40 CST 2022
User: usil
Spectrometer: V785-0024
Trigger mode: 0
Integration Time (sec): 4.000000E-1
Scans to average: 1
Nonlinearity correction enabled: false
Boxcar width: 0
Storing dark spectrum: false
XAxis mode: Wavelengths
Number of Pixels in Spectrum: 1024
>>>>>Begin Spectral Data<<<<<
801.071	28051
801.214	27941
801.356	27819
801.499	27595
801.641	27663
801.783	27641
801.926	27564
802.068	27439
802.211	27549
802.353	27374
802.496	27237
802.638	27142
802.78	27230
802.923	27112
803.065	27104
803.208	27085
803.35	27161
803.492	27306
803.635	27298
803.777	27249
803.919	27523
804.061	27720
804.204	27545
804.346	27351
804.488	27370
804.63	27397
804.773	27272
804.915	27443
805.057	27561
805.199	27492
805.341	27538
805.483	27625
805.626	27625
805.768	27386
805.91	27538
806.052	27606
806.194	27496
806.336	27717
806.478	27610
806.62	27587
806.762	27652
806.904	27808
807.046	28074
807.188	27949
807.33	27857
807.472	28109
807.614	27739
807.756	27926
807.898	27800
808.04	27789
808.182	27793
808.324	27831
808.465	27941
808.607	28059
808.749	28055
808.891	28219
809.033	28382
809.174	28093
809.316	28169
809.458	28344
809.6	28158
809.741	28265
809.883	28401
810.025	28470
810.166	28295
810.308	28440
810.45	28344
810.591	28352
810.733	28120
810.875	28181
811.016	28013
811.158	28067
811.299	28131
811.441	28291
811.582	28230
811.724	28181
811.865	28158
812.007	28154
812.148	28147
812.29	28284
812.431	28386
812.573	28478
812.714	28478
812.855	28702
812.997	28748
813.138	28885
813.279	28801
813.421	28740
813.562	28683
813.703	28634
813.845	28443
813.986	28154
814.127	28055
814.268	27785
814.41	27888
814.551	27964
814.692	28036
814.833	27816
814.974	27835
815.115	27907
815.256	27690
815.397	27751
815.539	27728
815.68	27648
815.821	27614
815.962	27663
816.103	27686
816.244	27500
816.385	27401
816.526	27454
816.666	27173
816.807	27100
816.948	27199
817.089	27230
817.23	27260
817.371	27340
817.512	27127
817.653	27093
817.793	27138
817.934	27180
818.075	27184
818.216	27203
818.356	27222
818.497	27127
818.638	26845
818.778	26952
818.919	26940
819.06	26933
819.2	27157
819.341	27138
819.481	27195
819.622	27355
819.762	27492
819.903	27462
820.043	27496
820.184	27344
820.324	27211
820.465	27401
820.605	27393
820.746	27165
820.886	27150
821.026	27291
821.167	27317
821.307	27230
821.447	27100
821.588	27150
821.728	27039
821.868	26796
822.008	26583
822.149	26651
822.289	26606
822.429	26339
822.569	26317
822.709	26492
822.849	26134
822.99	26161
823.13	26149
823.27	26202
823.41	25966
823.55	26046
823.69	25978
823.83	25932
823.97	26054
824.11	25712
824.25	25700
824.389	25837
824.529	25803
824.669	25704
824.809	25940
824.949	25890
825.089	25856
825.228	25898
825.368	25795
825.508	25582
825.648	25662
825.787	25731
825.927	25753
826.067	25620
826.206	25647
826.346	25715
826.485	25704
826.625	25651
826.765	25856
826.904	25772
827.044	25441
827.183	25407
827.323	25392
827.462	25483
827.601	25426
827.741	25304
827.88	25426
828.02	25236
828.159	25407
828.298	25354
828.437	25460
828.577	25365
828.716	25403
828.855	25278
828.994	25072
829.134	25152
829.273	24981
829.412	25225
829.551	24985
829.69	25076
829.829	25232
829.968	25247
830.107	25122
830.246	25065
830.385	25069
830.524	24916
830.663	24875
830.802	24745
830.941	24760
831.08	24593
831.219	24844
831.357	24916
831.496	24958
831.635	24791
831.774	24604
831.913	24513
832.051	24536
832.19	24536
832.329	24589
832.467	24467
832.606	24448
832.744	24300
832.883	24418
833.022	24494
833.16	24395
833.299	24361
833.437	24502
833.576	24509
833.714	24414
833.852	24570
833.991	24555
834.129	24601
834.267	24498
834.406	24452
834.544	24551
834.682	24566
834.821	24486
834.959	24601
835.097	24426
835.235	24525
835.373	24479
835.511	24513
835.65	24308
835.788	24403
835.926	24186
836.064	24152
836.202	24270
836.34	24319
836.478	24525
836.615	24380
836.753	24292
836.891	24403
837.029	24281
837.167	24224
837.305	24228
837.443	24144
837.58	24114
837.718	24190
837.856	24304
837.993	24087
838.131	24030
838.269	23923
838.406	24197
838.544	23897
838.681	23863
838.819	23767
838.956	23676
839.094	23444
839.231	23592
839.369	23764
839.506	23973
839.643	23908
839.781	23562
839.918	23554
840.055	23630
840.193	23512
840.33	23535
840.467	23604
840.604	23501
840.742	23794
840.879	23455
841.016	23372
841.153	23501
841.29	23611
841.427	23596
841.564	23436
841.701	23482
841.838	23501
841.975	23395
842.112	23505
842.249	23398
842.385	23254
842.522	23467
842.659	23208
842.796	23208
842.933	23406
843.069	23273
843.206	23235
843.343	23330
843.479	23151
843.616	23231
843.752	22968
843.889	23052
844.025	23204
844.162	23060
844.298	23189
844.435	22980
844.571	23033
844.708	23105
844.844	23132
844.98	23231
845.117	23170
845.253	23052
845.389	22839
845.525	22881
845.661	22965
845.798	22691
845.934	22930
846.07	22828
846.206	22831
846.342	22957
846.478	22759
846.614	22565
846.75	22314
846.886	22527
847.022	22622
847.158	22649
847.294	22470
847.429	22554
847.565	22432
847.701	22786
847.837	22257
847.972	22204
848.108	22390
848.244	22386
848.379	22166
848.515	22147
848.65	22021
848.786	22158
848.921	22181
849.057	22329
849.192	22261
849.328	22181
849.463	22036
849.598	22112
849.734	21994
849.869	21949
850.004	21915
850.14	21842
850.275	21880
850.41	21751
850.545	21911
850.68	21743
850.815	21823
850.95	21892
851.085	22055
851.22	22040
851.355	21827
851.49	21759
851.625	21785
851.76	21789
851.895	21762
852.03	21739
852.165	21804
852.299	21926
852.434	22051
852.569	21964
852.703	21934
852.838	21873
852.973	22029
853.107	22109
853.242	21880
853.376	21819
853.511	21580
853.645	21686
853.78	21675
853.914	21580
854.048	21686
854.183	21694
854.317	21804
854.451	21918
854.585	21576
854.72	21728
854.854	21766
854.988	21694
855.122	21785
855.256	21545
855.39	21698
855.524	21629
855.658	21808
855.792	21663
855.926	21667
856.06	21690
856.194	21557
856.327	21694
856.461	21698
856.595	21644
856.729	21679
856.862	21808
856.996	21762
857.13	21774
857.263	21800
857.397	21789
857.53	21732
857.664	21766
857.797	21774
857.931	21808
858.064	21625
858.197	21778
858.331	21690
858.464	21667
858.597	21641
858.731	21720
858.864	21595
858.997	21679
859.13	21705
859.263	21686
859.396	21804
859.529	21538
859.662	21698
859.795	21663
859.928	21618
860.061	21781
860.194	21861
860.327	21770
860.46	21778
860.592	21876
860.725	21759
860.858	21838
860.99	21797
861.123	21671
861.256	21599
861.388	21705
861.521	22318
861.653	21500
861.786	21488
861.918	21458
862.05	21599
862.183	21641
862.315	21587
862.447	21618
862.58	21523
862.712	21336
862.844	21473
862.976	21447
863.108	21412
863.24	21633
863.372	21435
863.504	21283
863.636	21340
863.768	21473
863.9	21367
864.032	21287
864.164	21348
864.296	21447
864.428	21534
864.559	21466
864.691	21386
864.823	21332
864.954	21256
865.086	21329
865.217	21287
865.349	21192
865.48	21325
865.612	21329
865.743	21344
865.875	21272
866.006	21397
866.137	21355
866.269	21481
866.4	21264
866.531	21256
866.662	21207
866.793	21344
866.924	21287
867.055	21230
867.186	21264
867.317	21222
867.448	21096
867.579	21218
867.71	21116
867.841	21131
867.972	21203
868.103	21161
868.233	21230
868.364	21241
868.495	21344
868.625	21329
868.756	21534
868.886	21355
869.017	21389
869.147	21564
869.278	21644
869.408	21545
869.539	21405
869.669	21564
869.799	21507
869.929	21504
870.06	21614
870.19	21709
870.32	21709
870.45	21812
870.58	21903
870.71	21983
870.84	22017
870.97	21770
871.1	21812
871.23	22044
871.36	22029
871.489	21972
871.619	21964
871.749	21991
871.879	22044
872.008	22188
872.138	22040
872.267	21998
872.397	21861
872.526	21759
872.656	21903
872.785	21926
872.915	22082
873.044	22238
873.173	21983
873.303	22097
873.432	22143
873.561	22154
873.69	22093
873.819	22006
873.948	22150
874.077	22120
874.206	22059
874.335	22006
874.464	22204
874.593	22314
874.722	22314
874.851	22268
874.979	22322
875.108	22272
875.237	22314
875.365	22204
875.494	22246
875.623	22249
875.751	22257
875.88	22253
876.008	22348
876.136	22405
876.265	22634
876.393	22862
876.521	22744
876.65	22801
876.778	22744
876.906	22618
877.034	22573
877.162	22683
877.29	22466
877.418	22611
877.546	22702
877.674	22626
877.802	22584
877.93	22561
878.058	22660
878.185	22584
878.313	22542
878.441	22596
878.568	22512
878.696	22554
878.824	22531
878.951	22763
879.079	22752
879.206	22881
879.333	22733
879.461	22634
879.588	22755
879.715	22930
879.842	22843
879.97	22649
880.097	22504
880.224	22405
880.351	22485
880.478	22508
880.605	22329
880.732	22390
880.859	22611
880.986	22462
881.112	22466
881.239	22299
881.366	22219
881.493	22128
881.619	22097
881.746	22101
881.872	21953
881.999	22013
882.125	21983
882.252	22109
882.378	21994
882.505	22048
882.631	21869
882.757	21812
882.883	21816
883.01	21660
883.136	21694
883.262	21629
883.388	21583
883.514	21774
883.64	21724
883.766	21690
883.892	21439
884.018	21443
884.143	21568
884.269	21641
884.395	21439
884.52	21332
884.646	21359
884.772	21458
884.897	21199
885.023	21405
885.148	21428
885.274	21519
885.399	21473
885.524	21393
885.65	21363
885.775	21378
885.9	21408
886.025	21420
886.15	21450
886.275	21313
886.4	21207
886.525	21192
886.65	21272
886.775	21291
886.9	21363
887.025	21534
887.149	21287
887.274	21180
887.399	21165
887.523	21176
887.648	21093
887.773	21028
887.897	21184
888.021	21184
888.146	21085
888.27	21359
888.395	21291
888.519	21062
888.643	21272
888.767	21055
888.891	21055
889.015	20914
889.139	21028
889.263	20975
889.387	21104
889.511	21116
889.635	21051
889.759	20906
889.883	20891
890.006	20937
890.13	21005
890.254	20819
890.377	20902
890.501	20659
890.624	20583
890.748	20781
890.871	20495
890.995	20465
891.118	20355
891.241	20495
891.364	20583
891.488	20537
891.611	20503
891.734	20503
891.857	20537
891.98	20499
892.103	20389
892.226	20389
892.349	20313
892.471	20320
892.594	20431
892.717	20400
892.839	20347
892.962	20438
893.085	20431
893.207	20309
893.33	20210
893.452	20290
893.575	20396
893.697	20351
893.819	20476
893.941	20613
894.064	20495
894.186	20320
894.308	20328
894.43	20484
894.552	20594
894.674	20415
894.796	20263
894.918	20446
895.04	20298
895.161	20526
895.283	20404
895.405	20324
895.526	20393
895.648	20434
895.769	20324
895.891	20362
896.012	20339
896.134	20465
896.255	20408
896.376	20328
896.498	20336
896.619	20328
896.74	20396
896.861	20389
896.982	20697
897.103	20830
897.224	20587
897.345	20552
897.466	20454
897.587	20575
897.708	20659
897.828	20727
897.949	20545
898.07	20552
898.19	20465
898.311	20617
898.431	20583
898.552	20556
898.672	20617
898.792	20670
898.913	20606
899.033	20415
899.153	20317
899.273	20313
899.393	20355
899.513	20355
899.633	20290
899.753	20336
899.873	20282
899.993	20351
900.113	20248
900.232	20282
900.352	20195
900.472	20202
900.591	20062
900.711	20164
900.83	19967
900.95	20282
901.069	20130
901.189	19913
901.308	19750
901.427	19731
901.546	19723
901.665	19742
901.784	19643
901.904	19495
902.023	19369
902.141	19266
902.26	19263
902.379	19247
902.498	19107
902.617	19228
902.735	19175
902.854	19221
902.973	19072
903.091	18859
903.21	18856
903.328	18795
903.446	18772
903.565	18715
903.683	18620
903.801	18551
903.919	18677
904.038	18627
904.156	18445
904.274	18422
904.392	18414
904.51	18330
904.627	18422
904.745	18456
904.863	18429
904.981	18213
905.098	18095
905.216	18064
905.334	18114
905.451	18110
905.569	17980
905.686	18136
905.803	18045
905.921	17954
906.038	17916
906.155	17866
906.272	17813
906.389	17802
906.506	17684
906.623	17634
906.74	17608
906.857	17532
906.974	17501
907.091	17668
907.208	17661
907.324	17752
907.441	17528
907.557	17417
907.674	17311
907.79	17364
907.907	17296
908.023	17341
908.139	17315
908.256	17341
908.372	17193
908.488	17204
908.604	17086
908.72	17170
908.836	17045
908.952	17075
909.068	17102
909.184	17155
909.3	17056
909.415	17197
909.531	17075
909.647	16767
909.762	16733
909.878	16820
909.993	16748
910.108	16736
910.224	16694
910.339	16660
910.454	16611
910.57	16611
910.685	16512
910.8	16797
910.915	16748
911.03	16607
911.145	16390
911.259	16337
911.374	16348
911.489	16215
911.604	16253
911.718	16185
911.833	16105
911.947	16029
912.062	15979
912.176	16078
912.291	16032
912.405	16116
912.519	16181
912.633	16276
912.748	16082
912.862	16101
912.976	15869
913.09	15766
913.204	15831
913.318	15930
913.431	16086
913.545	15960
913.659	16010
913.772	15854
913.886	15838
914	15736
914.113	15865
914.226	15728
914.34	15793
914.453	15625
914.566	15778
914.68	15698
914.793	15580
914.906	15447
915.019	15389
915.132	15272
915.245	15340
915.358	15275
915.47	15355
915.583	15241
915.696	15348
915.809	15408
915.921	15488
916.034	15222
916.146	15260
916.259	15108
916.371	15287
916.483	15195
916.595	15119
916.708	15112
916.82	15135
916.932	15192
917.044	15176
917.156	15097
917.268	14990
917.38	14918
917.491	14910
917.603	14960
917.715	15097
917.826	15009
917.938	14937
918.049	14800
918.161	14842
918.272	15081
918.384	14975
918.495	14845
918.606	14727
918.717	14716
918.828	14712
918.939	14796
919.05	14674
919.161	14636
919.272	14530
919.383	14598
919.494	14746
919.604	14925
919.715	14674
919.826	14552
919.936	14640
920.047	14663
920.157	14674
920.267	14838
920.378	14686
920.488	14724
920.598	14906
920.708	15013
920.818	14670
920.928	14876
921.038	14891
921.148	14765
921.258	14632
921.368	14526
921.477	14381
921.587	14332
921.697	14313
921.806	14343
921.916	14233
922.025	14130
922.134	13959
922.244	13955
922.353	13978
922.462	13890
922.571	13860
922.68	13715
922.789	13658
922.898	13704
923.007	13685
923.116	13647
923.224	13632
923.333	13628
923.442	13594
923.55	13438
923.659	13548
923.767	13590
923.876	13392
923.984	13636
924.092	13476
924.201	13510
924.309	13373
924.417	13304
924.525	13365
924.633	13373
924.741	14187
924.849	13103
924.956	13278
925.064	13152
925.172	13069
925.279	13110
925.387	13171
925.494	13053
925.602	13236
925.709	13084
925.816	12878
925.924	13027
926.031	13103
926.138	13069
926.245	12981
926.352	12916
926.459	13061
926.566	13084
926.673	12939
926.779	12817
926.886	12768
926.993	12730
927.099	12715
927.206	12692
927.312	12608
927.419	12681
927.525	12574
927.631	12642
927.737	12608
927.843	12490
927.95	12433
928.056	12464
928.162	12437
928.267	12536
928.373	12996
928.479	12547
928.585	12300
928.69	12464
928.796	12437
928.901	12357
929.007	12224
929.112	12380
929.218	12315
929.323	12178
929.428	12213
929.533	12285
929.638	12049
929.743	12148
929.848	12110
929.953	12194
930.058	12022
930.163	11832
930.267	11969
930.372	11935
930.477	11847
930.581	12019
930.685	11939
930.79	11714
930.894	11729
930.998	11767
931.103	11840
931.207	11520
931.311	11414
931.415	11391
931.519	11212
931.623	11128
