Data from test_V78500241_2327.txt Node
Date: Fri Mar 25 15:26:03 CST 2022
User: usil
Spectrometer: V785-0024
Trigger mode: 0
Integration Time (sec): 4.000000E-1
Scans to average: 1
Nonlinearity correction enabled: false
Boxcar width: 0
Storing dark spectrum: false
XAxis mode: Wavelengths
Number of Pixels in Spectrum: 1024
>>>>>Begin Spectral Data<<<<<
801.071	27622
801.214	27462
801.356	27230
801.499	27165
801.641	26960
801.783	27081
801.926	26895
802.068	27142
802.211	27070
802.353	26902
802.496	26686
802.638	26670
802.78	26602
802.923	26579
803.065	26560
803.208	26594
803.35	26609
803.492	26838
803.635	26902
803.777	26724
803.919	26979
804.061	27264
804.204	26815
804.346	26899
804.488	26887
804.63	26891
804.773	26693
804.915	26963
805.057	26937
805.199	26750
805.341	26918
805.483	26967
805.626	26948
805.768	26830
805.91	26872
806.052	27009
806.194	26929
806.336	27039
806.478	26948
806.62	26902
806.762	27123
806.904	27249
807.046	27485
807.188	27351
807.33	27420
807.472	27564
807.614	27378
807.756	27416
807.898	27222
808.04	27085
808.182	27268
808.324	27279
808.465	27298
808.607	27477
808.749	27629
808.891	27576
809.033	27648
809.174	27698
809.316	27561
809.458	27652
809.6	27648
809.741	27595
809.883	27747
810.025	27804
810.166	27854
810.308	27705
810.45	27846
810.591	27667
810.733	27724
810.875	27576
811.016	27450
811.158	27408
811.299	27519
811.441	27660
811.582	27656
811.724	27427
811.865	27420
812.007	27561
812.148	27538
812.29	27568
812.431	27762
812.573	27869
812.714	27918
812.855	28051
812.997	28044
813.138	28325
813.279	28185
813.421	28048
813.562	28048
813.703	27869
813.845	27720
813.986	27576
814.127	27374
814.268	27237
814.41	27218
814.551	27169
814.692	27287
814.833	27260
814.974	27161
815.115	27173
815.256	27180
815.397	27203
815.539	27039
815.68	26906
815.821	26910
815.962	27070
816.103	26998
816.244	26971
816.385	26960
816.526	26762
816.666	26552
816.807	26396
816.948	26594
817.089	26602
817.23	26453
817.371	26412
817.512	26461
817.653	26541
817.793	26446
817.934	26484
818.075	26511
818.216	26514
818.356	26469
818.497	26385
818.638	26050
818.778	26214
818.919	26271
819.06	26347
819.2	26469
819.341	26476
819.481	26488
819.622	26571
819.762	26830
819.903	26720
820.043	26678
820.184	26602
820.324	26533
820.465	26617
820.605	26514
820.746	26693
820.886	26438
821.026	26499
821.167	26389
821.307	26499
821.447	26453
821.588	26492
821.728	26294
821.868	26225
822.008	25890
822.149	26016
822.289	25940
822.429	25635
822.569	25677
822.709	25643
822.849	25487
822.99	25510
823.13	25422
823.27	25464
823.41	25285
823.55	25270
823.69	25434
823.83	25221
823.97	25190
824.11	25103
824.25	25065
824.389	25107
824.529	25198
824.669	25107
824.809	25164
824.949	25221
825.089	25236
825.228	25076
825.368	24924
825.508	25061
825.648	25069
825.787	24981
825.927	24901
826.067	24779
826.206	24947
826.346	25038
826.485	24985
826.625	24844
826.765	25038
826.904	25061
827.044	24745
827.183	24772
827.323	24608
827.462	24749
827.601	24726
827.741	24620
827.88	24673
828.02	24547
828.159	24741
828.298	24646
828.437	24817
828.577	24525
828.716	24844
828.855	24589
828.994	24464
829.134	24342
829.273	24361
829.412	24414
829.551	24407
829.69	24403
829.829	24403
829.968	24551
830.107	24414
830.246	24308
830.385	24270
830.524	24251
830.663	24243
830.802	24053
830.941	23980
831.08	23927
831.219	24121
831.357	24011
831.496	24194
831.635	24083
831.774	23954
831.913	23874
832.051	23843
832.19	23771
832.329	23790
832.467	23653
832.606	23570
832.744	23592
832.883	23528
833.022	23649
833.16	23665
833.299	23722
833.437	23805
833.576	23855
833.714	23695
833.852	23779
833.991	23767
834.129	23855
834.267	23767
834.406	23737
834.544	23722
834.682	23726
834.821	23760
834.959	23760
835.097	23726
835.235	23649
835.373	23783
835.511	23649
835.65	23516
835.788	23490
835.926	23360
836.064	23512
836.202	23440
836.34	23395
836.478	23585
836.615	23448
836.753	23570
836.891	23581
837.029	23554
837.167	23459
837.305	23528
837.443	23410
837.58	23368
837.718	23623
837.856	23455
837.993	23330
838.131	23376
838.269	23318
838.406	23334
838.544	23136
838.681	23060
838.819	23064
838.956	22961
839.094	22869
839.231	22850
839.369	23048
839.506	23303
839.643	23052
839.781	22850
839.918	22752
840.055	22816
840.193	22755
840.33	22736
840.467	22889
840.604	22725
840.742	23033
840.879	22634
841.016	22759
841.153	22603
841.29	22908
841.427	22717
841.564	22946
841.701	22812
841.838	22759
841.975	22698
842.112	22706
842.249	22550
842.385	22584
842.522	22828
842.659	22573
842.796	22478
842.933	22599
843.069	22557
843.206	22561
843.343	22649
843.479	22493
843.616	22535
843.752	22295
843.889	22367
844.025	22500
844.162	22306
844.298	22318
844.435	22363
844.571	22272
844.708	22363
844.844	22497
844.98	22405
845.117	22519
845.253	22287
845.389	22090
845.525	22196
845.661	22230
845.798	21998
845.934	21949
846.07	22029
846.206	22032
846.342	22116
846.478	22013
846.614	21861
846.75	21922
846.886	21808
847.022	21827
847.158	21903
847.294	21778
847.429	21808
847.565	21778
847.701	21956
847.837	21564
847.972	21447
848.108	21519
848.244	21561
848.379	21481
848.515	21374
848.65	21367
848.786	21443
848.921	21401
849.057	21416
849.192	21511
849.328	21561
849.463	21393
849.598	21405
849.734	21283
849.869	21272
850.004	21157
850.14	21173
850.275	21184
850.41	21108
850.545	21032
850.68	21173
850.815	21222
850.95	21203
851.085	21435
851.22	21279
851.355	21138
851.49	21176
851.625	21161
851.76	21116
851.895	21005
852.03	21032
852.165	21074
852.299	21131
852.434	21096
852.569	21142
852.703	21001
852.838	21176
852.973	21249
853.107	21256
853.242	21146
853.376	21051
853.511	20800
853.645	20906
853.78	21032
853.914	20979
854.048	20994
854.183	20929
854.317	21017
854.451	21150
854.585	21051
854.72	20941
854.854	21036
854.988	20941
855.122	21009
855.256	20941
855.39	20952
855.524	21036
855.658	20963
855.792	21017
855.926	21013
856.06	21074
856.194	21036
856.327	21009
856.461	21062
856.595	20952
856.729	20960
856.862	21093
856.996	20895
857.13	21028
857.263	21081
857.397	21070
857.53	21024
857.664	21017
857.797	21036
857.931	21058
858.064	21017
858.197	21039
858.331	20921
858.464	20880
858.597	20792
858.731	20956
858.864	20952
858.997	20834
859.13	20925
859.263	20952
859.396	21043
859.529	20872
859.662	20998
859.795	20891
859.928	21104
860.061	21070
860.194	21203
860.327	20952
860.46	20979
860.592	21005
860.725	21222
860.858	21108
860.99	20941
861.123	20929
861.256	21009
861.388	20967
861.521	21663
861.653	20800
861.786	20845
861.918	20735
862.05	20952
862.183	20921
862.315	20819
862.447	20956
862.58	20815
862.712	20727
862.844	20583
862.976	20689
863.108	20716
863.24	21192
863.372	20648
863.504	20602
863.636	20720
863.768	20800
863.9	20629
864.032	20663
864.164	20579
864.296	20765
864.428	20720
864.559	20746
864.691	20804
864.823	20629
864.954	20697
865.086	20743
865.217	20606
865.349	20545
865.48	20583
865.612	20583
865.743	20724
865.875	20606
866.006	20606
866.137	20473
866.269	20667
866.4	20530
866.531	20492
866.662	20419
866.793	20511
866.924	20583
867.055	20514
867.186	20530
867.317	20507
867.448	20541
867.579	20579
867.71	20450
867.841	20473
867.972	20526
868.103	20655
868.233	20560
868.364	20545
868.495	20549
868.625	20781
868.756	20891
868.886	20735
869.017	20823
869.147	20876
869.278	20895
869.408	20785
869.539	20712
869.669	20842
869.799	20834
869.929	20921
870.06	20914
870.19	21112
870.32	20982
870.45	21131
870.58	21188
870.71	21268
870.84	21203
870.97	21032
871.1	21192
871.23	21447
871.36	21416
871.489	21378
871.619	21249
871.749	21439
871.879	21412
872.008	21393
872.138	21279
872.267	21439
872.397	21306
872.526	21081
872.656	21199
872.785	21184
872.915	21294
873.044	21526
873.173	21332
873.303	21530
873.432	21439
873.561	21454
873.69	21526
873.819	21492
873.948	21458
874.077	21416
874.206	21310
874.335	21382
874.464	21405
874.593	21606
874.722	21587
874.851	21576
874.979	21622
875.108	21641
875.237	21660
875.365	21488
875.494	21614
875.623	21618
875.751	21583
875.88	21656
876.008	21698
876.136	21751
876.265	21907
876.393	22124
876.521	22090
876.65	22090
876.778	22070
876.906	21979
877.034	21941
877.162	22097
877.29	21816
877.418	21968
877.546	22051
877.674	22029
877.802	22025
877.93	21941
878.058	22082
878.185	21816
878.313	21759
878.441	21918
878.568	21709
878.696	21880
878.824	21968
878.951	22048
879.079	22150
879.206	22325
879.333	22139
879.461	21888
879.588	22082
879.715	22166
879.842	22147
879.97	22032
880.097	21770
880.224	21789
880.351	21747
880.478	21800
880.605	21743
880.732	21930
880.859	22002
880.986	21800
881.112	21800
881.239	21686
881.366	21515
881.493	21492
881.619	21363
881.746	21302
881.872	21393
881.999	21233
882.125	21252
882.252	21443
882.378	21275
882.505	21374
882.631	21226
882.757	20902
882.883	21222
883.01	20963
883.136	20963
883.262	20998
883.388	20937
883.514	21024
883.64	21051
883.766	20929
883.892	20796
884.018	20895
884.143	21028
884.269	21138
884.395	20781
884.52	20777
884.646	20754
884.772	20636
884.897	20579
885.023	20659
885.148	20758
885.274	20864
885.399	20682
885.524	20674
885.65	20697
885.775	20746
885.9	20804
886.025	20800
886.15	20842
886.275	20727
886.4	20720
886.525	20617
886.65	20625
886.775	20663
886.9	20849
887.025	21013
887.149	20571
887.274	20530
887.399	20461
887.523	20488
887.648	20423
887.773	20336
887.897	20461
888.021	20492
888.146	20434
888.27	20514
888.395	20587
888.519	20492
888.643	20514
888.767	20511
888.891	20351
889.015	20210
889.139	20385
889.263	20290
889.387	20362
889.511	20609
889.635	20377
889.759	20252
889.883	20339
890.006	20259
890.13	20252
890.254	20237
890.377	20233
890.501	20001
890.624	20077
890.748	20050
890.871	20100
890.995	19849
891.118	19776
891.241	19913
891.364	19803
891.488	20054
891.611	19890
891.734	19860
891.857	19803
891.98	19887
892.103	19955
892.226	19830
892.349	19807
892.471	19620
892.594	19742
892.717	19833
892.839	19731
892.962	19856
893.085	19837
893.207	19769
893.33	19769
893.452	19662
893.575	19791
893.697	19712
893.819	19887
893.941	19959
894.064	19932
894.186	19719
894.308	19632
894.43	19852
894.552	19826
894.674	19936
894.796	19662
894.918	19879
895.04	19708
895.161	19871
895.283	19765
895.405	19670
895.526	19830
895.648	19708
895.769	19757
895.891	19803
896.012	19959
896.134	19845
896.255	19769
896.376	19708
896.498	19677
896.619	19818
896.74	19845
896.861	19803
896.982	20103
897.103	20172
897.224	20031
897.345	19944
897.466	19940
897.587	20024
897.708	20016
897.828	20119
897.949	19925
898.07	19917
898.19	19921
898.311	20084
898.431	19909
898.552	20008
898.672	20073
898.792	20084
898.913	20005
899.033	19864
899.153	19727
899.273	19681
899.393	19727
899.513	19822
899.633	19826
899.753	19909
899.873	19826
899.993	19750
900.113	19689
900.232	19761
900.352	19715
900.472	19662
900.591	19571
900.711	19525
900.83	19419
900.95	19525
901.069	19715
901.189	19441
901.308	19202
901.427	19141
901.546	19076
901.665	19091
901.784	19247
901.904	19019
902.023	18947
902.141	18791
902.26	18677
902.379	18814
902.498	18631
902.617	18639
902.735	18661
902.854	18582
902.973	18441
903.091	18452
903.21	18190
903.328	18334
903.446	18251
903.565	18220
903.683	18228
903.801	17946
903.919	18057
904.038	18095
904.156	17999
904.274	18110
904.392	17878
904.51	17920
904.627	17916
904.745	17939
904.863	17874
904.981	17638
905.098	17558
905.216	17661
905.334	17687
905.451	17562
905.569	17653
905.686	17558
905.803	17493
905.921	17364
906.038	17455
906.155	17433
906.272	17204
906.389	17277
906.506	17132
906.623	17166
906.74	17159
906.857	17014
906.974	17006
907.091	17140
907.208	17185
907.324	17071
907.441	16984
907.557	16889
907.674	16896
907.79	16740
907.907	16801
908.023	16873
908.139	16812
908.256	16843
908.372	16744
908.488	16713
908.604	16599
908.72	16466
908.836	16508
908.952	16538
909.068	16645
909.184	16660
909.3	16508
909.415	16535
909.531	16546
909.647	16291
909.762	16253
909.878	16166
909.993	16303
910.108	16242
910.224	16207
910.339	16196
910.454	16192
910.57	16032
910.685	16044
910.8	16230
910.915	16230
911.03	16051
911.145	15854
911.259	15892
911.374	15876
911.489	15762
911.604	15751
911.718	15732
911.833	15595
911.947	15488
912.062	15462
912.176	15599
912.291	15519
912.405	15629
912.519	15778
912.633	15793
912.748	15675
912.862	15496
912.976	15382
913.09	15359
913.204	15416
913.318	15485
913.431	15561
913.545	15458
913.659	15534
913.772	15348
913.886	15207
914	15184
914.113	15260
914.226	15428
914.34	15241
914.453	15104
914.566	15226
914.68	15146
914.793	15058
914.906	15036
915.019	14811
915.132	14670
915.245	14823
915.358	14823
915.47	14887
915.583	14731
915.696	14815
915.809	14921
915.921	14952
916.034	14792
916.146	14758
916.259	14792
916.371	14746
916.483	14861
916.595	14663
916.708	14655
916.82	14655
916.932	14556
917.044	14617
917.156	14602
917.268	14476
917.38	14526
917.491	14495
917.603	14438
917.715	14480
917.826	14560
917.938	14454
918.049	14374
918.161	14446
918.272	14659
918.384	14549
918.495	14446
918.606	14221
918.717	14278
918.828	14233
918.939	14180
919.05	14221
919.161	14290
919.272	14081
919.383	14088
919.494	14210
919.604	14499
919.715	14301
919.826	14180
919.936	14195
920.047	14271
920.157	14172
920.267	14374
920.378	14244
920.488	14183
920.598	14476
920.708	14533
920.818	14301
920.928	14328
921.038	14400
921.148	14476
921.258	14172
921.368	14183
921.477	14016
921.587	14005
921.697	13932
921.806	14035
921.916	13746
922.025	13693
922.134	13616
922.244	13556
922.353	13655
922.462	13464
922.571	13339
922.68	13236
922.789	13297
922.898	13335
923.007	13141
923.116	13324
923.224	13263
923.333	13285
923.442	13103
923.55	13107
923.659	13072
923.767	13251
923.876	12947
923.984	13110
924.092	13000
924.201	13042
924.309	13038
924.417	13008
924.525	12924
924.633	12954
924.741	13909
924.849	12738
924.956	12901
925.064	12646
925.172	12547
925.279	12715
925.387	12692
925.494	12673
925.602	12783
925.709	12741
925.816	12650
925.924	12623
926.031	12650
926.138	12589
926.245	12688
926.352	12585
926.459	12627
926.566	12817
926.673	12525
926.779	12429
926.886	12494
926.993	12239
927.099	12346
927.206	12159
927.312	12224
927.419	12369
927.525	12262
927.631	12327
927.737	12209
927.843	12129
927.95	12057
928.056	12045
928.162	12133
928.267	12064
928.373	12582
928.479	12224
928.585	11897
928.69	11908
928.796	12057
928.901	12011
929.007	11855
929.112	12019
929.218	11920
929.323	11840
929.428	11821
929.533	11901
929.638	11802
929.743	11783
929.848	11843
929.953	11752
930.058	11722
930.163	11551
930.267	11562
930.372	11634
930.477	11448
930.581	11710
930.685	11642
930.79	11421
930.894	11478
930.998	11410
931.103	11455
931.207	11254
931.311	11056
931.415	10953
931.519	10812
931.623	10774
