Data from test_V78500241_588.txt Node
Date: Fri Mar 25 15:13:57 CST 2022
User: usil
Spectrometer: V785-0024
Trigger mode: 0
Integration Time (sec): 4.000000E-1
Scans to average: 1
Nonlinearity correction enabled: false
Boxcar width: 0
Storing dark spectrum: false
XAxis mode: Wavelengths
Number of Pixels in Spectrum: 1024
>>>>>Begin Spectral Data<<<<<
801.071	27283
801.214	27245
801.356	26998
801.499	27039
801.641	26891
801.783	26982
801.926	27017
802.068	26925
802.211	26921
802.353	26807
802.496	26651
802.638	26503
802.78	26503
802.923	26404
803.065	26453
803.208	26575
803.35	26571
803.492	26644
803.635	26716
803.777	26587
803.919	26598
804.061	26880
804.204	26667
804.346	26670
804.488	26617
804.63	26571
804.773	26473
804.915	26720
805.057	26682
805.199	26598
805.341	26998
805.483	26777
805.626	26807
805.768	26731
805.91	26712
806.052	26800
806.194	26659
806.336	27070
806.478	26872
806.62	26838
806.762	26899
806.904	27013
807.046	27412
807.188	27275
807.33	27211
807.472	27325
807.614	27062
807.756	27211
807.898	27173
808.04	27150
808.182	26883
808.324	27089
808.465	27043
808.607	27275
808.749	27370
808.891	27329
809.033	27488
809.174	27542
809.316	27481
809.458	27359
809.6	27393
809.741	27572
809.883	27660
810.025	27648
810.166	27770
810.308	27682
810.45	27625
810.591	27812
810.733	27561
810.875	27306
811.016	27332
811.158	27329
811.299	27367
811.441	27614
811.582	27568
811.724	27264
811.865	27340
812.007	27447
812.148	27393
812.29	27485
812.431	27690
812.573	27766
812.714	27846
812.855	27930
812.997	28093
813.138	28139
813.279	28188
813.421	28055
813.562	28116
813.703	27812
813.845	27580
813.986	27268
814.127	27447
814.268	27199
814.41	27081
814.551	27009
814.692	27321
814.833	26971
814.974	27013
815.115	27112
815.256	27051
815.397	26895
815.539	27047
815.68	26834
815.821	26880
815.962	26857
816.103	26853
816.244	26663
816.385	26636
816.526	26754
816.666	26492
816.807	26305
816.948	26377
817.089	26568
817.23	26541
817.371	26457
817.512	26389
817.653	26400
817.793	26400
817.934	26499
818.075	26400
818.216	26412
818.356	26305
818.497	26278
818.638	26084
818.778	26119
818.919	26012
819.06	26225
819.2	26336
819.341	26438
819.481	26343
819.622	26564
819.762	26689
819.903	26629
820.043	26716
820.184	26533
820.324	26423
820.465	26415
820.605	26332
820.746	26541
820.886	26396
821.026	26541
821.167	26564
821.307	26442
821.447	26431
821.588	26385
821.728	26282
821.868	26157
822.008	25795
822.149	25925
822.289	25738
822.429	25761
822.569	25666
822.709	25537
822.849	25354
822.99	25320
823.13	25377
823.27	25289
823.41	25038
823.55	25034
823.69	25183
823.83	25091
823.97	25095
824.11	24894
824.25	24928
824.389	24954
824.529	25000
824.669	24947
824.809	25190
824.949	25236
825.089	25190
825.228	25027
825.368	24719
825.508	24916
825.648	24924
825.787	24935
825.927	24947
826.067	24837
826.206	24833
826.346	25050
826.485	24890
826.625	24852
826.765	24985
826.904	24954
827.044	24650
827.183	24608
827.323	24536
827.462	24612
827.601	24585
827.741	24422
827.88	24665
828.02	24441
828.159	24646
828.298	24608
828.437	24658
828.577	24502
828.716	24604
828.855	24445
828.994	24403
829.134	24448
829.273	24418
829.412	24277
829.551	24174
829.69	24182
829.829	24346
829.968	24376
830.107	24414
830.246	24384
830.385	24270
830.524	24213
830.663	23958
830.802	23973
830.941	23859
831.08	23893
831.219	24068
831.357	23999
831.496	24224
831.635	23885
831.774	23813
831.913	23821
832.051	23722
832.19	23543
832.329	23726
832.467	23642
832.606	23581
832.744	23600
832.883	23585
833.022	23497
833.16	23668
833.299	23619
833.437	23676
833.576	23783
833.714	23684
833.852	23615
833.991	23824
834.129	23798
834.267	23684
834.406	23630
834.544	23649
834.682	23573
834.821	23604
834.959	23851
835.097	23611
835.235	23726
835.373	23608
835.511	23676
835.65	23524
835.788	23433
835.926	23417
836.064	23349
836.202	23254
836.34	23360
836.478	23474
836.615	23459
836.753	23497
836.891	23600
837.029	23444
837.167	23391
837.305	23501
837.443	23425
837.58	23277
837.718	23436
837.856	23421
837.993	23322
838.131	23296
838.269	23083
838.406	23174
838.544	23079
838.681	22934
838.819	22968
838.956	22881
839.094	22824
839.231	22831
839.369	23029
839.506	23220
839.643	23014
839.781	22698
839.918	22843
840.055	22908
840.193	22763
840.33	22702
840.467	22839
840.604	22713
840.742	22957
840.879	22607
841.016	22702
841.153	22733
841.29	22820
841.427	22630
841.564	22786
841.701	22687
841.838	22687
841.975	22668
842.112	22668
842.249	22512
842.385	22421
842.522	22573
842.659	22630
842.796	22424
842.933	22489
843.069	22538
843.206	22508
843.343	22462
843.479	22557
843.616	22508
843.752	22310
843.889	22204
844.025	22428
844.162	22344
844.298	22314
844.435	22253
844.571	22238
844.708	22280
844.844	22356
844.98	22436
845.117	22398
845.253	22234
845.389	22120
845.525	22128
845.661	22063
845.798	21998
845.934	22025
846.07	22006
846.206	22074
846.342	22120
846.478	22025
846.614	21831
846.75	21819
846.886	21751
847.022	21816
847.158	21789
847.294	21728
847.429	21717
847.565	21720
847.701	22013
847.837	21439
847.972	21485
848.108	21587
848.244	21572
848.379	21393
848.515	21294
848.65	21325
848.786	21264
848.921	21313
849.057	21526
849.192	21428
849.328	21336
849.463	21424
849.598	21226
849.734	21127
849.869	21321
850.004	21009
850.14	21119
850.275	21096
850.41	21043
850.545	20986
850.68	21001
850.815	21173
850.95	21081
851.085	21268
851.22	21085
851.355	21070
851.49	20990
851.625	20910
851.76	21108
851.895	20990
852.03	20998
852.165	21119
852.299	21142
852.434	21142
852.569	21127
852.703	21123
852.838	21184
852.973	21218
853.107	21245
853.242	21096
853.376	20944
853.511	20804
853.645	20811
853.78	21081
853.914	20963
854.048	20956
854.183	20800
854.317	20971
854.451	21077
854.585	20891
854.72	20986
854.854	21112
854.988	20861
855.122	20925
855.256	20754
855.39	20910
855.524	21055
855.658	20864
855.792	20842
855.926	20906
856.06	20914
856.194	21036
856.327	20838
856.461	20842
856.595	20830
856.729	20891
856.862	21051
856.996	20918
857.13	20971
857.263	20994
857.397	21138
857.53	20864
857.664	20967
857.797	20971
857.931	21062
858.064	20941
858.197	20975
858.331	20895
858.464	20918
858.597	20864
858.731	21047
858.864	20823
858.997	20872
859.13	21070
859.263	20979
859.396	21058
859.529	20906
859.662	20872
859.795	20952
859.928	21096
860.061	21062
860.194	21135
860.327	20994
860.46	20937
860.592	20994
860.725	21036
860.858	21058
860.99	20868
861.123	20960
861.256	20811
861.388	20963
861.521	21762
861.653	20708
861.786	20769
861.918	20758
862.05	20777
862.183	20876
862.315	20872
862.447	20864
862.58	20830
862.712	20667
862.844	20571
862.976	20724
863.108	20663
863.24	21043
863.372	20533
863.504	20625
863.636	20511
863.768	20609
863.9	20644
864.032	20602
864.164	20556
864.296	20682
864.428	20765
864.559	20792
864.691	20743
864.823	20613
864.954	20556
865.086	20602
865.217	20587
865.349	20404
865.48	20571
865.612	20484
865.743	20754
865.875	20545
866.006	20473
866.137	20511
866.269	20415
866.4	20552
866.531	20590
866.662	20358
866.793	20473
866.924	20412
867.055	20541
867.186	20530
867.317	20389
867.448	20362
867.579	20370
867.71	20370
867.841	20461
867.972	20419
868.103	20415
868.233	20461
868.364	20427
868.495	20575
868.625	20644
868.756	20815
868.886	20549
869.017	20739
869.147	20807
869.278	20830
869.408	20708
869.539	20697
869.669	20792
869.799	20731
869.929	20811
870.06	20845
870.19	21066
870.32	21055
870.45	21093
870.58	21112
870.71	21142
870.84	21081
870.97	21214
871.1	21047
871.23	21306
871.36	21237
871.489	21226
871.619	21348
871.749	21252
871.879	21367
872.008	21386
872.138	21260
872.267	21294
872.397	21298
872.526	21218
872.656	21146
872.785	21070
872.915	21325
873.044	21466
873.173	21416
873.303	21226
873.432	21420
873.561	21370
873.69	21431
873.819	21317
873.948	21386
874.077	21310
874.206	21351
874.335	21218
874.464	21447
874.593	21549
874.722	21507
874.851	21648
874.979	21580
875.108	21591
875.237	21504
875.365	21397
875.494	21530
875.623	21637
875.751	21397
875.88	21576
876.008	21610
876.136	21812
876.265	21968
876.393	22101
876.521	21991
876.65	22078
876.778	21930
876.906	21945
877.034	21888
877.162	21892
877.29	21838
877.418	21975
877.546	21922
877.674	21899
877.802	21941
877.93	21865
878.058	21873
878.185	21717
878.313	21827
878.441	21797
878.568	21644
878.696	21918
878.824	21979
878.951	21835
879.079	22093
879.206	22139
879.333	22048
879.461	21880
879.588	21998
879.715	22166
879.842	22211
879.97	22051
880.097	21808
880.224	21736
880.351	21827
880.478	21823
880.605	21690
880.732	21690
880.859	21937
880.986	21690
881.112	21785
881.239	21660
881.366	21530
881.493	21428
881.619	21317
881.746	21329
881.872	21351
881.999	21245
882.125	21249
882.252	21260
882.378	21363
882.505	21397
882.631	21199
882.757	21024
882.883	21070
883.01	21043
883.136	21028
883.262	20891
883.388	20815
883.514	21009
883.64	21176
883.766	20921
883.892	20788
884.018	20819
884.143	20956
884.269	21116
884.395	20731
884.52	20640
884.646	20640
884.772	20678
884.897	20579
885.023	20697
885.148	20773
885.274	20743
885.399	20826
885.524	20708
885.65	20746
885.775	20632
885.9	20564
886.025	20769
886.15	20842
886.275	20606
886.4	20457
886.525	20670
886.65	20701
886.775	20625
886.9	20777
887.025	20883
887.149	20579
887.274	20537
887.399	20461
887.523	20427
887.648	20412
887.773	20347
887.897	20587
888.021	20374
888.146	20442
888.27	20541
888.395	20602
888.519	20583
888.643	20404
888.767	20450
888.891	20309
889.015	20206
889.139	20408
889.263	20214
889.387	20412
889.511	20423
889.635	20317
889.759	20309
889.883	20210
890.006	20225
890.13	20339
890.254	20077
890.377	20168
890.501	20008
890.624	19982
890.748	20008
890.871	20020
890.995	19674
891.118	19708
891.241	19757
891.364	19852
891.488	19928
891.611	19734
891.734	19784
891.857	19868
891.98	19913
892.103	19776
892.226	19708
892.349	19849
892.471	19685
892.594	19731
892.717	19769
892.839	19765
892.962	19670
893.085	19864
893.207	19681
893.33	19594
893.452	19567
893.575	19700
893.697	19780
893.819	19913
893.941	19944
894.064	19875
894.186	19658
894.308	19696
894.43	19776
894.552	19830
894.674	19765
894.796	19594
894.918	19666
895.04	19780
895.161	19852
895.283	19776
895.405	19780
895.526	19628
895.648	19597
895.769	19731
895.891	19811
896.012	19898
896.134	19799
896.255	19818
896.376	19712
896.498	19662
896.619	19830
896.74	19761
896.861	19826
896.982	20065
897.103	20157
897.224	20043
897.345	19909
897.466	19936
897.587	19986
897.708	20111
897.828	19967
897.949	19883
898.07	19757
898.19	19894
898.311	20103
898.431	19852
898.552	19986
898.672	20046
898.792	20081
898.913	19932
899.033	19849
899.153	19734
899.273	19620
899.393	19753
899.513	19708
899.633	19811
899.753	19780
899.873	19609
899.993	19826
900.113	19639
900.232	19833
900.352	19719
900.472	19597
900.591	19491
900.711	19445
900.83	19476
900.95	19670
901.069	19632
901.189	19510
901.308	19244
901.427	19126
901.546	19122
901.665	19198
901.784	18985
901.904	18943
902.023	18738
902.141	18623
902.26	18650
902.379	18650
902.498	18506
902.617	18582
902.735	18623
902.854	18585
902.973	18513
903.091	18346
903.21	18338
903.328	18311
903.446	18136
903.565	17965
903.683	18121
903.801	17961
903.919	18098
904.038	18026
904.156	17863
904.274	17935
904.392	17889
904.51	17885
904.627	17859
904.745	17920
904.863	17931
904.981	17668
905.098	17528
905.216	17528
905.334	17604
905.451	17630
905.569	17497
905.686	17573
905.803	17551
905.921	17406
906.038	17516
906.155	17334
906.272	17178
906.389	17345
906.506	17185
906.623	17216
906.74	17079
906.857	16991
906.974	17006
907.091	17242
907.208	17227
907.324	17132
907.441	17014
907.557	16736
907.674	16774
907.79	16793
907.907	16835
908.023	16816
908.139	16812
908.256	16820
908.372	16649
908.488	16622
908.604	16500
908.72	16371
908.836	16508
908.952	16493
909.068	16512
909.184	16752
909.3	16519
909.415	16569
909.531	16478
909.647	16284
909.762	16276
909.878	16017
909.993	16242
910.108	16223
910.224	16200
910.339	16097
910.454	16166
910.57	16032
910.685	15907
910.8	16173
910.915	16246
911.03	16120
911.145	15854
911.259	15857
911.374	15899
911.489	15713
911.604	15660
911.718	15606
911.833	15580
911.947	15370
912.062	15405
912.176	15580
912.291	15523
912.405	15599
912.519	15682
912.633	15778
912.748	15595
912.862	15485
912.976	15454
913.09	15382
913.204	15302
913.318	15386
913.431	15507
913.545	15500
913.659	15488
913.772	15359
913.886	15188
914	15180
914.113	15302
914.226	15325
914.34	15340
914.453	15070
914.566	15199
914.68	15032
914.793	14986
914.906	14872
915.019	14754
915.132	14724
915.245	14845
915.358	14872
915.47	14796
915.583	14792
915.696	14830
915.809	14956
915.921	15001
916.034	14743
916.146	14807
916.259	14720
916.371	14762
916.483	14762
916.595	14613
916.708	14716
916.82	14606
916.932	14629
917.044	14632
917.156	14522
917.268	14499
917.38	14545
917.491	14408
917.603	14492
917.715	14610
917.826	14514
917.938	14366
918.049	14271
918.161	14400
918.272	14594
918.384	14522
918.495	14484
918.606	14271
918.717	14161
918.828	14229
918.939	14233
919.05	14191
919.161	14206
919.272	14039
919.383	14092
919.494	14355
919.604	14438
919.715	14256
919.826	14195
919.936	14206
920.047	14248
920.157	14229
920.267	14465
920.378	14229
920.488	14214
920.598	14415
920.708	14564
920.818	14381
920.928	14336
921.038	14427
921.148	14461
921.258	14164
921.368	14024
921.477	14012
921.587	14027
921.697	13845
921.806	13940
921.916	13856
922.025	13624
922.134	13506
922.244	13567
922.353	13727
922.462	13480
922.571	13381
922.68	13331
922.789	13282
922.898	13259
923.007	13209
923.116	13312
923.224	13263
923.333	13194
923.442	13114
923.55	13076
923.659	13209
923.767	13156
923.876	12928
923.984	13088
924.092	12909
924.201	12977
924.309	13004
924.417	12962
924.525	12817
924.633	12882
924.741	13677
924.849	12825
924.956	12852
925.064	12677
925.172	12677
925.279	12601
925.387	12688
925.494	12745
925.602	12753
925.709	12726
925.816	12589
925.924	12604
926.031	12707
926.138	12578
926.245	12681
926.352	12521
926.459	12658
926.566	12696
926.673	12547
926.779	12403
926.886	12433
926.993	12327
927.099	12289
927.206	12262
927.312	12171
927.419	12281
927.525	12213
927.631	12254
927.737	12167
927.843	12053
927.95	12015
928.056	12175
928.162	12133
928.267	12175
928.373	12715
928.479	12197
928.585	11897
928.69	12064
928.796	12102
928.901	11961
929.007	11821
929.112	12038
929.218	11950
929.323	11760
929.428	11889
929.533	11935
929.638	11828
929.743	11767
929.848	11764
929.953	11748
930.058	11684
930.163	11535
930.267	11532
930.372	11630
930.477	11459
930.581	11699
930.685	11577
930.79	11410
930.894	11429
930.998	11341
931.103	11558
931.207	11098
931.311	11132
931.415	10938
931.519	10835
931.623	10714
