Data from test_V78500241_2066.txt Node
Date: Fri Mar 25 15:24:14 CST 2022
User: usil
Spectrometer: V785-0024
Trigger mode: 0
Integration Time (sec): 4.000000E-1
Scans to average: 1
Nonlinearity correction enabled: false
Boxcar width: 0
Storing dark spectrum: false
XAxis mode: Wavelengths
Number of Pixels in Spectrum: 1024
>>>>>Begin Spectral Data<<<<<
801.071	27930
801.214	27709
801.356	27507
801.499	27447
801.641	27173
801.783	27192
801.926	27397
802.068	27287
802.211	27218
802.353	27028
802.496	27051
802.638	27096
802.78	26998
802.923	26845
803.065	26727
803.208	26937
803.35	26998
803.492	26952
803.635	27074
803.777	27066
803.919	27230
804.061	27511
804.204	27180
804.346	27100
804.488	27138
804.63	27184
804.773	27112
804.915	27161
805.057	27237
805.199	27062
805.341	27313
805.483	27218
805.626	27260
805.768	27188
805.91	27237
806.052	27275
806.194	27268
806.336	27454
806.478	27294
806.62	27157
806.762	27344
806.904	27557
807.046	27835
807.188	27759
807.33	27686
807.472	27637
807.614	27599
807.756	27835
807.898	27561
808.04	27435
808.182	27496
808.324	27576
808.465	27564
808.607	27679
808.749	27968
808.891	27975
809.033	28048
809.174	27880
809.316	27812
809.458	27808
809.6	27926
809.741	27975
809.883	28002
810.025	28112
810.166	28177
810.308	28158
810.45	28082
810.591	28051
810.733	27991
810.875	28032
811.016	27732
811.158	27778
811.299	27873
811.441	28059
811.582	27895
811.724	28055
811.865	27873
812.007	27819
812.148	27857
812.29	27926
812.431	27941
812.573	28169
812.714	28257
812.855	28405
812.997	28478
813.138	28592
813.279	28523
813.421	28230
813.562	28356
813.703	28177
813.845	28074
813.986	27625
814.127	27679
814.268	27610
814.41	27485
814.551	27477
814.692	27629
814.833	27652
814.974	27515
815.115	27618
815.256	27511
815.397	27435
815.539	27454
815.68	27370
815.821	27336
815.962	27401
816.103	27317
816.244	27233
816.385	27104
816.526	27013
816.666	26918
816.807	26689
816.948	26933
817.089	26876
817.23	26792
817.371	26918
817.512	26925
817.653	26834
817.793	26674
817.934	26944
818.075	26785
818.216	26811
818.356	26769
818.497	26705
818.638	26583
818.778	26545
818.919	26583
819.06	26632
819.2	26724
819.341	26960
819.481	26952
819.622	26952
819.762	27138
819.903	27108
820.043	27055
820.184	26910
820.324	26933
820.465	26963
820.605	26891
820.746	26975
820.886	26648
821.026	26956
821.167	26872
821.307	26853
821.447	26811
821.588	26750
821.728	26609
821.868	26427
822.008	26294
822.149	26366
822.289	26199
822.429	26122
822.569	26001
822.709	26054
822.849	25826
822.99	25894
823.13	25780
823.27	25742
823.41	25548
823.55	25495
823.69	25594
823.83	25620
823.97	25529
824.11	25445
824.25	25575
824.389	25335
824.529	25464
824.669	25483
824.809	25597
824.949	25556
825.089	25445
825.228	25518
825.368	25419
825.508	25293
825.648	25285
825.787	25426
825.927	25324
826.067	25240
826.206	25285
826.346	25400
826.485	25247
826.625	25282
826.765	25464
826.904	25266
827.044	25126
827.183	25103
827.323	25179
827.462	24958
827.601	25061
827.741	24996
827.88	25042
828.02	24939
828.159	24954
828.298	24856
828.437	25213
828.577	24905
828.716	25065
828.855	24958
828.994	24791
829.134	24749
829.273	24654
829.412	24684
829.551	24677
829.69	24722
829.829	24673
829.968	24882
830.107	24726
830.246	24650
830.385	24620
830.524	24658
830.663	24551
830.802	24418
830.941	24418
831.08	24266
831.219	24407
831.357	24490
831.496	24471
831.635	24239
831.774	24330
831.913	24129
832.051	24216
832.19	24148
832.329	24148
832.467	23950
832.606	23794
832.744	23923
832.883	23999
833.022	23942
833.16	24102
833.299	24053
833.437	23958
833.576	23977
833.714	24140
833.852	24159
833.991	24053
834.129	24281
834.267	24102
834.406	23984
834.544	24117
834.682	24087
834.821	23992
834.959	24171
835.097	24007
835.235	24125
835.373	24129
835.511	24018
835.65	23828
835.788	23946
835.926	23718
836.064	23817
836.202	23745
836.34	23904
836.478	24064
836.615	23996
836.753	23904
836.891	23939
837.029	24102
837.167	23874
837.305	23809
837.443	23653
837.58	23737
837.718	23798
837.856	23680
837.993	23821
838.131	23752
838.269	23687
838.406	23703
838.544	23573
838.681	23436
838.819	23436
838.956	23113
839.094	23109
839.231	23246
839.369	23505
839.506	23710
839.643	23471
839.781	23162
839.918	23147
840.055	23121
840.193	23280
840.33	23033
840.467	23208
840.604	23075
840.742	23315
840.879	22965
841.016	23006
841.153	22980
841.29	23296
841.427	23151
841.564	23109
841.701	23132
841.838	23041
841.975	22980
842.112	23128
842.249	22866
842.385	22771
842.522	22976
842.659	22911
842.796	22786
842.933	22812
843.069	22835
843.206	22889
843.343	22930
843.479	22793
843.616	22847
843.752	22710
843.889	22672
844.025	22862
844.162	22615
844.298	22767
844.435	22706
844.571	22519
844.708	22626
844.844	22862
844.98	22774
845.117	22835
845.253	22592
845.389	22569
845.525	22573
845.661	22440
845.798	22367
845.934	22428
846.07	22379
846.206	22432
846.342	22584
846.478	22363
846.614	22101
846.75	22112
846.886	22101
847.022	22234
847.158	22116
847.294	22139
847.429	22158
847.565	22154
847.701	22341
847.837	21846
847.972	21831
848.108	21892
848.244	21964
848.379	21736
848.515	21759
848.65	21675
848.786	21675
848.921	21732
849.057	21808
849.192	21660
849.328	21823
849.463	21667
849.598	21488
849.734	21466
849.869	21526
850.004	21420
850.14	21515
850.275	21477
850.41	21435
850.545	21412
850.68	21313
850.815	21545
850.95	21561
851.085	21682
851.22	21538
851.355	21542
851.49	21428
851.625	21439
851.76	21424
851.895	21386
852.03	21424
852.165	21466
852.299	21488
852.434	21553
852.569	21500
852.703	21458
852.838	21545
852.973	21652
853.107	21629
853.242	21435
853.376	21408
853.511	21176
853.645	21226
853.78	21348
853.914	21351
854.048	21188
854.183	21249
854.317	21351
854.451	21401
854.585	21302
854.72	21313
854.854	21332
854.988	21123
855.122	21291
855.256	21127
855.39	21165
855.524	21363
855.658	21599
855.792	21340
855.926	21325
856.06	21275
856.194	21370
856.327	21237
856.461	21272
856.595	21150
856.729	21252
856.862	21538
856.996	21203
857.13	21287
857.263	21252
857.397	21405
857.53	21340
857.664	21397
857.797	21386
857.931	21420
858.064	21241
858.197	21374
858.331	21287
858.464	21173
858.597	21233
858.731	21287
858.864	21252
858.997	21279
859.13	21313
859.263	21408
859.396	21367
859.529	21252
859.662	21256
859.795	21245
859.928	21283
860.061	21496
860.194	21557
860.327	21325
860.46	21389
860.592	21355
860.725	21378
860.858	21466
860.99	21298
861.123	21195
861.256	21207
861.388	21317
861.521	22063
861.653	21100
861.786	21081
861.918	21070
862.05	21131
862.183	21252
862.315	21230
862.447	21279
862.58	21283
862.712	20979
862.844	20910
862.976	21036
863.108	21085
863.24	21477
863.372	20895
863.504	20975
863.636	20937
863.768	21051
863.9	20982
864.032	21157
864.164	20925
864.296	20994
864.428	21089
864.559	21096
864.691	21108
864.823	21039
864.954	20956
865.086	21013
865.217	21039
865.349	20800
865.48	20895
865.612	21009
865.743	20990
865.875	20956
866.006	20918
866.137	21013
866.269	20910
866.4	20872
866.531	20899
866.662	20815
866.793	20834
866.924	20872
867.055	20853
867.186	20910
867.317	20937
867.448	20758
867.579	20910
867.71	20727
867.841	20773
867.972	20769
868.103	20765
868.233	20849
868.364	20800
868.495	20948
868.625	21055
868.756	21294
868.886	20998
869.017	21036
869.147	21291
869.278	21245
869.408	21051
869.539	21195
869.669	21161
869.799	21146
869.929	21218
870.06	21241
870.19	21458
870.32	21382
870.45	21416
870.58	21504
870.71	21473
870.84	21648
870.97	21542
871.1	21447
871.23	21671
871.36	21747
871.489	21671
871.619	21667
871.749	21625
871.879	21781
872.008	21804
872.138	21671
872.267	21739
872.397	21576
872.526	21591
872.656	21572
872.785	21542
872.915	21808
873.044	21838
873.173	21732
873.303	21759
873.432	21823
873.561	21960
873.69	21808
873.819	21774
873.948	21656
874.077	21686
874.206	21572
874.335	21781
874.464	21854
874.593	21983
874.722	21911
874.851	21850
874.979	22029
875.108	21926
875.237	21983
875.365	21789
875.494	21880
875.623	22032
875.751	22040
875.88	21960
876.008	22078
876.136	22109
876.265	22310
876.393	22398
876.521	22512
876.65	22478
876.778	22344
876.906	22344
877.034	22226
877.162	22390
877.29	22242
877.418	22226
877.546	22249
877.674	22329
877.802	22223
877.93	22390
878.058	22207
878.185	22272
878.313	22204
878.441	22272
878.568	22105
878.696	22272
878.824	22192
878.951	22295
879.079	22546
879.206	22546
879.333	22375
879.461	22314
879.588	22546
879.715	22516
879.842	22546
879.97	22424
880.097	22135
880.224	22112
880.351	22128
880.478	22131
880.605	22105
880.732	22150
880.859	22337
880.986	22105
881.112	22105
881.239	22002
881.366	21907
881.493	21770
881.619	21800
881.746	21667
881.872	21713
881.999	21542
882.125	21641
882.252	21785
882.378	21583
882.505	21846
882.631	21595
882.757	21496
882.883	21359
883.01	21439
883.136	21321
883.262	21237
883.388	21256
883.514	21302
883.64	21389
883.766	21249
883.892	21188
884.018	21150
884.143	21317
884.269	21298
884.395	21165
884.52	21005
884.646	21066
884.772	21058
884.897	20921
885.023	21104
885.148	21112
885.274	21169
885.399	21146
885.524	20960
885.65	20975
885.775	20975
885.9	21043
886.025	21100
886.15	21180
886.275	20971
886.4	20929
886.525	20937
886.65	20967
886.775	20815
886.9	21100
887.025	21180
887.149	21077
887.274	20720
887.399	20853
887.523	20746
887.648	20762
887.773	20724
887.897	20883
888.021	20765
888.146	20708
888.27	20914
888.395	20845
888.519	20849
888.643	20906
888.767	20914
888.891	20754
889.015	20552
889.139	20648
889.263	20629
889.387	20651
889.511	20834
889.635	20701
889.759	20533
889.883	20560
890.006	20598
890.13	20724
890.254	20556
890.377	20503
890.501	20415
890.624	20313
890.748	20419
890.871	20183
890.995	20153
891.118	20210
891.241	20054
891.364	20256
891.488	20294
891.611	20134
891.734	20119
891.857	20206
891.98	20233
892.103	20054
892.226	20065
892.349	20153
892.471	19902
892.594	20073
892.717	20100
892.839	19997
892.962	20065
893.085	20111
893.207	20069
893.33	19974
893.452	19982
893.575	20149
893.697	20008
893.819	20180
893.941	20218
894.064	20210
894.186	19989
894.308	20043
894.43	20130
894.552	20107
894.674	20039
894.796	20046
894.918	20069
895.04	20020
895.161	20005
895.283	20240
895.405	20115
895.526	20001
895.648	20016
895.769	20206
895.891	20081
896.012	20069
896.134	20035
896.255	20077
896.376	19963
896.498	20081
896.619	20024
896.74	20027
896.861	20145
896.982	20415
897.103	20503
897.224	20355
897.345	20396
897.466	20020
897.587	20256
897.708	20362
897.828	20358
897.949	20164
898.07	20202
898.19	20263
898.311	20282
898.431	20313
898.552	20286
898.672	20259
898.792	20317
898.913	20267
899.033	20168
899.153	20046
899.273	20035
899.393	19974
899.513	20161
899.633	19974
899.753	20092
899.873	19982
899.993	19986
900.113	20012
900.232	20020
900.352	19746
900.472	19841
900.591	19807
900.711	19868
900.83	19753
900.95	19944
901.069	19970
901.189	19715
901.308	19441
901.427	19422
901.546	19407
901.665	19365
901.784	19407
901.904	19232
902.023	19187
902.141	19042
902.26	18951
902.379	18966
902.498	18951
902.617	18916
902.735	18966
902.854	18916
902.973	18821
903.091	18540
903.21	18635
903.328	18544
903.446	18589
903.565	18426
903.683	18350
903.801	18266
903.919	18247
904.038	18357
904.156	18136
904.274	18171
904.392	18060
904.51	18144
904.627	18087
904.745	18209
904.863	18216
904.981	17961
905.098	17809
905.216	17885
905.334	17950
905.451	17817
905.569	17866
905.686	17840
905.803	17859
905.921	17592
906.038	17729
906.155	17668
906.272	17528
906.389	17672
906.506	17322
906.623	17387
906.74	17307
906.857	17315
906.974	17273
907.091	17353
907.208	17581
907.324	17391
907.441	17250
907.557	17155
907.674	17124
907.79	17033
907.907	17025
908.023	17102
908.139	17071
908.256	16968
908.372	17033
908.488	16965
908.604	16782
908.72	16831
908.836	16809
908.952	16782
909.068	16889
909.184	16968
909.3	16752
909.415	16862
909.531	16736
909.647	16584
909.762	16569
909.878	16485
909.993	16535
910.108	16470
910.224	16367
910.339	16580
910.454	16417
910.57	16322
910.685	16181
910.8	16523
910.915	16417
911.03	16325
911.145	16112
911.259	16147
911.374	16082
911.489	15964
911.604	15941
911.718	15789
911.833	15880
911.947	15736
912.062	15732
912.176	15644
912.291	15846
912.405	15770
912.519	15926
912.633	15975
912.748	15861
912.862	15762
912.976	15709
913.09	15557
913.204	15622
913.318	15682
913.431	15755
913.545	15762
913.659	15622
913.772	15622
913.886	15469
914	15469
914.113	15488
914.226	15492
914.34	15542
914.453	15412
914.566	15462
914.68	15367
914.793	15386
914.906	15100
915.019	15013
915.132	15119
915.245	15081
915.358	15207
915.47	15074
915.583	14986
915.696	15081
915.809	15184
915.921	15150
916.034	14963
916.146	14872
916.259	14944
916.371	15089
916.483	15020
916.595	14914
916.708	14906
916.82	14792
916.932	14788
917.044	14929
917.156	14800
917.268	14613
917.38	14708
917.491	14750
917.603	14735
917.715	14819
917.826	14781
917.938	14693
918.049	14575
918.161	14598
918.272	14815
918.384	14792
918.495	14644
918.606	14537
918.717	14431
918.828	14442
918.939	14545
919.05	14450
919.161	14457
919.272	14263
919.383	14358
919.494	14590
919.604	14648
919.715	14446
919.826	14362
919.936	14377
920.047	14518
920.157	14389
920.267	14590
920.378	14431
920.488	14415
920.598	14549
920.708	14754
920.818	14549
920.928	14644
921.038	14678
921.148	14621
921.258	14313
921.368	14298
921.477	14187
921.587	14172
921.697	14073
921.806	14142
921.916	14081
922.025	13822
922.134	13757
922.244	13814
922.353	13864
922.462	13719
922.571	13548
922.68	13643
922.789	13445
922.898	13430
923.007	13381
923.116	13544
923.224	13430
923.333	13422
923.442	13152
923.55	13339
923.659	13358
923.767	13343
923.876	13171
923.984	13384
924.092	13164
924.201	13270
924.309	13175
924.417	13213
924.525	13061
924.633	13122
924.741	13871
924.849	12970
924.956	13099
925.064	12935
925.172	12806
925.279	12844
925.387	12821
925.494	12802
925.602	13038
925.709	12947
925.816	12741
925.924	12825
926.031	12897
926.138	12810
926.245	12916
926.352	12734
926.459	12859
926.566	12901
926.673	12711
926.779	12620
926.886	12536
926.993	12532
927.099	12384
927.206	12403
927.312	12330
927.419	12555
927.525	12426
927.631	12441
927.737	12308
927.843	12262
927.95	12152
928.056	12235
928.162	12296
928.267	12270
928.373	12901
928.479	12281
928.585	12053
928.69	12163
928.796	12273
928.901	12114
929.007	12015
929.112	12175
929.218	12095
929.323	12140
929.428	12003
929.533	12083
929.638	11939
929.743	11980
929.848	11999
929.953	11920
930.058	11920
930.163	11646
930.267	11733
930.372	11851
930.477	11638
930.581	11878
930.685	11695
930.79	11642
930.894	11532
930.998	11592
931.103	11737
931.207	11406
931.311	11284
931.415	11322
931.519	11014
931.623	10976
