Data from test_V78500241_2509.txt Node
Date: Fri Mar 25 15:27:19 CST 2022
User: usil
Spectrometer: V785-0024
Trigger mode: 0
Integration Time (sec): 4.000000E-1
Scans to average: 1
Nonlinearity correction enabled: false
Boxcar width: 0
Storing dark spectrum: false
XAxis mode: Wavelengths
Number of Pixels in Spectrum: 1024
>>>>>Begin Spectral Data<<<<<
801.071	27207
801.214	27131
801.356	26918
801.499	26883
801.641	26686
801.783	26659
801.926	26880
802.068	26594
802.211	26590
802.353	26571
802.496	26461
802.638	26415
802.78	26332
802.923	26400
803.065	26282
803.208	26221
803.35	26393
803.492	26526
803.635	26499
803.777	26415
803.919	26492
804.061	26921
804.204	26686
804.346	26415
804.488	26503
804.63	26545
804.773	26400
804.915	26549
805.057	26670
805.199	26431
805.341	26427
805.483	26594
805.626	26602
805.768	26480
805.91	26469
806.052	26663
806.194	26385
806.336	26800
806.478	26598
806.62	26606
806.762	26800
806.904	26853
807.046	26979
807.188	27013
807.33	26864
807.472	27020
807.614	26925
807.756	26929
807.898	26804
808.04	26800
808.182	26765
808.324	26918
808.465	26853
808.607	27165
808.749	27119
808.891	27233
809.033	27397
809.174	27176
809.316	27207
809.458	27268
809.6	27127
809.741	27275
809.883	27329
810.025	27473
810.166	27427
810.308	27473
810.45	27252
810.591	27249
810.733	27279
810.875	27150
811.016	27112
811.158	27150
811.299	27355
811.441	27344
811.582	27439
811.724	27192
811.865	27024
812.007	27100
812.148	27074
812.29	27317
812.431	27287
812.573	27325
812.714	27477
812.855	27587
812.997	27789
813.138	27911
813.279	27720
813.421	27690
813.562	27549
813.703	27405
813.845	27389
813.986	27032
814.127	26933
814.268	26838
814.41	26921
814.551	26864
814.692	26777
814.833	26712
814.974	26746
815.115	26849
815.256	26693
815.397	26777
815.539	26613
815.68	26530
815.821	26636
815.962	26617
816.103	26473
816.244	26514
816.385	26389
816.526	26404
816.666	26126
816.807	26103
816.948	26282
817.089	26275
817.23	26081
817.371	26088
817.512	25978
817.653	26115
817.793	26043
817.934	26008
818.075	26100
818.216	26020
818.356	26084
818.497	25814
818.638	25784
818.778	25928
818.919	25780
819.06	25856
819.2	25982
819.341	26111
819.481	25951
819.622	26172
819.762	26404
819.903	26336
820.043	26206
820.184	26073
820.324	26161
820.465	26358
820.605	26218
820.746	26039
820.886	26164
821.026	26252
821.167	26092
821.307	26100
821.447	26058
821.588	25997
821.728	25727
821.868	25643
822.008	25563
822.149	25525
822.289	25601
822.429	25335
822.569	25206
822.709	25266
822.849	25088
822.99	25061
823.13	25038
823.27	24981
823.41	24810
823.55	24840
823.69	24852
823.83	24829
823.97	24875
824.11	24604
824.25	24521
824.389	24696
824.529	24795
824.669	24654
824.809	24837
824.949	24688
825.089	24681
825.228	24688
825.368	24448
825.508	24540
825.648	24589
825.787	24517
825.927	24585
826.067	24471
826.206	24608
826.346	24623
826.485	24646
826.625	24566
826.765	24642
826.904	24604
827.044	24281
827.183	24395
827.323	24178
827.462	24422
827.601	24292
827.741	24273
827.88	24376
828.02	24041
828.159	24182
828.298	24346
828.437	24273
828.577	24258
828.716	24266
828.855	24186
828.994	24159
829.134	23988
829.273	23988
829.412	23961
829.551	24030
829.69	24015
829.829	23931
829.968	24091
830.107	24026
830.246	23988
830.385	23802
830.524	23897
830.663	23745
830.802	23733
830.941	23638
831.08	23649
831.219	23684
831.357	23722
831.496	23935
831.635	23661
831.774	23611
831.913	23395
832.051	23360
832.19	23315
832.329	23417
832.467	23227
832.606	23311
832.744	23315
832.883	23376
833.022	23227
833.16	23273
833.299	23372
833.437	23452
833.576	23277
833.714	23280
833.852	23417
833.991	23452
834.129	23341
834.267	23410
834.406	23261
834.544	23436
834.682	23345
834.821	23372
834.959	23493
835.097	23303
835.235	23406
835.373	23341
835.511	23406
835.65	23246
835.788	23246
835.926	22965
836.064	22961
836.202	22972
836.34	23197
836.478	23265
836.615	23197
836.753	23239
836.891	23273
837.029	23307
837.167	23033
837.305	23140
837.443	22984
837.58	22892
837.718	23071
837.856	23090
837.993	23025
838.131	22946
838.269	22839
838.406	22957
838.544	22824
838.681	22660
838.819	22721
838.956	22519
839.094	22580
839.231	22588
839.369	22752
839.506	22812
839.643	22721
839.781	22626
839.918	22348
840.055	22588
840.193	22504
840.33	22459
840.467	22413
840.604	22447
840.742	22812
840.879	22287
841.016	22440
841.153	22470
841.29	22679
841.427	22466
841.564	22478
841.701	22417
841.838	22360
841.975	22386
842.112	22314
842.249	22367
842.385	22379
842.522	22459
842.659	22382
842.796	22200
842.933	22291
843.069	22192
843.206	22040
843.343	22246
843.479	22219
843.616	22188
843.752	21915
843.889	22040
844.025	22059
844.162	21876
844.298	22032
844.435	22013
844.571	21770
844.708	21998
844.844	22116
844.98	22067
845.117	22067
845.253	21968
845.389	21865
845.525	21892
845.661	21739
845.798	21694
845.934	21812
846.07	21751
846.206	21724
846.342	21945
846.478	21774
846.614	21397
846.75	21462
846.886	21477
847.022	21492
847.158	21443
847.294	21454
847.429	21545
847.565	21386
847.701	21751
847.837	21207
847.972	21230
848.108	21355
848.244	21131
848.379	21142
848.515	21001
848.65	20982
848.786	20982
848.921	21074
849.057	21146
849.192	21119
849.328	21024
849.463	21112
849.598	20880
849.734	20830
849.869	20899
850.004	20880
850.14	20845
850.275	20792
850.41	20754
850.545	20724
850.68	20872
850.815	20769
850.95	20880
851.085	21017
851.22	20891
851.355	20769
851.49	20868
851.625	20807
851.76	20872
851.895	20773
852.03	20788
852.165	20849
852.299	20929
852.434	20960
852.569	20777
852.703	20921
852.838	20975
852.973	20994
853.107	20971
853.242	20842
853.376	20769
853.511	20552
853.645	20533
853.78	20705
853.914	20667
854.048	20583
854.183	20663
854.317	20735
854.451	20910
854.585	20697
854.72	20758
854.854	20826
854.988	20579
855.122	20651
855.256	20632
855.39	20655
855.524	20838
855.658	20693
855.792	20853
855.926	20754
856.06	20689
856.194	20667
856.327	20686
856.461	20667
856.595	20590
856.729	20587
856.862	20781
856.996	20537
857.13	20720
857.263	20765
857.397	20739
857.53	20617
857.664	20697
857.797	20800
857.931	20849
858.064	20594
858.197	20739
858.331	20670
858.464	20689
858.597	20499
858.731	20754
858.864	20640
858.997	20678
859.13	20750
859.263	20625
859.396	20842
859.529	20651
859.662	20629
859.795	20644
859.928	20670
860.061	20891
860.194	20975
860.327	20724
860.46	20686
860.592	20819
860.725	20899
860.858	20727
860.99	20545
861.123	20560
861.256	20629
861.388	20697
861.521	21214
861.653	20602
861.786	20499
861.918	20511
862.05	20556
862.183	20632
862.315	20503
862.447	20724
862.58	20667
862.712	20522
862.844	20434
862.976	20465
863.108	20454
863.24	20785
863.372	20355
863.504	20454
863.636	20454
863.768	20419
863.9	20377
864.032	20404
864.164	20271
864.296	20415
864.428	20461
864.559	20396
864.691	20438
864.823	20396
864.954	20450
865.086	20465
865.217	20309
865.349	20271
865.48	20237
865.612	20332
865.743	20446
865.875	20389
866.006	20351
866.137	20218
866.269	20218
866.4	20237
866.531	20434
866.662	20138
866.793	20168
866.924	20278
867.055	20320
867.186	20301
867.317	20259
867.448	20153
867.579	20256
867.71	20282
867.841	20157
867.972	20149
868.103	20130
868.233	20187
868.364	20343
868.495	20320
868.625	20442
868.756	20594
868.886	20309
869.017	20438
869.147	20625
869.278	20480
869.408	20431
869.539	20385
869.669	20636
869.799	20625
869.929	20663
870.06	20533
870.19	20769
870.32	20663
870.45	20887
870.58	20735
870.71	20960
870.84	20948
870.97	20861
871.1	20868
871.23	21032
871.36	21013
871.489	20994
871.619	20971
871.749	20998
871.879	21070
872.008	21192
872.138	21184
872.267	21009
872.397	20883
872.526	20967
872.656	20918
872.785	20845
872.915	21123
873.044	21226
873.173	21169
873.303	21211
873.432	21211
873.561	21233
873.69	21096
873.819	21123
873.948	21150
874.077	21096
874.206	21116
874.335	21074
874.464	21150
874.593	21382
874.722	21294
874.851	21439
874.979	21477
875.108	21405
875.237	21222
875.365	21199
875.494	21397
875.623	21401
875.751	21283
875.88	21424
876.008	21500
876.136	21504
876.265	21755
876.393	21915
876.521	21766
876.65	21956
876.778	21838
876.906	21641
877.034	21675
877.162	21625
877.29	21679
877.418	21667
877.546	21679
877.674	21759
877.802	21808
877.93	21717
878.058	21671
878.185	21534
878.313	21656
878.441	21751
878.568	21469
878.696	21603
878.824	21724
878.951	21797
879.079	21987
879.206	21960
879.333	21892
879.461	21770
879.588	21831
879.715	21857
879.842	22059
879.97	21888
880.097	21530
880.224	21523
880.351	21534
880.478	21492
880.605	21473
880.732	21488
880.859	21751
880.986	21496
881.112	21549
881.239	21348
881.366	21146
881.493	21199
881.619	21058
881.746	20971
881.872	21077
881.999	21074
882.125	20986
882.252	21116
882.378	21085
882.505	21226
882.631	21020
882.757	20887
882.883	20902
883.01	20899
883.136	20792
883.262	20746
883.388	20556
883.514	20701
883.64	20842
883.766	20686
883.892	20495
884.018	20560
884.143	20754
884.269	20853
884.395	20549
884.52	20480
884.646	20583
884.772	20400
884.897	20313
885.023	20484
885.148	20549
885.274	20625
885.399	20484
885.524	20457
885.65	20412
885.775	20492
885.9	20469
886.025	20609
886.15	20556
886.275	20518
886.4	20389
886.525	20473
886.65	20393
886.775	20412
886.9	20560
887.025	20682
887.149	20514
887.274	20347
887.399	20210
887.523	20229
887.648	20187
887.773	20168
887.897	20294
888.021	20252
888.146	20081
888.27	20233
888.395	20298
888.519	20214
888.643	20347
888.767	20240
888.891	20142
889.015	20119
889.139	20145
889.263	19978
889.387	20058
889.511	20168
889.635	20050
889.759	19955
889.883	20031
890.006	20084
890.13	20149
890.254	19982
890.377	19925
890.501	19826
890.624	19788
890.748	19818
890.871	19731
890.995	19639
891.118	19563
891.241	19685
891.364	19613
891.488	19776
891.611	19597
891.734	19582
891.857	19628
891.98	19685
892.103	19590
892.226	19689
892.349	19586
892.471	19438
892.594	19540
892.717	19514
892.839	19556
892.962	19590
893.085	19632
893.207	19582
893.33	19419
893.452	19499
893.575	19594
893.697	19502
893.819	19769
893.941	19651
894.064	19662
894.186	19369
894.308	19426
894.43	19689
894.552	19700
894.674	19605
894.796	19457
894.918	19457
895.04	19533
895.161	19559
895.283	19563
895.405	19449
895.526	19468
895.648	19502
895.769	19609
895.891	19544
896.012	19472
896.134	19495
896.255	19563
896.376	19464
896.498	19514
896.619	19506
896.74	19620
896.861	19635
896.982	19875
897.103	19993
897.224	19731
897.345	19704
897.466	19677
897.587	19811
897.708	19883
897.828	19936
897.949	19681
898.07	19601
898.19	19689
898.311	19898
898.431	19693
898.552	19799
898.672	19871
898.792	19986
898.913	19807
899.033	19685
899.153	19586
899.273	19430
899.393	19556
899.513	19643
899.633	19597
899.753	19586
899.873	19400
899.993	19537
900.113	19487
900.232	19445
900.352	19468
900.472	19365
900.591	19331
900.711	19403
900.83	19308
900.95	19384
901.069	19312
901.189	19183
901.308	19012
901.427	18859
901.546	18897
901.665	18856
901.784	18932
901.904	18715
902.023	18745
902.141	18426
902.26	18433
902.379	18544
902.498	18456
902.617	18395
902.735	18441
902.854	18479
902.973	18323
903.091	18247
903.21	18148
903.328	18064
903.446	17988
903.565	17977
903.683	17916
903.801	17923
903.919	17950
904.038	17878
904.156	17748
904.274	17668
904.392	17680
904.51	17710
904.627	17729
904.745	17604
904.863	17710
904.981	17444
905.098	17353
905.216	17356
905.334	17345
905.451	17334
905.569	17292
905.686	17360
905.803	17265
905.921	17166
906.038	17246
906.155	17151
906.272	16999
906.389	17079
906.506	16946
906.623	16911
906.74	16896
906.857	16820
906.974	16816
907.091	16927
907.208	17075
907.324	16976
907.441	16854
907.557	16603
907.674	16500
907.79	16577
907.907	16596
908.023	16599
908.139	16653
908.256	16592
908.372	16546
908.488	16459
908.604	16436
908.72	16295
908.836	16398
908.952	16226
909.068	16314
909.184	16394
909.3	16314
909.415	16348
909.531	16352
909.647	16116
909.762	15972
909.878	16059
909.993	16063
910.108	16036
910.224	15964
910.339	16086
910.454	15922
910.57	15789
910.685	15800
910.8	16063
910.915	16051
911.03	15835
911.145	15751
911.259	15576
911.374	15709
911.489	15610
911.604	15466
911.718	15454
911.833	15496
911.947	15439
912.062	15359
912.176	15408
912.291	15584
912.405	15458
912.519	15591
912.633	15599
912.748	15462
912.862	15405
912.976	15173
913.09	15176
913.204	15241
913.318	15203
913.431	15393
913.545	15386
913.659	15332
913.772	15211
913.886	15089
914	15081
914.113	15127
914.226	15161
914.34	15104
914.453	14811
914.566	15055
914.68	14895
914.793	14941
914.906	14731
915.019	14640
915.132	14518
915.245	14613
915.358	14651
915.47	14625
915.583	14617
915.696	14667
915.809	14659
915.921	14762
916.034	14602
916.146	14617
916.259	14503
916.371	14682
916.483	14522
916.595	14495
916.708	14461
916.82	14514
916.932	14427
917.044	14480
917.156	14423
917.268	14328
917.38	14492
917.491	14381
917.603	14309
917.715	14465
917.826	14381
917.938	14309
918.049	14214
918.161	14229
918.272	14362
918.384	14396
918.495	14240
918.606	14157
918.717	14145
918.828	14161
918.939	14115
919.05	13970
919.161	13986
919.272	13913
919.383	13894
919.494	14142
919.604	14278
919.715	14058
919.826	13978
919.936	13989
920.047	14195
920.157	14069
920.267	14256
920.378	14134
920.488	14024
920.598	14275
920.708	14275
920.818	14256
920.928	14244
921.038	14385
921.148	14305
921.258	14012
921.368	13925
921.477	13791
921.587	13791
921.697	13696
921.806	13788
921.916	13734
922.025	13457
922.134	13495
922.244	13441
922.353	13495
922.462	13396
922.571	13316
922.68	13187
922.789	13225
922.898	13209
923.007	13065
923.116	13107
923.224	13061
923.333	13103
923.442	12958
923.55	12916
923.659	12981
923.767	12924
923.876	12928
923.984	12989
924.092	12871
924.201	12833
924.309	12989
924.417	12772
924.525	12886
924.633	12776
924.741	13674
924.849	12521
924.956	12692
925.064	12540
925.172	12490
925.279	12494
925.387	12631
925.494	12506
925.602	12639
925.709	12566
925.816	12471
925.924	12502
926.031	12578
926.138	12483
926.245	12532
926.352	12426
926.459	12467
926.566	12646
926.673	12445
926.779	12342
926.886	12304
926.993	12098
927.099	12129
927.206	12136
927.312	12117
927.419	12262
927.525	12076
927.631	12155
927.737	11969
927.843	11965
927.95	11863
928.056	11954
928.162	12068
928.267	12011
928.373	12570
928.479	12038
928.585	11855
928.69	11923
928.796	11885
928.901	11874
929.007	11661
929.112	11840
929.218	11767
929.323	11756
929.428	11726
929.533	11771
929.638	11577
929.743	11676
929.848	11714
929.953	11653
930.058	11570
930.163	11372
930.267	11436
930.372	11543
930.477	11296
930.581	11589
930.685	11349
930.79	11303
930.894	11326
930.998	11220
931.103	11433
931.207	10972
931.311	10991
931.415	10862
931.519	10615
931.623	10656
