Data from test_V78500241_454.txt Node
Date: Fri Mar 25 15:13:01 CST 2022
User: usil
Spectrometer: V785-0024
Trigger mode: 0
Integration Time (sec): 4.000000E-1
Scans to average: 1
Nonlinearity correction enabled: false
Boxcar width: 0
Storing dark spectrum: false
XAxis mode: Wavelengths
Number of Pixels in Spectrum: 1024
>>>>>Begin Spectral Data<<<<<
801.071	27161
801.214	27135
801.356	27051
801.499	26906
801.641	26762
801.783	26834
801.926	26910
802.068	26826
802.211	26617
802.353	26743
802.496	26526
802.638	26446
802.78	26480
802.923	26457
803.065	26431
803.208	26237
803.35	26358
803.492	26594
803.635	26621
803.777	26473
803.919	26602
804.061	26982
804.204	26644
804.346	26678
804.488	26564
804.63	26689
804.773	26533
804.915	26545
805.057	26667
805.199	26503
805.341	26609
805.483	26651
805.626	26697
805.768	26651
805.91	26720
806.052	26735
806.194	26697
806.336	26872
806.478	26682
806.62	26678
806.762	26807
806.904	27028
807.046	27344
807.188	27096
807.33	27222
807.472	27062
807.614	27024
807.756	27066
807.898	26861
808.04	26880
808.182	27005
808.324	27074
808.465	26990
808.607	26994
808.749	27226
808.891	27325
809.033	27473
809.174	27431
809.316	27344
809.458	27321
809.6	27332
809.741	27313
809.883	27416
810.025	27671
810.166	27469
810.308	27595
810.45	27610
810.591	27557
810.733	27355
810.875	27207
811.016	27226
811.158	27218
811.299	27374
811.441	27625
811.582	27325
811.724	27180
811.865	27161
812.007	27256
812.148	27211
812.29	27237
812.431	27393
812.573	27644
812.714	27778
812.855	27869
812.997	27922
813.138	27949
813.279	27934
813.421	27945
813.562	27835
813.703	27633
813.845	27515
813.986	27344
814.127	27108
814.268	27058
814.41	27017
814.551	26944
814.692	27108
814.833	26891
814.974	26864
815.115	26998
815.256	26944
815.397	26910
815.539	26876
815.68	26804
815.821	26830
815.962	26788
816.103	26773
816.244	26701
816.385	26541
816.526	26480
816.666	26374
816.807	26366
816.948	26370
817.089	26309
817.23	26343
817.371	26225
817.512	26145
817.653	26176
817.793	26195
817.934	26305
818.075	26126
818.216	26237
818.356	26202
818.497	26111
818.638	25871
818.778	26054
818.919	26027
819.06	26054
819.2	26016
819.341	26218
819.481	26355
819.622	26431
819.762	26575
819.903	26419
820.043	26473
820.184	26385
820.324	26256
820.465	26446
820.605	26427
820.746	26282
820.886	26278
821.026	26282
821.167	26298
821.307	26385
821.447	26298
821.588	26130
821.728	26035
821.868	25807
822.008	25761
822.149	25681
822.289	25658
822.429	25479
822.569	25491
822.709	25426
822.849	25190
822.99	25327
823.13	25198
823.27	25171
823.41	24992
823.55	24909
823.69	25099
823.83	25069
823.97	24977
824.11	24768
824.25	24852
824.389	24817
824.529	24996
824.669	24920
824.809	25072
824.949	24913
825.089	24821
825.228	24829
825.368	24612
825.508	24768
825.648	24681
825.787	24764
825.927	24791
826.067	24738
826.206	24540
826.346	24726
826.485	24707
826.625	24726
826.765	24768
826.904	24719
827.044	24559
827.183	24528
827.323	24369
827.462	24403
827.601	24391
827.741	24361
827.88	24509
828.02	24365
828.159	24437
828.298	24384
828.437	24433
828.577	24308
828.716	24544
828.855	24342
828.994	24038
829.134	24129
829.273	24152
829.412	24083
829.551	23958
829.69	24140
829.829	24041
829.968	24270
830.107	24235
830.246	24148
830.385	24053
830.524	23893
830.663	23866
830.802	23961
830.941	23710
831.08	23707
831.219	23866
831.357	23828
831.496	24030
831.635	23745
831.774	23794
831.913	23608
832.051	23604
832.19	23562
832.329	23463
832.467	23531
832.606	23364
832.744	23391
832.883	23512
833.022	23497
833.16	23501
833.299	23566
833.437	23474
833.576	23573
833.714	23497
833.852	23592
833.991	23528
834.129	23623
834.267	23566
834.406	23471
834.544	23638
834.682	23531
834.821	23463
834.959	23684
835.097	23471
835.235	23512
835.373	23471
835.511	23520
835.65	23345
835.788	23299
835.926	23208
836.064	23166
836.202	23231
836.34	23436
836.478	23440
836.615	23296
836.753	23322
836.891	23398
837.029	23391
837.167	23315
837.305	23258
837.443	23254
837.58	23128
837.718	23269
837.856	23250
837.993	23189
838.131	23200
838.269	22961
838.406	23189
838.544	22934
838.681	22839
838.819	22889
838.956	22733
839.094	22687
839.231	22702
839.369	22896
839.506	23025
839.643	22885
839.781	22736
839.918	22603
840.055	22569
840.193	22691
840.33	22706
840.467	22630
840.604	22725
840.742	22729
840.879	22413
841.016	22459
841.153	22424
841.29	22710
841.427	22500
841.564	22523
841.701	22607
841.838	22577
841.975	22500
842.112	22466
842.249	22310
842.385	22371
842.522	22470
842.659	22413
842.796	22367
842.933	22398
843.069	22333
843.206	22299
843.343	22428
843.479	22413
843.616	22402
843.752	22120
843.889	22128
844.025	22341
844.162	22219
844.298	22207
844.435	22055
844.571	22131
844.708	22139
844.844	22360
844.98	22371
845.117	22280
845.253	22120
845.389	22048
845.525	22139
845.661	21991
845.798	21842
845.934	21994
846.07	21884
846.206	21827
846.342	22025
846.478	21842
846.614	21728
846.75	21500
846.886	21606
847.022	21682
847.158	21629
847.294	21717
847.429	21743
847.565	21698
847.701	21892
847.837	21332
847.972	21374
848.108	21545
848.244	21382
848.379	21222
848.515	21252
848.65	21123
848.786	21241
848.921	21272
849.057	21340
849.192	21157
849.328	21233
849.463	21310
849.598	21180
849.734	21047
849.869	21009
850.004	21024
850.14	20971
850.275	20998
850.41	20948
850.545	20880
850.68	20937
850.815	20994
850.95	20929
851.085	21150
851.22	21100
851.355	20979
851.49	21081
851.625	20914
851.76	20952
851.895	20864
852.03	20826
852.165	20899
852.299	21032
852.434	21127
852.569	21077
852.703	20960
852.838	20971
852.973	20994
853.107	21150
853.242	20918
853.376	20849
853.511	20678
853.645	20845
853.78	20834
853.914	20720
854.048	20716
854.183	20720
854.317	20769
854.451	20918
854.585	20891
854.72	20754
854.854	20849
854.988	20682
855.122	20750
855.256	20731
855.39	20773
855.524	20842
855.658	20857
855.792	20883
855.926	20838
856.06	20842
856.194	20819
856.327	20674
856.461	20727
856.595	20781
856.729	20891
856.862	20906
856.996	20994
857.13	20826
857.263	20769
857.397	20902
857.53	20785
857.664	20750
857.797	20720
857.931	20887
858.064	20830
858.197	20948
858.331	20750
858.464	20796
858.597	20689
858.731	20746
858.864	20762
858.997	20796
859.13	20796
859.263	20804
859.396	20868
859.529	20712
859.662	20739
859.795	20667
859.928	20743
860.061	20982
860.194	21039
860.327	20800
860.46	20754
860.592	21017
860.725	21005
860.858	20944
860.99	20815
861.123	20823
861.256	20853
861.388	20693
861.521	21401
861.653	20545
861.786	20560
861.918	20606
862.05	20724
862.183	20712
862.315	20716
862.447	20902
862.58	20724
862.712	20537
862.844	20461
862.976	20644
863.108	20545
863.24	21138
863.372	20438
863.504	20492
863.636	20499
863.768	20530
863.9	20518
864.032	20454
864.164	20488
864.296	20473
864.428	20667
864.559	20560
864.691	20602
864.823	20511
864.954	20549
865.086	20442
865.217	20480
865.349	20412
865.48	20423
865.612	20511
865.743	20598
865.875	20286
866.006	20393
866.137	20461
866.269	20438
866.4	20301
866.531	20396
866.662	20377
866.793	20339
866.924	20339
867.055	20396
867.186	20336
867.317	20419
867.448	20252
867.579	20339
867.71	20309
867.841	20176
867.972	20290
868.103	20252
868.233	20370
868.364	20328
868.495	20412
868.625	20545
868.756	20754
868.886	20507
869.017	20594
869.147	20834
869.278	20777
869.408	20564
869.539	20579
869.669	20598
869.799	20735
869.929	20731
870.06	20838
870.19	20971
870.32	20864
870.45	20971
870.58	21112
870.71	21047
870.84	21199
870.97	20963
871.1	21081
871.23	21112
871.36	21184
871.489	21169
871.619	21055
871.749	21119
871.879	21135
872.008	21268
872.138	21211
872.267	21252
872.397	21089
872.526	21066
872.656	20998
872.785	20960
872.915	21173
873.044	21367
873.173	21275
873.303	21203
873.432	21302
873.561	21287
873.69	21157
873.819	21287
873.948	21294
874.077	21245
874.206	21188
874.335	21230
874.464	21249
874.593	21420
874.722	21488
874.851	21473
874.979	21496
875.108	21469
875.237	21351
875.365	21416
875.494	21500
875.623	21591
875.751	21526
875.88	21405
876.008	21580
876.136	21701
876.265	21751
876.393	21975
876.521	21975
876.65	21854
876.778	21823
876.906	21759
877.034	21816
877.162	21854
877.29	21739
877.418	21766
877.546	21888
877.674	21854
877.802	21816
877.93	21720
878.058	21846
878.185	21622
878.313	21812
878.441	21888
878.568	21637
878.696	21595
878.824	21808
878.951	21888
879.079	21915
879.206	22105
879.333	21956
879.461	21899
879.588	21937
879.715	22029
879.842	22055
879.97	21857
880.097	21652
880.224	21648
880.351	21671
880.478	21717
880.605	21542
880.732	21648
880.859	21907
880.986	21648
881.112	21648
881.239	21511
881.366	21359
881.493	21264
881.619	21298
881.746	21233
881.872	21207
881.999	21184
882.125	21051
882.252	21203
882.378	21268
882.505	21252
882.631	21135
882.757	21093
882.883	20918
883.01	20944
883.136	20842
883.262	20724
883.388	20743
883.514	20864
883.64	20864
883.766	20762
883.892	20693
884.018	20834
884.143	20811
884.269	20952
884.395	20579
884.52	20461
884.646	20579
884.772	20575
884.897	20568
885.023	20537
885.148	20674
885.274	20739
885.399	20594
885.524	20613
885.65	20636
885.775	20644
885.9	20476
886.025	20716
886.15	20613
886.275	20606
886.4	20492
886.525	20640
886.65	20396
886.775	20473
886.9	20625
887.025	20686
887.149	20446
887.274	20400
887.399	20355
887.523	20286
887.648	20191
887.773	20206
887.897	20434
888.021	20488
888.146	20202
888.27	20351
888.395	20450
888.519	20343
888.643	20355
888.767	20404
888.891	20370
889.015	20183
889.139	20199
889.263	20122
889.387	20210
889.511	20355
889.635	20282
889.759	20202
889.883	20149
890.006	20077
890.13	20183
890.254	20050
890.377	20043
890.501	19856
890.624	19890
890.748	19883
890.871	19750
890.995	19753
891.118	19761
891.241	19700
891.364	19753
891.488	19746
891.611	19620
891.734	19723
891.857	19807
891.98	19696
892.103	19772
892.226	19928
892.349	19689
892.471	19514
892.594	19696
892.717	19655
892.839	19651
892.962	19582
893.085	19681
893.207	19719
893.33	19590
893.452	19567
893.575	19807
893.697	19556
893.819	19670
893.941	19746
894.064	19845
894.186	19521
894.308	19601
894.43	19689
894.552	19670
894.674	19620
894.796	19548
894.918	19582
895.04	19476
895.161	19731
895.283	19681
895.405	19613
895.526	19696
895.648	19590
895.769	19628
895.891	19715
896.012	19635
896.134	19677
896.255	19708
896.376	19639
896.498	19719
896.619	19658
896.74	19632
896.861	19734
896.982	20005
897.103	20043
897.224	19955
897.345	19932
897.466	19959
897.587	19841
897.708	20005
897.828	19833
897.949	19795
898.07	19670
898.19	19780
898.311	19887
898.431	19837
898.552	19909
898.672	19879
898.792	19921
898.913	19845
899.033	19666
899.153	19616
899.273	19453
899.393	19597
899.513	19552
899.633	19563
899.753	19635
899.873	19453
899.993	19685
900.113	19696
900.232	19605
900.352	19491
900.472	19499
900.591	19324
900.711	19457
900.83	19373
900.95	19430
901.069	19468
901.189	19285
901.308	19076
901.427	18939
901.546	18996
901.665	19057
901.784	19000
901.904	18882
902.023	18779
902.141	18559
902.26	18551
902.379	18574
902.498	18490
902.617	18471
902.735	18486
902.854	18597
902.973	18452
903.091	18133
903.21	18079
903.328	18190
903.446	18072
903.565	17958
903.683	18091
903.801	17942
903.919	17912
904.038	17885
904.156	17821
904.274	17878
904.392	17866
904.51	17699
904.627	17783
904.745	17722
904.863	17832
904.981	17611
905.098	17395
905.216	17326
905.334	17497
905.451	17547
905.569	17455
905.686	17520
905.803	17421
905.921	17315
906.038	17307
906.155	17254
906.272	17105
906.389	17128
906.506	17067
906.623	17006
906.74	17045
906.857	16915
906.974	16839
907.091	17060
907.208	17037
907.324	17098
907.441	16949
907.557	16809
907.674	16653
907.79	16649
907.907	16713
908.023	16702
908.139	16717
908.256	16729
908.372	16626
908.488	16386
908.604	16519
908.72	16246
908.836	16432
908.952	16325
909.068	16470
909.184	16516
909.3	16519
909.415	16478
909.531	16390
909.647	16177
909.762	16112
909.878	16223
909.993	16150
910.108	16082
910.224	16112
910.339	16109
910.454	15983
910.57	15945
910.685	15945
910.8	16071
910.915	16063
911.03	15869
911.145	15842
911.259	15785
911.374	15861
911.489	15713
911.604	15679
911.718	15458
911.833	15458
911.947	15416
912.062	15188
912.176	15370
912.291	15477
912.405	15397
912.519	15667
912.633	15660
912.748	15545
912.862	15363
912.976	15336
913.09	15252
913.204	15287
913.318	15283
913.431	15386
913.545	15363
913.659	15378
913.772	15252
913.886	15176
914	15108
914.113	15192
914.226	15298
914.34	15199
914.453	14925
914.566	15154
914.68	15055
914.793	14975
914.906	14845
915.019	14693
915.132	14651
915.245	14655
915.358	14811
915.47	14727
915.583	14826
915.696	14670
915.809	14864
915.921	14830
916.034	14598
916.146	14655
916.259	14590
916.371	14693
916.483	14724
916.595	14610
916.708	14511
916.82	14602
916.932	14495
917.044	14556
917.156	14556
917.268	14381
917.38	14415
917.491	14328
917.603	14408
917.715	14518
917.826	14488
917.938	14237
918.049	14206
918.161	14336
918.272	14514
918.384	14423
918.495	14434
918.606	14172
918.717	14195
918.828	14126
918.939	14317
919.05	14092
919.161	14134
919.272	14005
919.383	14062
919.494	14206
919.604	14366
919.715	14172
919.826	14130
919.936	14115
920.047	14195
920.157	14058
920.267	14423
920.378	14050
920.488	14168
920.598	14332
920.708	14408
920.818	14275
920.928	14233
921.038	14480
921.148	14358
921.258	14161
921.368	14016
921.477	13963
921.587	13963
921.697	13761
921.806	13864
921.916	13696
922.025	13552
922.134	13548
922.244	13514
922.353	13544
922.462	13419
922.571	13343
922.68	13209
922.789	13270
922.898	13217
923.007	13133
923.116	13118
923.224	13206
923.333	13183
923.442	13091
923.55	12947
923.659	13126
923.767	13076
923.876	12958
923.984	12947
924.092	12848
924.201	12966
924.309	13072
924.417	13004
924.525	12890
924.633	12871
924.741	13803
924.849	12642
924.956	12795
925.064	12631
925.172	12566
925.279	12502
925.387	12642
925.494	12601
925.602	12726
925.709	12711
925.816	12540
925.924	12593
926.031	12642
926.138	12544
926.245	12604
926.352	12410
926.459	12582
926.566	12650
926.673	12521
926.779	12372
926.886	12311
926.993	12247
927.099	12220
927.206	12144
927.312	12178
927.419	12308
927.525	12155
927.631	12133
927.737	12076
927.843	12079
927.95	11916
928.056	12019
928.162	11999
928.267	12110
928.373	12688
928.479	12148
928.585	11961
928.69	11954
928.796	12019
928.901	11851
929.007	11764
929.112	11942
929.218	11954
929.323	11802
929.428	11783
929.533	11904
929.638	11680
929.743	11684
929.848	11813
929.953	11642
930.058	11596
930.163	11459
930.267	11478
930.372	11592
930.477	11391
930.581	11653
930.685	11448
930.79	11448
930.894	11349
930.998	11280
931.103	11474
931.207	11174
931.311	11029
931.415	10873
931.519	10820
931.623	10839
