Data from test_V78500241_2253.txt Node
Date: Fri Mar 25 15:25:32 CST 2022
User: usil
Spectrometer: V785-0024
Trigger mode: 0
Integration Time (sec): 4.000000E-1
Scans to average: 1
Nonlinearity correction enabled: false
Boxcar width: 0
Storing dark spectrum: false
XAxis mode: Wavelengths
Number of Pixels in Spectrum: 1024
>>>>>Begin Spectral Data<<<<<
801.071	27698
801.214	27644
801.356	27538
801.499	27416
801.641	27207
801.783	27340
801.926	27203
802.068	27218
802.211	27127
802.353	27077
802.496	26979
802.638	26948
802.78	26982
802.923	26800
803.065	26834
803.208	26853
803.35	27028
803.492	26998
803.635	27161
803.777	27173
803.919	27146
804.061	27473
804.204	27237
804.346	27142
804.488	27047
804.63	27116
804.773	27047
804.915	27154
805.057	27245
805.199	27176
805.341	27264
805.483	27302
805.626	27176
805.768	27203
805.91	27226
806.052	27283
806.194	27199
806.336	27401
806.478	27291
806.62	27268
806.762	27496
806.904	27477
807.046	27797
807.188	27633
807.33	27671
807.472	27671
807.614	27507
807.756	27595
807.898	27538
808.04	27435
808.182	27583
808.324	27340
808.465	27583
808.607	27698
808.749	27964
808.891	27964
809.033	27842
809.174	27865
809.316	27751
809.458	27778
809.6	27781
809.741	27991
809.883	28059
810.025	28173
810.166	28086
810.308	28051
810.45	28166
810.591	28040
810.733	27895
810.875	27774
811.016	27637
811.158	27747
811.299	27861
811.441	27922
811.582	28013
811.724	27797
811.865	27759
812.007	27766
812.148	27728
812.29	27964
812.431	28044
812.573	28124
812.714	28295
812.855	28424
812.997	28497
813.138	28588
813.279	28424
813.421	28409
813.562	28436
813.703	28238
813.845	28120
813.986	27850
814.127	27720
814.268	27648
814.41	27519
814.551	27507
814.692	27568
814.833	27477
814.974	27572
815.115	27500
815.256	27439
815.397	27370
815.539	27431
815.68	27313
815.821	27313
815.962	27412
816.103	27256
816.244	27252
816.385	27150
816.526	27077
816.666	26899
816.807	26857
816.948	26773
817.089	26979
817.23	26811
817.371	26830
817.512	26899
817.653	26777
817.793	26731
817.934	26834
818.075	26834
818.216	26895
818.356	26674
818.497	26689
818.638	26492
818.778	26587
818.919	26518
819.06	26781
819.2	26754
819.341	26876
819.481	26765
819.622	26906
819.762	27020
819.903	27165
820.043	26899
820.184	26876
820.324	26967
820.465	26940
820.605	26727
820.746	26830
820.886	26857
821.026	26921
821.167	26853
821.307	26891
821.447	26891
821.588	26743
821.728	26537
821.868	26393
822.008	26450
822.149	26396
822.289	26138
822.429	26084
822.569	26016
822.709	25940
822.849	25746
822.99	25803
823.13	25681
823.27	25772
823.41	25540
823.55	25483
823.69	25586
823.83	25601
823.97	25647
824.11	25407
824.25	25377
824.389	25506
824.529	25491
824.669	25491
824.809	25533
824.949	25529
825.089	25529
825.228	25594
825.368	25179
825.508	25228
825.648	25415
825.787	25206
825.927	25346
826.067	25304
826.206	25350
826.346	25221
826.485	25335
826.625	25331
826.765	25343
826.904	25381
827.044	25069
827.183	25118
827.323	25053
827.462	25069
827.601	25023
827.741	25095
827.88	24951
828.02	24920
828.159	25000
828.298	24996
828.437	24962
828.577	24981
828.716	24985
828.855	24779
828.994	24738
829.134	24768
829.273	24627
829.412	24635
829.551	24658
829.69	24692
829.829	24711
829.968	24768
830.107	24764
830.246	24715
830.385	24604
830.524	24620
830.663	24525
830.802	24426
830.941	24384
831.08	24239
831.219	24433
831.357	24399
831.496	24551
831.635	24338
831.774	24327
831.913	24159
832.051	24030
832.19	24060
832.329	24190
832.467	23961
832.606	23965
832.744	24011
832.883	24007
833.022	24015
833.16	24018
833.299	24129
833.437	24140
833.576	23980
833.714	23980
833.852	24125
833.991	24038
834.129	24079
834.267	24102
834.406	24079
834.544	24171
834.682	24068
834.821	24057
834.959	24167
835.097	23950
835.235	24079
835.373	24079
835.511	24018
835.65	23866
835.788	23889
835.926	23657
836.064	23748
836.202	23714
836.34	23885
836.478	23939
836.615	23897
836.753	24003
836.891	23901
837.029	23927
837.167	23828
837.305	23851
837.443	23866
837.58	23790
837.718	23859
837.856	23764
837.993	23783
838.131	23824
838.269	23539
838.406	23748
838.544	23596
838.681	23292
838.819	23364
838.956	23299
839.094	23185
839.231	23231
839.369	23398
839.506	23718
839.643	23433
839.781	23288
839.918	23337
840.055	23231
840.193	23200
840.33	23147
840.467	22972
840.604	23155
840.742	23261
840.879	23083
841.016	23094
841.153	23052
841.29	23242
841.427	23185
841.564	23124
841.701	23060
841.838	22976
841.975	23090
842.112	23044
842.249	22930
842.385	22889
842.522	23113
842.659	22782
842.796	22805
842.933	22949
843.069	22877
843.206	22774
843.343	22869
843.479	22930
843.616	22862
843.752	22569
843.889	22653
844.025	22892
844.162	22634
844.298	22683
844.435	22599
844.571	22569
844.708	22653
844.844	22687
844.98	22691
845.117	22725
845.253	22592
845.389	22516
845.525	22516
845.661	22565
845.798	22424
845.934	22474
846.07	22379
846.206	22459
846.342	22428
846.478	22223
846.614	22135
846.75	22128
846.886	22082
847.022	22101
847.158	22128
847.294	22185
847.429	22223
847.565	22128
847.701	22310
847.837	21812
847.972	21808
848.108	21895
848.244	21907
848.379	21698
848.515	21629
848.65	21732
848.786	21728
848.921	21603
849.057	21850
849.192	21838
849.328	21728
849.463	21778
849.598	21606
849.734	21641
849.869	21610
850.004	21481
850.14	21443
850.275	21439
850.41	21344
850.545	21306
850.68	21587
850.815	21424
850.95	21420
851.085	21671
851.22	21542
851.355	21462
851.49	21389
851.625	21450
851.76	21405
851.895	21435
852.03	21405
852.165	21534
852.299	21428
852.434	21629
852.569	21469
852.703	21424
852.838	21485
852.973	21572
853.107	21591
853.242	21443
853.376	21287
853.511	21112
853.645	21336
853.78	21374
853.914	21355
854.048	21310
854.183	21207
854.317	21302
854.451	21389
854.585	21408
854.72	21245
854.854	21405
854.988	21279
855.122	21176
855.256	21058
855.39	21226
855.524	21367
855.658	21424
855.792	21325
855.926	21272
856.06	21272
856.194	21272
856.327	21317
856.461	21241
856.595	21249
856.729	21351
856.862	21359
856.996	21386
857.13	21370
857.263	21412
857.397	21363
857.53	21363
857.664	21348
857.797	21268
857.931	21401
858.064	21397
858.197	21378
858.331	21272
858.464	21256
858.597	21176
858.731	21268
858.864	21264
858.997	21306
859.13	21291
859.263	21298
859.396	21397
859.529	21279
859.662	21142
859.795	21275
859.928	21302
860.061	21450
860.194	21595
860.327	21302
860.46	21302
860.592	21443
860.725	21435
860.858	21431
860.99	21329
861.123	21256
861.256	21199
861.388	21291
861.521	21960
861.653	21127
861.786	21104
861.918	21077
862.05	21039
862.183	21146
862.315	21355
862.447	21211
862.58	21085
862.712	21138
862.844	20929
862.976	21173
863.108	20998
863.24	21431
863.372	20967
863.504	20902
863.636	20929
863.768	21047
863.9	21036
864.032	20891
864.164	20948
864.296	20914
864.428	21077
864.559	20925
864.691	21032
864.823	20998
864.954	20986
865.086	20986
865.217	20868
865.349	20804
865.48	20864
865.612	20826
865.743	21131
865.875	20933
866.006	20826
866.137	20838
866.269	20887
866.4	20701
866.531	20902
866.662	20686
866.793	20914
866.924	20872
867.055	20849
867.186	20788
867.317	20807
867.448	20682
867.579	20743
867.71	20845
867.841	20640
867.972	20982
868.103	20724
868.233	20811
868.364	20925
868.495	20887
868.625	21135
868.756	21211
868.886	20998
869.017	20998
869.147	21112
869.278	21093
869.408	21066
869.539	21055
869.669	21051
869.799	21203
869.929	21199
870.06	21108
870.19	21447
870.32	21275
870.45	21291
870.58	21386
870.71	21606
870.84	21488
870.97	21477
871.1	21462
871.23	21724
871.36	21663
871.489	21686
871.619	21603
871.749	21561
871.879	21793
872.008	21831
872.138	21595
872.267	21599
872.397	21500
872.526	21485
872.656	21481
872.785	21534
872.915	21644
873.044	21823
873.173	21701
873.303	21671
873.432	21778
873.561	21679
873.69	21679
873.819	21701
873.948	21690
874.077	21690
874.206	21656
874.335	21709
874.464	21675
874.593	21945
874.722	21751
874.851	21892
874.979	21892
875.108	22051
875.237	21831
875.365	21789
875.494	21831
875.623	21854
875.751	21869
875.88	21850
876.008	22044
876.136	22147
876.265	22329
876.393	22322
876.521	22348
876.65	22356
876.778	22246
876.906	22223
877.034	22147
877.162	22367
877.29	22139
877.418	22215
877.546	22181
877.674	22253
877.802	22230
877.93	22287
878.058	22177
878.185	21991
878.313	22265
878.441	22314
878.568	22067
878.696	22211
878.824	22287
878.951	22211
879.079	22382
879.206	22493
879.333	22432
879.461	22284
879.588	22207
879.715	22348
879.842	22519
879.97	22360
880.097	22051
880.224	22143
880.351	22029
880.478	22040
880.605	22048
880.732	22055
880.859	22215
880.986	22128
881.112	22105
881.239	21934
881.366	21804
881.493	21747
881.619	21610
881.746	21583
881.872	21682
881.999	21572
882.125	21557
882.252	21610
882.378	21591
882.505	21732
882.631	21382
882.757	21443
882.883	21435
883.01	21393
883.136	21268
883.262	21093
883.388	21184
883.514	21313
883.64	21389
883.766	21256
883.892	21165
884.018	21112
884.143	21287
884.269	21344
884.395	21112
884.52	21017
884.646	20891
884.772	21077
884.897	20998
885.023	20982
885.148	20971
885.274	21074
885.399	21077
885.524	20994
885.65	21001
885.775	20948
885.9	20910
886.025	21047
886.15	21039
886.275	20941
886.4	20883
886.525	20986
886.65	20876
886.775	20921
886.9	21051
887.025	21272
887.149	20937
887.274	20876
887.399	20735
887.523	20686
887.648	20640
887.773	20648
887.897	20773
888.021	20834
888.146	20659
888.27	20861
888.395	20705
888.519	20815
888.643	20788
888.767	20682
888.891	20712
889.015	20530
889.139	20545
889.263	20541
889.387	20590
889.511	20712
889.635	20701
889.759	20511
889.883	20503
890.006	20492
890.13	20564
890.254	20503
890.377	20507
890.501	20305
890.624	20294
890.748	20343
890.871	20138
890.995	20073
891.118	19970
891.241	20077
891.364	20149
891.488	20244
891.611	20119
891.734	20157
891.857	20248
891.98	20043
892.103	20191
892.226	20008
892.349	20024
892.471	20020
892.594	20001
892.717	20058
892.839	20077
892.962	19974
893.085	20145
893.207	20111
893.33	19921
893.452	19982
893.575	19917
893.697	20092
893.819	20191
893.941	20259
894.064	20084
894.186	19989
894.308	19986
894.43	20039
894.552	20183
894.674	20081
894.796	19898
894.918	19982
895.04	19967
895.161	20103
895.283	19978
895.405	20054
895.526	20149
895.648	19944
895.769	20005
895.891	19978
896.012	20035
896.134	20111
896.255	19894
896.376	20012
896.498	20008
896.619	20073
896.74	20103
896.861	20130
896.982	20355
897.103	20522
897.224	20248
897.345	20339
897.466	20164
897.587	20263
897.708	20298
897.828	20301
897.949	20275
898.07	20016
898.19	20145
898.311	20328
898.431	20218
898.552	20126
898.672	20339
898.792	20400
898.913	20336
899.033	20183
899.153	20016
899.273	19757
899.393	20031
899.513	20012
899.633	20081
899.753	20016
899.873	19982
899.993	20069
900.113	19978
900.232	19928
900.352	19769
900.472	19951
900.591	19704
900.711	19719
900.83	19662
900.95	19970
901.069	19871
901.189	19719
901.308	19422
901.427	19327
901.546	19415
901.665	19369
901.784	19365
901.904	19171
902.023	19187
902.141	18894
902.26	18932
902.379	18890
902.498	18928
902.617	18848
902.735	18939
902.854	18817
902.973	18871
903.091	18616
903.21	18547
903.328	18521
903.446	18456
903.565	18342
903.683	18361
903.801	18186
903.919	18285
904.038	18342
904.156	18163
904.274	18102
904.392	18220
904.51	18144
904.627	18148
904.745	18064
904.863	18228
904.981	17828
905.098	17771
905.216	17790
905.334	17885
905.451	17821
905.569	17798
905.686	17764
905.803	17836
905.921	17680
906.038	17687
906.155	17634
906.272	17459
906.389	17528
906.506	17326
906.623	17307
906.74	17307
906.857	17132
906.974	17193
907.091	17376
907.208	17490
907.324	17360
907.441	17178
907.557	17174
907.674	17025
907.79	16915
907.907	17140
908.023	17109
908.139	17132
908.256	16919
908.372	16873
908.488	16938
908.604	16889
908.72	16771
908.836	16824
908.952	16767
909.068	16797
909.184	16904
909.3	16824
909.415	16892
909.531	16805
909.647	16485
909.762	16546
909.878	16455
909.993	16497
910.108	16481
910.224	16516
910.339	16470
910.454	16310
910.57	16314
910.685	16257
910.8	16470
910.915	16447
911.03	16310
911.145	16021
911.259	16063
911.374	16147
911.489	16074
911.604	15918
911.718	15907
911.833	15816
911.947	15835
912.062	15660
912.176	15644
912.291	15960
912.405	15728
912.519	15972
912.633	15991
912.748	15934
912.862	15797
912.976	15644
913.09	15492
913.204	15595
913.318	15610
913.431	15739
913.545	15682
913.659	15880
913.772	15713
913.886	15526
914	15458
914.113	15625
914.226	15477
914.34	15488
914.453	15336
914.566	15526
914.68	15336
914.793	15272
914.906	15161
915.019	15135
915.132	14986
915.245	15104
915.358	15131
915.47	15097
915.583	15051
915.696	15093
915.809	15104
915.921	15214
916.034	15001
916.146	14910
916.259	14948
916.371	15009
916.483	14944
916.595	14914
916.708	14910
916.82	14891
916.932	14887
917.044	14902
917.156	14902
917.268	14712
917.38	14712
917.491	14693
917.603	14754
917.715	14765
917.826	14800
917.938	14689
918.049	14549
918.161	14663
918.272	14705
918.384	14712
918.495	14655
918.606	14518
918.717	14431
918.828	14484
918.939	14530
919.05	14343
919.161	14423
919.272	14240
919.383	14282
919.494	14526
919.604	14670
919.715	14488
919.826	14374
919.936	14492
920.047	14465
920.157	14488
920.267	14610
920.378	14366
920.488	14492
920.598	14621
920.708	14777
920.818	14568
920.928	14598
921.038	14708
921.148	14682
921.258	14351
921.368	14271
921.477	14187
921.587	14157
921.697	14050
921.806	14153
921.916	14077
922.025	13936
922.134	13753
922.244	13731
922.353	13841
922.462	13704
922.571	13578
922.68	13445
922.789	13472
922.898	13552
923.007	13445
923.116	13556
923.224	13438
923.333	13377
923.442	13434
923.55	13308
923.659	13263
923.767	13373
923.876	13225
923.984	13266
924.092	13221
924.201	13339
924.309	13247
924.417	13293
924.525	13175
924.633	13251
924.741	13898
924.849	12920
924.956	13008
925.064	12966
925.172	12859
925.279	12844
925.387	12951
925.494	12947
925.602	13023
925.709	12924
925.816	12810
925.924	12760
926.031	12901
926.138	12779
926.245	12867
926.352	12745
926.459	12837
926.566	12867
926.673	12768
926.779	12681
926.886	12642
926.993	12471
927.099	12513
927.206	12395
927.312	12330
927.419	12521
927.525	12464
927.631	12467
927.737	12410
927.843	12289
927.95	12262
928.056	12296
928.162	12232
928.267	12315
928.373	12958
928.479	12346
928.585	12144
928.69	12197
928.796	12311
928.901	12140
929.007	11973
929.112	12209
929.218	12133
929.323	12022
929.428	11958
929.533	12232
929.638	11965
929.743	11916
929.848	11973
929.953	11889
930.058	11843
930.163	11695
930.267	11672
930.372	11840
930.477	11748
930.581	11874
930.685	11722
930.79	11592
930.894	11638
930.998	11543
931.103	11661
931.207	11360
931.311	11246
931.415	11220
931.519	11003
931.623	10900
