Data from test_V78500241_1238.txt Node
Date: Fri Mar 25 15:18:28 CST 2022
User: usil
Spectrometer: V785-0024
Trigger mode: 0
Integration Time (sec): 4.000000E-1
Scans to average: 1
Nonlinearity correction enabled: false
Boxcar width: 0
Storing dark spectrum: false
XAxis mode: Wavelengths
Number of Pixels in Spectrum: 1024
>>>>>Begin Spectral Data<<<<<
801.071	28147
801.214	27968
801.356	27831
801.499	27743
801.641	27656
801.783	27519
801.926	27694
802.068	27625
802.211	27458
802.353	27504
802.496	27367
802.638	27283
802.78	27348
802.923	27249
803.065	27264
803.208	27431
803.35	27195
803.492	27485
803.635	27466
803.777	27321
803.919	27488
804.061	27816
804.204	27542
804.346	27431
804.488	27233
804.63	27732
804.773	27515
804.915	27618
805.057	27656
805.199	27458
805.341	27466
805.483	27667
805.626	27614
805.768	27606
805.91	27671
806.052	27743
806.194	27542
806.336	27633
806.478	27690
806.62	27633
806.762	27724
806.904	27831
807.046	28128
807.188	27972
807.33	27949
807.472	28181
807.614	28013
807.756	27922
807.898	28036
808.04	27808
808.182	27827
808.324	27857
808.465	28090
808.607	28131
808.749	28382
808.891	28527
809.033	28493
809.174	28405
809.316	28253
809.458	28272
809.6	28234
809.741	28337
809.883	28462
810.025	28531
810.166	28535
810.308	28641
810.45	28523
810.591	28538
810.733	28401
810.875	28344
811.016	28154
811.158	28090
811.299	28356
811.441	28535
811.582	28557
811.724	28325
811.865	28352
812.007	28306
812.148	28401
812.29	28409
812.431	28413
812.573	28615
812.714	28869
812.855	28831
812.997	28957
813.138	29086
813.279	28930
813.421	28942
813.562	28763
813.703	28641
813.845	28546
813.986	28424
814.127	28067
814.268	28063
814.41	28097
814.551	27926
814.692	28128
814.833	27937
814.974	28002
815.115	27918
815.256	27709
815.397	27884
815.539	27739
815.68	27907
815.821	27720
815.962	27854
816.103	27736
816.244	27781
816.385	27728
816.526	27576
816.666	27435
816.807	27389
816.948	27500
817.089	27447
817.23	27351
817.371	27386
817.512	27355
817.653	27382
817.793	27203
817.934	27211
818.075	27355
818.216	27458
818.356	27222
818.497	27195
818.638	26910
818.778	27104
818.919	27252
819.06	27173
819.2	27249
819.341	27214
819.481	27268
819.622	27576
819.762	27610
819.903	27568
820.043	27447
820.184	27481
820.324	27447
820.465	27496
820.605	27523
820.746	27351
820.886	27233
821.026	27325
821.167	27481
821.307	27389
821.447	27363
821.588	27222
821.728	27135
821.868	26883
822.008	26735
822.149	26720
822.289	26864
822.429	26488
822.569	26476
822.709	26438
822.849	26248
822.99	26389
823.13	26282
823.27	26161
823.41	26031
823.55	26054
823.69	26122
823.83	26111
823.97	26069
824.11	26012
824.25	25944
824.389	25913
824.529	25959
824.669	25944
824.809	26084
824.949	26005
825.089	25978
825.228	26058
825.368	25803
825.508	25765
825.648	25776
825.787	25898
825.927	25932
826.067	25795
826.206	25746
826.346	25860
826.485	25795
826.625	25772
826.765	25883
826.904	25833
827.044	25521
827.183	25590
827.323	25487
827.462	25605
827.601	25506
827.741	25525
827.88	25597
828.02	25346
828.159	25537
828.298	25594
828.437	25575
828.577	25544
828.716	25685
828.855	25434
828.994	25304
829.134	25301
829.273	25426
829.412	25274
829.551	25209
829.69	25217
829.829	25259
829.968	25384
830.107	25289
830.246	25270
830.385	25206
830.524	25095
830.663	25114
830.802	25034
830.941	24787
831.08	24802
831.219	24928
831.357	24916
831.496	25148
831.635	24844
831.774	24787
831.913	24745
832.051	24665
832.19	24677
832.329	24798
832.467	24612
832.606	24479
832.744	24490
832.883	24528
833.022	24494
833.16	24559
833.299	24673
833.437	24707
833.576	24681
833.714	24593
833.852	24627
833.991	24753
834.129	24764
834.267	24783
834.406	24620
834.544	24749
834.682	24646
834.821	24688
834.959	24734
835.097	24566
835.235	24612
835.373	24612
835.511	24509
835.65	24467
835.788	24388
835.926	24536
836.064	24247
836.202	24232
836.34	24517
836.478	24574
836.615	24376
836.753	24330
836.891	24414
837.029	24422
837.167	24365
837.305	24369
837.443	24197
837.58	24262
837.718	24376
837.856	24327
837.993	24159
838.131	24319
838.269	24079
838.406	24140
838.544	24201
838.681	23999
838.819	23923
838.956	23821
839.094	23859
839.231	23809
839.369	23859
839.506	24098
839.643	23992
839.781	23718
839.918	23665
840.055	23748
840.193	23695
840.33	23566
840.467	23657
840.604	23676
840.742	23977
840.879	23573
841.016	23627
841.153	23687
841.29	23824
841.427	23676
841.564	23703
841.701	23630
841.838	23634
841.975	23600
842.112	23486
842.249	23421
842.385	23421
842.522	23623
842.659	23303
842.796	23322
842.933	23364
843.069	23501
843.206	23493
843.343	23417
843.479	23296
843.616	23421
843.752	23174
843.889	23128
844.025	23250
844.162	23174
844.298	23273
844.435	23208
844.571	23121
844.708	23208
844.844	23307
844.98	23269
845.117	23364
845.253	23227
845.389	23003
845.525	23193
845.661	23025
845.798	22953
845.934	22911
846.07	22927
846.206	22908
846.342	22984
846.478	22923
846.614	22736
846.75	22622
846.886	22584
847.022	22672
847.158	22736
847.294	22653
847.429	22771
847.565	22759
847.701	23018
847.837	22314
847.972	22318
848.108	22421
848.244	22409
848.379	22341
848.515	22265
848.65	22150
848.786	22272
848.921	22226
849.057	22379
849.192	22466
849.328	22344
849.463	22405
849.598	22204
849.734	22185
849.869	22032
850.004	22059
850.14	22101
850.275	22055
850.41	22021
850.545	21949
850.68	22040
850.815	22063
850.95	22067
851.085	22120
851.22	22078
851.355	21983
851.49	22048
851.625	22013
851.76	21930
851.895	21979
852.03	21861
852.165	21994
852.299	21968
852.434	22234
852.569	22086
852.703	21998
852.838	21922
852.973	22268
853.107	22131
853.242	21937
853.376	21865
853.511	21637
853.645	21732
853.78	22025
853.914	21812
854.048	21793
854.183	21804
854.317	21930
854.451	21960
854.585	21842
854.72	21846
854.854	21884
854.988	21797
855.122	21918
855.256	21641
855.39	21793
855.524	21850
855.658	21812
855.792	21873
855.926	21793
856.06	21903
856.194	21922
856.327	21785
856.461	21812
856.595	21857
856.729	21846
856.862	21895
856.996	21812
857.13	21873
857.263	21827
857.397	21774
857.53	21766
857.664	21804
857.797	21865
857.931	21922
858.064	21983
858.197	21956
858.331	21816
858.464	21903
858.597	21637
858.731	21911
858.864	21800
858.997	21766
859.13	21778
859.263	21743
859.396	21941
859.529	21945
859.662	21694
859.795	21804
859.928	21861
860.061	21979
860.194	22032
860.327	21892
860.46	21816
860.592	22055
860.725	21922
860.858	21941
860.99	21823
861.123	21778
861.256	21797
861.388	21846
861.521	22569
861.653	21747
861.786	21530
861.918	21587
862.05	21698
862.183	21701
862.315	21964
862.447	21812
862.58	21778
862.712	21603
862.844	21370
862.976	21625
863.108	21660
863.24	21888
863.372	21511
863.504	21599
863.636	21496
863.768	21591
863.9	21591
864.032	21435
864.164	21504
864.296	21473
864.428	21595
864.559	21633
864.691	21580
864.823	21572
864.954	21526
865.086	21359
865.217	21454
865.349	21420
865.48	21466
865.612	21359
865.743	21454
865.875	21431
866.006	21370
866.137	21424
866.269	21481
866.4	21374
866.531	21405
866.662	21370
866.793	21287
866.924	21401
867.055	21412
867.186	21405
867.317	21214
867.448	21207
867.579	21302
867.71	21370
867.841	21279
867.972	21370
868.103	21313
868.233	21226
868.364	21252
868.495	21397
868.625	21549
868.756	21778
868.886	21557
869.017	21568
869.147	21587
869.278	21720
869.408	21606
869.539	21652
869.669	21656
869.799	21675
869.929	21755
870.06	21656
870.19	21850
870.32	21876
870.45	21949
870.58	21949
870.71	22124
870.84	22090
870.97	21960
871.1	22006
871.23	22139
871.36	22105
871.489	22173
871.619	22116
871.749	22154
871.879	22223
872.008	22242
872.138	22223
872.267	22067
872.397	22070
872.526	21873
872.656	22101
872.785	22074
872.915	22219
873.044	22207
873.173	22188
873.303	22196
873.432	22173
873.561	22265
873.69	22219
873.819	22181
873.948	22310
874.077	22196
874.206	22090
874.335	22162
874.464	22287
874.593	22455
874.722	22314
874.851	22409
874.979	22459
875.108	22440
875.237	22451
875.365	22405
875.494	22466
875.623	22462
875.751	22394
875.88	22440
876.008	22546
876.136	22523
876.265	22839
876.393	23044
876.521	22957
876.65	22843
876.778	22881
876.906	22717
877.034	22683
877.162	22713
877.29	22706
877.418	22645
877.546	22790
877.674	22729
877.802	22774
877.93	22763
878.058	22729
878.185	22691
878.313	22790
878.441	22790
878.568	22512
878.696	22694
878.824	22767
878.951	22866
879.079	22984
879.206	23117
879.333	22854
879.461	22820
879.588	22889
879.715	22908
879.842	23037
879.97	22687
880.097	22451
880.224	22557
880.351	22611
880.478	22615
880.605	22557
880.732	22702
880.859	22740
880.986	22554
881.112	22611
881.239	22413
881.366	22268
881.493	22120
881.619	22158
881.746	22124
881.872	22093
881.999	22109
882.125	22059
882.252	22082
882.378	22059
882.505	22329
882.631	22067
882.757	21930
882.883	21983
883.01	21865
883.136	21846
883.262	21717
883.388	21633
883.514	21835
883.64	21846
883.766	21682
883.892	21561
884.018	21625
884.143	21762
884.269	21789
884.395	21553
884.52	21401
884.646	21572
884.772	21439
884.897	21367
885.023	21450
885.148	21557
885.274	21606
885.399	21587
885.524	21416
885.65	21458
885.775	21545
885.9	21526
886.025	21603
886.15	21519
886.275	21538
886.4	21412
886.525	21447
886.65	21370
886.775	21382
886.9	21507
887.025	21713
887.149	21492
887.274	21367
887.399	21268
887.523	21081
887.648	21241
887.773	21146
887.897	21348
888.021	21207
888.146	21104
888.27	21374
888.395	21310
888.519	21351
888.643	21252
888.767	21230
888.891	21089
889.015	21081
889.139	21211
889.263	20971
889.387	21058
889.511	21169
889.635	21096
889.759	21005
889.883	21058
890.006	21043
890.13	21207
890.254	20895
890.377	21047
890.501	20773
890.624	20769
890.748	20925
890.871	20693
890.995	20670
891.118	20533
891.241	20739
891.364	20625
891.488	20765
891.611	20670
891.734	20659
891.857	20724
891.98	20549
892.103	20712
892.226	20541
892.349	20583
892.471	20438
892.594	20476
892.717	20636
892.839	20461
892.962	20434
893.085	20499
893.207	20438
893.33	20408
893.452	20450
893.575	20530
893.697	20400
893.819	20644
893.941	20705
894.064	20629
894.186	20450
894.308	20480
894.43	20564
894.552	20674
894.674	20552
894.796	20339
894.918	20476
895.04	20537
895.161	20499
895.283	20556
895.405	20362
895.526	20511
895.648	20480
895.769	20522
895.891	20518
896.012	20644
896.134	20537
896.255	20488
896.376	20419
896.498	20579
896.619	20526
896.74	20492
896.861	20507
896.982	20792
897.103	20975
897.224	20781
897.345	20758
897.466	20712
897.587	20785
897.708	20849
897.828	20765
897.949	20735
898.07	20473
898.19	20701
898.311	20594
898.431	20450
898.552	20693
898.672	20834
898.792	20762
898.913	20762
899.033	20564
899.153	20476
899.273	20305
899.393	20396
899.513	20495
899.633	20533
899.753	20454
899.873	20332
899.993	20492
900.113	20320
900.232	20446
900.352	20374
900.472	20290
900.591	20176
900.711	20161
900.83	20202
900.95	20427
901.069	20221
901.189	20077
901.308	19917
901.427	19712
901.546	19727
901.665	19803
901.784	19784
901.904	19685
902.023	19613
902.141	19453
902.26	19320
902.379	19369
902.498	19282
902.617	19316
902.735	19297
902.854	19259
902.973	19266
903.091	18958
903.21	18973
903.328	18928
903.446	19023
903.565	18764
903.683	18707
903.801	18650
903.919	18817
904.038	18673
904.156	18467
904.274	18570
904.392	18452
904.51	18365
904.627	18486
904.745	18540
904.863	18601
904.981	18311
905.098	18106
905.216	18167
905.334	18171
905.451	18171
905.569	18152
905.686	18155
905.803	18091
905.921	18011
906.038	18072
906.155	18038
906.272	18003
906.389	17901
906.506	17718
906.623	17794
906.74	17729
906.857	17581
906.974	17608
907.091	17775
907.208	17958
907.324	17771
907.441	17718
907.557	17516
907.674	17539
907.79	17387
907.907	17444
908.023	17471
908.139	17391
908.256	17356
908.372	17345
908.488	17376
908.604	17170
908.72	17166
908.836	17151
908.952	17170
909.068	17223
909.184	17246
909.3	17124
909.415	17265
909.531	17079
909.647	17041
909.762	16908
909.878	16835
909.993	16820
910.108	16820
910.224	16946
910.339	16805
910.454	16812
910.57	16740
910.685	16603
910.8	16889
910.915	16809
911.03	16733
911.145	16550
911.259	16421
911.374	16538
911.489	16360
911.604	16272
911.718	16226
911.833	16318
911.947	16120
912.062	15975
912.176	16150
912.291	16181
912.405	16234
912.519	16322
912.633	16360
912.748	16215
912.862	16169
912.976	16093
913.09	15884
913.204	15922
913.318	15949
913.431	16112
913.545	16139
913.659	16166
913.772	16029
913.886	15812
914	15747
914.113	15968
914.226	16002
914.34	15766
914.453	15720
914.566	15869
914.68	15713
914.793	15637
914.906	15568
915.019	15355
915.132	15317
915.245	15374
915.358	15481
915.47	15477
915.583	15443
915.696	15397
915.809	15435
915.921	15599
916.034	15294
916.146	15302
916.259	15233
916.371	15393
916.483	15256
916.595	15268
916.708	15298
916.82	15283
916.932	15256
917.044	15173
917.156	15097
917.268	15013
917.38	15093
917.491	15055
917.603	15093
917.715	15017
917.826	15066
917.938	14941
918.049	14830
918.161	15028
918.272	15077
918.384	15138
918.495	14967
918.606	14800
918.717	14796
918.828	14826
918.939	14765
919.05	14701
919.161	14712
919.272	14541
919.383	14556
919.494	14804
919.604	15001
919.715	14807
919.826	14743
919.936	14655
920.047	14830
920.157	14678
920.267	14891
920.378	14815
920.488	14697
920.598	14883
920.708	15055
920.818	14876
920.928	14853
921.038	14998
921.148	14883
921.258	14735
921.368	14632
921.477	14469
921.587	14507
921.697	14362
921.806	14457
921.916	14301
922.025	14161
922.134	14111
922.244	14039
922.353	14138
922.462	13982
922.571	13925
922.68	13795
922.789	13791
922.898	13795
923.007	13715
923.116	13822
923.224	13795
923.333	13734
923.442	13605
923.55	13578
923.659	13712
923.767	13651
923.876	13453
923.984	13548
924.092	13400
924.201	13537
924.309	13400
924.417	13506
924.525	13381
924.633	13453
924.741	14180
924.849	13198
924.956	13282
925.064	13289
925.172	13194
925.279	13240
925.387	13183
925.494	13145
925.602	13255
925.709	13141
925.816	13053
925.924	13038
926.031	13149
926.138	13141
926.245	13141
926.352	13027
926.459	13088
926.566	13175
926.673	13038
926.779	12935
926.886	12939
926.993	12787
927.099	12760
927.206	12703
927.312	12665
927.419	12749
927.525	12753
927.631	12703
927.737	12601
927.843	12509
927.95	12486
928.056	12525
928.162	12669
928.267	12532
928.373	13259
928.479	12597
928.585	12338
928.69	12410
928.796	12506
928.901	12346
929.007	12292
929.112	12414
929.218	12388
929.323	12277
929.428	12205
929.533	12357
929.638	12129
929.743	12235
929.848	12228
929.953	12190
930.058	12102
930.163	11984
930.267	11908
930.372	12049
930.477	11912
930.581	12117
930.685	11885
930.79	11878
930.894	11783
930.998	11707
931.103	11999
931.207	11532
931.311	11452
931.415	11391
931.519	11277
931.623	11181
