Data from test_V78500241_2006.txt Node
Date: Fri Mar 25 15:23:49 CST 2022
User: usil
Spectrometer: V785-0024
Trigger mode: 0
Integration Time (sec): 4.000000E-1
Scans to average: 1
Nonlinearity correction enabled: false
Boxcar width: 0
Storing dark spectrum: false
XAxis mode: Wavelengths
Number of Pixels in Spectrum: 1024
>>>>>Begin Spectral Data<<<<<
801.071	27720
801.214	27682
801.356	27469
801.499	27408
801.641	27233
801.783	27226
801.926	27256
802.068	27313
802.211	27199
802.353	27142
802.496	27051
802.638	26929
802.78	26857
802.923	26834
803.065	26906
803.208	26686
803.35	26883
803.492	27165
803.635	27211
803.777	26918
803.919	27024
804.061	27340
804.204	27169
804.346	27100
804.488	26967
804.63	27165
804.773	26906
804.915	27127
805.057	27249
805.199	27009
805.341	27195
805.483	27268
805.626	27313
805.768	27070
805.91	27169
806.052	27283
806.194	27207
806.336	27481
806.478	27249
806.62	27176
806.762	27382
806.904	27302
807.046	27610
807.188	27644
807.33	27770
807.472	27648
807.614	27538
807.756	27542
807.898	27492
808.04	27386
808.182	27420
808.324	27488
808.465	27511
808.607	27778
808.749	27816
808.891	27835
809.033	27956
809.174	27949
809.316	27793
809.458	27835
809.6	27747
809.741	27880
809.883	28036
810.025	28112
810.166	28154
810.308	28090
810.45	28116
810.591	27987
810.733	27911
810.875	27766
811.016	27736
811.158	27671
811.299	27717
811.441	27991
811.582	28036
811.724	27778
811.865	27827
812.007	27850
812.148	27804
812.29	27930
812.431	27991
812.573	28154
812.714	28257
812.855	28424
812.997	28474
813.138	28474
813.279	28428
813.421	28352
813.562	28474
813.703	28158
813.845	27941
813.986	27873
814.127	27671
814.268	27427
814.41	27545
814.551	27500
814.692	27679
814.833	27386
814.974	27500
815.115	27606
815.256	27389
815.397	27443
815.539	27488
815.68	27332
815.821	27245
815.962	27317
816.103	27340
816.244	27047
816.385	27222
816.526	27127
816.666	26933
816.807	26921
816.948	26921
817.089	26788
817.23	26857
817.371	26754
817.512	26674
817.653	26842
817.793	26712
817.934	26777
818.075	26712
818.216	26899
818.356	26765
818.497	26636
818.638	26602
818.778	26602
818.919	26598
819.06	26724
819.2	26670
819.341	26617
819.481	26781
819.622	26979
819.762	27188
819.903	27116
820.043	26986
820.184	26925
820.324	26906
820.465	26868
820.605	27036
820.746	26792
820.886	26773
821.026	26876
821.167	26982
821.307	26937
821.447	26773
821.588	26705
821.728	26686
821.868	26511
822.008	26393
822.149	26347
822.289	26320
822.429	25890
822.569	25959
822.709	25978
822.849	25818
822.99	25715
823.13	25906
823.27	25700
823.41	25544
823.55	25586
823.69	25590
823.83	25594
823.97	25495
824.11	25415
824.25	25403
824.389	25533
824.529	25575
824.669	25365
824.809	25514
824.949	25453
825.089	25537
825.228	25472
825.368	25183
825.508	25225
825.648	25316
825.787	25301
825.927	25297
826.067	25244
826.206	25301
826.346	25297
826.485	25369
826.625	25335
826.765	25381
826.904	25388
827.044	25042
827.183	25095
827.323	25015
827.462	25122
827.601	24989
827.741	24932
827.88	24989
828.02	24935
828.159	25114
828.298	24863
828.437	24996
828.577	24928
828.716	25061
828.855	24920
828.994	24741
829.134	24661
829.273	24715
829.412	24833
829.551	24601
829.69	24642
829.829	24817
829.968	24787
830.107	24798
830.246	24719
830.385	24741
830.524	24585
830.663	24620
830.802	24334
830.941	24194
831.08	24388
831.219	24422
831.357	24323
831.496	24456
831.635	24414
831.774	24125
831.913	24121
832.051	24197
832.19	24171
832.329	24102
832.467	24049
832.606	23942
832.744	23988
832.883	24015
833.022	24117
833.16	23958
833.299	23965
833.437	23916
833.576	24197
833.714	24079
833.852	24102
833.991	24155
834.129	24076
834.267	24133
834.406	24026
834.544	24114
834.682	24053
834.821	24068
834.959	24262
835.097	24011
835.235	24121
835.373	24174
835.511	24129
835.65	24011
835.788	23893
835.926	23794
836.064	23649
836.202	23623
836.34	23961
836.478	23935
836.615	23859
836.753	23904
836.891	23897
837.029	23821
837.167	23851
837.305	23824
837.443	23729
837.58	23779
837.718	23771
837.856	23786
837.993	23646
838.131	23649
838.269	23649
838.406	23589
838.544	23421
838.681	23490
838.819	23356
838.956	23296
839.094	23273
839.231	23292
839.369	23372
839.506	23665
839.643	23452
839.781	23284
839.918	23071
840.055	23334
840.193	23117
840.33	23159
840.467	23079
840.604	23216
840.742	23425
840.879	23067
841.016	23132
841.153	22961
841.29	23189
841.427	23159
841.564	23178
841.701	23162
841.838	23136
841.975	23098
842.112	23029
842.249	22961
842.385	22755
842.522	23075
842.659	22965
842.796	22995
842.933	22877
843.069	22793
843.206	22786
843.343	22946
843.479	22900
843.616	22953
843.752	22740
843.889	22713
844.025	22854
844.162	22653
844.298	22721
844.435	22694
844.571	22733
844.708	22679
844.844	22847
844.98	22797
845.117	22687
845.253	22569
845.389	22573
845.525	22512
845.661	22531
845.798	22318
845.934	22508
846.07	22382
846.206	22428
846.342	22474
846.478	22402
846.614	22150
846.75	22082
846.886	22013
847.022	22101
847.158	22188
847.294	22188
847.429	22143
847.565	22105
847.701	22466
847.837	21857
847.972	21793
848.108	22006
848.244	21869
848.379	21759
848.515	21823
848.65	21694
848.786	21732
848.921	21717
849.057	21918
849.192	21827
849.328	21720
849.463	21789
849.598	21679
849.734	21633
849.869	21542
850.004	21481
850.14	21652
850.275	21485
850.41	21523
850.545	21416
850.68	21401
850.815	21591
850.95	21549
851.085	21519
851.22	21686
851.355	21458
851.49	21462
851.625	21504
851.76	21424
851.895	21355
852.03	21447
852.165	21405
852.299	21557
852.434	21591
852.569	21492
852.703	21557
852.838	21568
852.973	21622
853.107	21644
853.242	21454
853.376	21374
853.511	21127
853.645	21294
853.78	21401
853.914	21310
854.048	21226
854.183	21313
854.317	21249
854.451	21412
854.585	21260
854.72	21302
854.854	21458
854.988	21310
855.122	21260
855.256	21100
855.39	21325
855.524	21249
855.658	21313
855.792	21416
855.926	21260
856.06	21370
856.194	21393
856.327	21256
856.461	21161
856.595	21233
856.729	21408
856.862	21469
856.996	21279
857.13	21386
857.263	21420
857.397	21389
857.53	21214
857.664	21416
857.797	21283
857.931	21389
858.064	21313
858.197	21439
858.331	21252
858.464	21329
858.597	21116
858.731	21272
858.864	21173
858.997	21241
859.13	21298
859.263	21275
859.396	21374
859.529	21252
859.662	21348
859.795	21283
859.928	21329
860.061	21428
860.194	21515
860.327	21344
860.46	21336
860.592	21435
860.725	21397
860.858	21340
860.99	21306
861.123	21272
861.256	21146
861.388	21233
861.521	21975
861.653	21313
861.786	21036
861.918	21093
862.05	21306
862.183	21199
862.315	21222
862.447	21313
862.58	21230
862.712	21070
862.844	21017
862.976	21127
863.108	21043
863.24	21450
863.372	20929
863.504	21013
863.636	21009
863.768	21074
863.9	21074
864.032	20975
864.164	20899
864.296	21138
864.428	21112
864.559	21043
864.691	21009
864.823	21157
864.954	21001
865.086	21013
865.217	20891
865.349	20861
865.48	20982
865.612	20819
865.743	21032
865.875	20956
866.006	20853
866.137	20914
866.269	20960
866.4	20914
866.531	20807
866.662	20823
866.793	20777
866.924	20921
867.055	20830
867.186	20830
867.317	20868
867.448	20883
867.579	20861
867.71	20758
867.841	20834
867.972	20785
868.103	20838
868.233	20754
868.364	20842
868.495	20933
868.625	21024
868.756	21230
868.886	20979
869.017	21214
869.147	21070
869.278	21085
869.408	21184
869.539	21081
869.669	21108
869.799	21150
869.929	21272
870.06	21180
870.19	21431
870.32	21492
870.45	21401
870.58	21545
870.71	21576
870.84	21580
870.97	21538
871.1	21603
871.23	21633
871.36	21549
871.489	21564
871.619	21599
871.749	21663
871.879	21572
872.008	21770
872.138	21633
872.267	21694
872.397	21545
872.526	21496
872.656	21469
872.785	21545
872.915	21568
873.044	21698
873.173	21789
873.303	21686
873.432	21709
873.561	21778
873.69	21606
873.819	21648
873.948	21789
874.077	21739
874.206	21732
874.335	21568
874.464	21785
874.593	21911
874.722	21892
874.851	21949
874.979	21968
875.108	21998
875.237	21892
875.365	21945
875.494	21869
875.623	22082
875.751	21857
875.88	22074
876.008	22097
876.136	22101
876.265	22363
876.393	22485
876.521	22421
876.65	22379
876.778	22287
876.906	22306
877.034	22169
877.162	22242
877.29	22280
877.418	22261
877.546	22314
877.674	22211
877.802	22276
877.93	22314
878.058	22219
878.185	22158
878.313	22265
878.441	22356
878.568	22166
878.696	22128
878.824	22325
878.951	22348
879.079	22409
879.206	22512
879.333	22398
879.461	22268
879.588	22344
879.715	22428
879.842	22599
879.97	22287
880.097	22093
880.224	22025
880.351	22150
880.478	22021
880.605	22082
880.732	22238
880.859	22291
880.986	22124
881.112	22040
881.239	21972
881.366	21941
881.493	21686
881.619	21732
881.746	21732
881.872	21656
881.999	21538
882.125	21648
882.252	21618
882.378	21614
882.505	21793
882.631	21534
882.757	21393
882.883	21504
883.01	21439
883.136	21389
883.262	21321
883.388	21245
883.514	21504
883.64	21412
883.766	21241
883.892	21142
884.018	21230
884.143	21386
884.269	21507
884.395	21104
884.52	20876
884.646	21157
884.772	20853
884.897	20982
885.023	21077
885.148	21195
885.274	21230
885.399	21116
885.524	21074
885.65	21005
885.775	20963
885.9	21017
886.025	21127
886.15	21180
886.275	21116
886.4	21001
886.525	21001
886.65	20944
886.775	20986
886.9	21268
887.025	21173
887.149	21017
887.274	20819
887.399	20743
887.523	20693
887.648	20895
887.773	20727
887.897	20857
888.021	20830
888.146	20659
888.27	20880
888.395	20929
888.519	20811
888.643	20872
888.767	20872
888.891	20739
889.015	20609
889.139	20693
889.263	20655
889.387	20864
889.511	20823
889.635	20727
889.759	20594
889.883	20625
890.006	20549
890.13	20689
890.254	20492
890.377	20385
890.501	20454
890.624	20248
890.748	20465
890.871	20320
890.995	20199
891.118	20084
891.241	20145
891.364	20164
891.488	20164
891.611	20256
891.734	20195
891.857	20202
891.98	20214
892.103	20271
892.226	20199
892.349	20191
892.471	20088
892.594	20058
892.717	20103
892.839	20149
892.962	20176
893.085	20088
893.207	20149
893.33	20008
893.452	20046
893.575	20149
893.697	19955
893.819	20122
893.941	20259
894.064	20286
894.186	20024
894.308	19982
894.43	20149
894.552	20218
894.674	20225
894.796	19967
894.918	20020
895.04	20092
895.161	20122
895.283	19993
895.405	19993
895.526	20024
895.648	20069
895.769	20054
895.891	20157
896.012	20142
896.134	20191
896.255	20142
896.376	20050
896.498	20031
896.619	20134
896.74	20081
896.861	20115
896.982	20446
897.103	20663
897.224	20431
897.345	20324
897.466	20267
897.587	20309
897.708	20495
897.828	20256
897.949	20240
898.07	20176
898.19	20176
898.311	20393
898.431	20317
898.552	20256
898.672	20313
898.792	20309
898.913	20202
899.033	20267
899.153	20157
899.273	20020
899.393	19974
899.513	20122
899.633	20084
899.753	19982
899.873	19970
899.993	20016
900.113	19986
900.232	20134
900.352	19959
900.472	19887
900.591	19811
900.711	19776
900.83	19811
900.95	19967
901.069	19940
901.189	19742
901.308	19460
901.427	19460
901.546	19453
901.665	19483
901.784	19457
901.904	19263
902.023	19225
902.141	19031
902.26	18935
902.379	19050
902.498	18890
902.617	18863
902.735	18901
902.854	18913
902.973	18890
903.091	18627
903.21	18555
903.328	18498
903.446	18544
903.565	18471
903.683	18399
903.801	18247
903.919	18471
904.038	18323
904.156	18178
904.274	18247
904.392	18030
904.51	18144
904.627	18190
904.745	18197
904.863	18289
904.981	17931
905.098	17843
905.216	17901
905.334	17897
905.451	17851
905.569	17798
905.686	17954
905.803	17809
905.921	17646
906.038	17668
906.155	17649
906.272	17581
906.389	17604
906.506	17296
906.623	17414
906.74	17379
906.857	17239
906.974	17284
907.091	17421
907.208	17452
907.324	17429
907.441	17265
907.557	17121
907.674	17067
907.79	17006
907.907	17086
908.023	17128
908.139	17250
908.256	17052
908.372	16869
908.488	16908
908.604	16858
908.72	16782
908.836	16774
908.952	16831
909.068	16850
909.184	16946
909.3	16710
909.415	16828
909.531	16778
909.647	16481
909.762	16531
909.878	16485
909.993	16538
910.108	16577
910.224	16504
910.339	16436
910.454	16512
910.57	16280
910.685	16276
910.8	16470
910.915	16440
911.03	16234
911.145	16158
911.259	16082
911.374	16055
911.489	16093
911.604	16051
911.718	15774
911.833	15915
911.947	15720
912.062	15637
912.176	15804
912.291	15892
912.405	15819
912.519	16097
912.633	16025
912.748	15949
912.862	15823
912.976	15728
913.09	15637
913.204	15652
913.318	15587
913.431	15720
913.545	15816
913.659	15736
913.772	15576
913.886	15545
914	15428
914.113	15644
914.226	15557
914.34	15534
914.453	15416
914.566	15523
914.68	15378
914.793	15374
914.906	15085
915.019	15100
915.132	14998
915.245	15055
915.358	15036
915.47	15150
915.583	15066
915.696	15085
915.809	15176
915.921	15214
916.034	15009
916.146	14975
916.259	14883
916.371	15112
916.483	14982
916.595	14876
916.708	14952
916.82	14895
916.932	14883
917.044	14891
917.156	14876
917.268	14796
917.38	14663
917.491	14724
917.603	14739
917.715	14902
917.826	14868
917.938	14750
918.049	14594
918.161	14682
918.272	14811
918.384	14716
918.495	14697
918.606	14473
918.717	14454
918.828	14594
918.939	14450
919.05	14457
919.161	14454
919.272	14339
919.383	14358
919.494	14541
919.604	14651
919.715	14480
919.826	14374
919.936	14427
920.047	14511
920.157	14469
920.267	14636
920.378	14454
920.488	14442
920.598	14590
920.708	14727
920.818	14659
920.928	14514
921.038	14716
921.148	14629
921.258	14434
921.368	14362
921.477	14229
921.587	14183
921.697	14081
921.806	14229
921.916	14020
922.025	13932
922.134	13894
922.244	13841
922.353	13837
922.462	13715
922.571	13719
922.68	13483
922.789	13544
922.898	13506
923.007	13537
923.116	13586
923.224	13457
923.333	13495
923.442	13285
923.55	13251
923.659	13331
923.767	13430
923.876	13247
923.984	13308
924.092	13213
924.201	13304
924.309	13145
924.417	13312
924.525	13149
924.633	13103
924.741	13856
924.849	12962
924.956	13088
925.064	12947
925.172	12787
925.279	12897
925.387	12928
925.494	12939
925.602	13000
925.709	12973
925.816	12798
925.924	12806
926.031	12958
926.138	12863
926.245	12916
926.352	12738
926.459	12856
926.566	12932
926.673	12665
926.779	12650
926.886	12631
926.993	12517
927.099	12486
927.206	12479
927.312	12448
927.419	12563
927.525	12437
927.631	12471
927.737	12506
927.843	12194
927.95	12247
928.056	12239
928.162	12311
928.267	12342
928.373	12894
928.479	12334
928.585	12148
928.69	12247
928.796	12281
928.901	12106
929.007	12015
929.112	12220
929.218	12133
929.323	11996
929.428	11942
929.533	12148
929.638	11946
929.743	11935
929.848	11954
929.953	11973
930.058	11866
930.163	11752
930.267	11684
930.372	11752
930.477	11630
930.581	11832
930.685	11653
930.79	11623
930.894	11630
930.998	11528
931.103	11653
931.207	11303
931.311	11254
931.415	11181
931.519	10946
931.623	10961
