Data from test_V78500241_3323.txt Node
Date: Fri Mar 25 15:33:00 CST 2022
User: usil
Spectrometer: V785-0024
Trigger mode: 0
Integration Time (sec): 4.000000E-1
Scans to average: 1
Nonlinearity correction enabled: false
Boxcar width: 0
Storing dark spectrum: false
XAxis mode: Wavelengths
Number of Pixels in Spectrum: 1024
>>>>>Begin Spectral Data<<<<<
801.071	27355
801.214	27412
801.356	26998
801.499	26971
801.641	26933
801.783	26826
801.926	26895
802.068	26906
802.211	26765
802.353	26823
802.496	26541
802.638	26571
802.78	26427
802.923	26492
803.065	26332
803.208	26389
803.35	26484
803.492	26632
803.635	26765
803.777	26495
803.919	26568
804.061	26830
804.204	26731
804.346	26537
804.488	26575
804.63	26564
804.773	26549
804.915	26659
805.057	26895
805.199	26507
805.341	26804
805.483	26609
805.626	26735
805.768	26781
805.91	26788
806.052	26651
806.194	26708
806.336	26933
806.478	26727
806.62	26674
806.762	26872
806.904	27028
807.046	27230
807.188	27039
807.33	27199
807.472	27252
807.614	26975
807.756	27138
807.898	27043
808.04	26956
808.182	26990
808.324	27070
808.465	27146
808.607	27207
808.749	27211
808.891	27454
809.033	27633
809.174	27336
809.316	27393
809.458	27344
809.6	27268
809.741	27408
809.883	27504
810.025	27724
810.166	27542
810.308	27656
810.45	27583
810.591	27572
810.733	27393
810.875	27245
811.016	27211
811.158	27226
811.299	27618
811.441	27610
811.582	27466
811.724	27317
811.865	27184
812.007	27283
812.148	27256
812.29	27545
812.431	27542
812.573	27694
812.714	27739
812.855	27804
812.997	27918
813.138	28082
813.279	27953
813.421	27865
813.562	27914
813.703	27599
813.845	27511
813.986	27207
814.127	27127
814.268	27142
814.41	27199
814.551	26952
814.692	27169
814.833	26925
814.974	26994
815.115	27108
815.256	26830
815.397	27005
815.539	26906
815.68	26826
815.821	26758
815.962	26883
816.103	26823
816.244	26648
816.385	26648
816.526	26457
816.666	26358
816.807	26244
816.948	26415
817.089	26370
817.23	26343
817.371	26446
817.512	26271
817.653	26355
817.793	26248
817.934	26343
818.075	26199
818.216	26320
818.356	26180
818.497	26145
818.638	25989
818.778	26069
818.919	26130
819.06	26111
819.2	26336
819.341	26263
819.481	26176
819.622	26473
819.762	26648
819.903	26495
820.043	26415
820.184	26579
820.324	26324
820.465	26465
820.605	26412
820.746	26446
820.886	26218
821.026	26339
821.167	26301
821.307	26278
821.447	26294
821.588	26317
821.728	26046
821.868	25917
822.008	25723
822.149	25700
822.289	25666
822.429	25441
822.569	25544
822.709	25354
822.849	25225
822.99	25297
823.13	25297
823.27	25183
823.41	25053
823.55	24947
823.69	25095
823.83	25209
823.97	25008
824.11	24913
824.25	24825
824.389	24943
824.529	24935
824.669	24821
824.809	25015
824.949	25076
825.089	25008
825.228	24867
825.368	24730
825.508	24745
825.648	24726
825.787	24787
825.927	24848
826.067	24658
826.206	24730
826.346	24757
826.485	24779
826.625	24730
826.765	24707
826.904	24817
827.044	24547
827.183	24642
827.323	24521
827.462	24528
827.601	24528
827.741	24372
827.88	24555
828.02	24407
828.159	24399
828.298	24502
828.437	24369
828.577	24483
828.716	24467
828.855	24391
828.994	24224
829.134	24121
829.273	24197
829.412	24152
829.551	24038
829.69	24125
829.829	24182
829.968	24311
830.107	24308
830.246	24304
830.385	24144
830.524	24087
830.663	23977
830.802	23961
830.941	23897
831.08	23665
831.219	23878
831.357	23920
831.496	24190
831.635	23794
831.774	23722
831.913	23695
832.051	23642
832.19	23581
832.329	23528
832.467	23417
832.606	23535
832.744	23455
832.883	23372
833.022	23444
833.16	23387
833.299	23585
833.437	23387
833.576	23512
833.714	23570
833.852	23592
833.991	23558
834.129	23676
834.267	23714
834.406	23543
834.544	23585
834.682	23630
834.821	23486
834.959	23729
835.097	23512
835.235	23543
835.373	23558
835.511	23547
835.65	23436
835.788	23303
835.926	23223
836.064	23235
836.202	23117
836.34	23349
836.478	23455
836.615	23277
836.753	23467
836.891	23444
837.029	23387
837.167	23326
837.305	23277
837.443	23341
837.58	23189
837.718	23303
837.856	23303
837.993	23174
838.131	23174
838.269	23128
838.406	23185
838.544	23151
838.681	22984
838.819	22778
838.956	22786
839.094	22698
839.231	22847
839.369	22881
839.506	23071
839.643	22976
839.781	22649
839.918	22694
840.055	22679
840.193	22656
840.33	22637
840.467	22626
840.604	22820
840.742	22946
840.879	22489
841.016	22577
841.153	22607
841.29	22744
841.427	22721
841.564	22691
841.701	22653
841.838	22584
841.975	22618
842.112	22577
842.249	22584
842.385	22436
842.522	22653
842.659	22516
842.796	22440
842.933	22405
843.069	22215
843.206	22314
843.343	22474
843.479	22470
843.616	22386
843.752	22230
843.889	22215
844.025	22485
844.162	22234
844.298	22287
844.435	22204
844.571	22204
844.708	22466
844.844	22367
844.98	22455
845.117	22295
845.253	22188
845.389	22029
845.525	22139
845.661	22029
845.798	21930
845.934	22040
846.07	21922
846.206	21884
846.342	22097
846.478	21960
846.614	21728
846.75	21644
846.886	21797
847.022	21686
847.158	21713
847.294	21709
847.429	21778
847.565	21713
847.701	21956
847.837	21428
847.972	21359
848.108	21477
848.244	21534
848.379	21325
848.515	21332
848.65	21211
848.786	21203
848.921	21317
849.057	21294
849.192	21435
849.328	21359
849.463	21237
849.598	21192
849.734	21138
849.869	21074
850.004	20952
850.14	21195
850.275	21055
850.41	20914
850.545	21001
850.68	20918
850.815	21028
850.95	21028
851.085	21176
851.22	21150
851.355	21047
851.49	21066
851.625	20994
851.76	21062
851.895	20994
852.03	20906
852.165	20933
852.299	20990
852.434	21161
852.569	20979
852.703	20956
852.838	21135
852.973	21214
853.107	21043
853.242	20960
853.376	20807
853.511	20716
853.645	20838
853.78	20941
853.914	20819
854.048	20754
854.183	20788
854.317	20910
854.451	21020
854.585	20887
854.72	20887
854.854	20971
854.988	20777
855.122	20758
855.256	20750
855.39	20910
855.524	20967
855.658	20807
855.792	20944
855.926	20933
856.06	20838
856.194	20876
856.327	20880
856.461	20785
856.595	20739
856.729	20769
856.862	20944
856.996	20872
857.13	20929
857.263	20880
857.397	20941
857.53	20792
857.664	20880
857.797	20948
857.931	21032
858.064	21028
858.197	20990
858.331	20883
858.464	20769
858.597	20758
858.731	20830
858.864	20765
858.997	20914
859.13	20929
859.263	20868
859.396	20838
859.529	20739
859.662	20750
859.795	20712
859.928	20838
860.061	20986
860.194	21062
860.327	20948
860.46	20819
860.592	20921
860.725	20960
860.858	21077
860.99	20887
861.123	20762
861.256	20697
861.388	20849
861.521	21492
861.653	20587
861.786	20545
861.918	20663
862.05	20731
862.183	20834
862.315	20811
862.447	20781
862.58	20834
862.712	20579
862.844	20484
862.976	20556
863.108	20686
863.24	21077
863.372	20511
863.504	20507
863.636	20575
863.768	20579
863.9	20640
864.032	20488
864.164	20518
864.296	20606
864.428	20640
864.559	20773
864.691	20609
864.823	20598
864.954	20442
865.086	20499
865.217	20530
865.349	20400
865.48	20457
865.612	20651
865.743	20632
865.875	20454
866.006	20408
866.137	20648
866.269	20522
866.4	20434
866.531	20431
866.662	20473
866.793	20355
866.924	20358
867.055	20351
867.186	20400
867.317	20461
867.448	20298
867.579	20415
867.71	20301
867.841	20393
867.972	20423
868.103	20324
868.233	20393
868.364	20434
868.495	20461
868.625	20655
868.756	20689
868.886	20518
869.017	20621
869.147	20727
869.278	20826
869.408	20632
869.539	20659
869.669	20765
869.799	20670
869.929	20880
870.06	20712
870.19	20941
870.32	20883
870.45	20960
870.58	21024
870.71	21123
870.84	21211
870.97	21070
871.1	21096
871.23	21268
871.36	21233
871.489	21112
871.619	21146
871.749	21169
871.879	21374
872.008	21325
872.138	21313
872.267	21241
872.397	21268
872.526	21013
872.656	21161
872.785	21001
872.915	21279
873.044	21298
873.173	21268
873.303	21313
873.432	21424
873.561	21443
873.69	21306
873.819	21302
873.948	21302
874.077	21393
874.206	21188
874.335	21154
874.464	21287
874.593	21412
874.722	21428
874.851	21652
874.979	21622
875.108	21599
875.237	21443
875.365	21367
875.494	21325
875.623	21530
875.751	21618
875.88	21515
876.008	21736
876.136	21739
876.265	21915
876.393	22040
876.521	21899
876.65	22162
876.778	21892
876.906	21907
877.034	21880
877.162	21838
877.29	21903
877.418	21873
877.546	21918
877.674	21854
877.802	21979
877.93	21778
878.058	21907
878.185	21797
878.313	21857
878.441	21895
878.568	21743
878.696	21732
878.824	21941
878.951	21930
879.079	22051
879.206	22257
879.333	22188
879.461	21778
879.588	22010
879.715	22013
879.842	22280
879.97	21983
880.097	21667
880.224	21694
880.351	21808
880.478	21736
880.605	21667
880.732	21698
880.859	21975
880.986	21800
881.112	21698
881.239	21660
881.366	21481
881.493	21355
881.619	21207
881.746	21283
881.872	21249
881.999	21245
882.125	21169
882.252	21226
882.378	21298
882.505	21469
882.631	21119
882.757	21165
882.883	21036
883.01	20975
883.136	20883
883.262	20899
883.388	20861
883.514	20880
883.64	21013
883.766	20906
883.892	20754
884.018	20731
884.143	20967
884.269	21096
884.395	20735
884.52	20613
884.646	20701
884.772	20545
884.897	20606
885.023	20613
885.148	20746
885.274	20762
885.399	20674
885.524	20625
885.65	20606
885.775	20644
885.9	20640
886.025	20583
886.15	20777
886.275	20537
886.4	20541
886.525	20583
886.65	20571
886.775	20564
886.9	20731
887.025	20762
887.149	20625
887.274	20465
887.399	20313
887.523	20446
887.648	20343
887.773	20332
887.897	20442
888.021	20473
888.146	20404
888.27	20560
888.395	20484
888.519	20438
888.643	20533
888.767	20461
888.891	20362
889.015	20183
889.139	20221
889.263	20202
889.387	20263
889.511	20309
889.635	20347
889.759	20301
889.883	20069
890.006	20263
890.13	20282
890.254	20027
890.377	20168
890.501	20031
890.624	20020
890.748	20016
890.871	19944
890.995	19830
891.118	19677
891.241	19715
891.364	19849
891.488	19890
891.611	19769
891.734	19814
891.857	19799
891.98	19670
892.103	19814
892.226	19704
892.349	19700
892.471	19529
892.594	19731
892.717	19791
892.839	19567
892.962	19814
893.085	19761
893.207	19715
893.33	19563
893.452	19601
893.575	19639
893.697	19734
893.819	19868
893.941	19936
894.064	19833
894.186	19738
894.308	19499
894.43	19833
894.552	19906
894.674	19769
894.796	19677
894.918	19662
895.04	19620
895.161	19746
895.283	19734
895.405	19723
895.526	19738
895.648	19734
895.769	19681
895.891	19696
896.012	19693
896.134	19757
896.255	19723
896.376	19662
896.498	19689
896.619	19685
896.74	19845
896.861	19871
896.982	19993
897.103	20218
897.224	20005
897.345	19849
897.466	19845
897.587	19944
897.708	20100
897.828	19894
897.949	19887
898.07	19788
898.19	19746
898.311	19993
898.431	19830
898.552	19947
898.672	19974
898.792	20012
898.913	19974
899.033	19807
899.153	19647
899.273	19651
899.393	19628
899.513	19651
899.633	19765
899.753	19791
899.873	19624
899.993	19601
900.113	19594
900.232	19533
900.352	19571
900.472	19480
900.591	19400
900.711	19514
900.83	19426
900.95	19575
901.069	19571
901.189	19278
901.308	19225
901.427	18973
901.546	19133
901.665	18954
901.784	18947
901.904	18966
902.023	18878
902.141	18654
902.26	18642
902.379	18658
902.498	18593
902.617	18528
902.735	18551
902.854	18498
902.973	18513
903.091	18155
903.21	18327
903.328	18247
903.446	18155
903.565	18053
903.683	18095
903.801	17980
903.919	17885
904.038	18057
904.156	17893
904.274	17843
904.392	17843
904.51	17817
904.627	17817
904.745	17813
904.863	17767
904.981	17608
905.098	17455
905.216	17528
905.334	17524
905.451	17501
905.569	17668
905.686	17558
905.803	17592
905.921	17311
906.038	17402
906.155	17269
906.272	17102
906.389	17204
906.506	17079
906.623	17162
906.74	17067
906.857	16930
906.974	16869
907.091	17090
907.208	17170
907.324	17018
907.441	16923
907.557	16809
907.674	16847
907.79	16717
907.907	16698
908.023	16877
908.139	16694
908.256	16675
908.372	16550
908.488	16618
908.604	16584
908.72	16474
908.836	16500
908.952	16394
909.068	16565
909.184	16599
909.3	16542
909.415	16527
909.531	16504
909.647	16238
909.762	16192
909.878	16196
909.993	16211
910.108	16238
910.224	16128
910.339	16150
910.454	16082
910.57	16036
910.685	16044
910.8	16105
910.915	16196
911.03	16006
911.145	15869
911.259	15846
911.374	15835
911.489	15709
911.604	15713
911.718	15504
911.833	15610
911.947	15488
912.062	15462
912.176	15488
912.291	15515
912.405	15496
912.519	15701
912.633	15743
912.748	15610
912.862	15477
912.976	15294
913.09	15199
913.204	15294
913.318	15397
913.431	15431
913.545	15370
913.659	15519
913.772	15359
913.886	15199
914	15142
914.113	15252
914.226	15256
914.34	15249
914.453	15108
914.566	15256
914.68	15032
914.793	15020
914.906	14925
915.019	14887
915.132	14663
915.245	14724
915.358	14864
915.47	14781
915.583	14834
915.696	14762
915.809	14872
915.921	14910
916.034	14788
916.146	14724
916.259	14682
916.371	14739
916.483	14796
916.595	14598
916.708	14689
916.82	14625
916.932	14594
917.044	14583
917.156	14583
917.268	14473
917.38	14381
917.491	14461
917.603	14423
917.715	14465
917.826	14526
917.938	14309
918.049	14244
918.161	14446
918.272	14545
918.384	14454
918.495	14415
918.606	14225
918.717	14134
918.828	14206
918.939	14221
919.05	14130
919.161	14176
919.272	14039
919.383	14027
919.494	14358
919.604	14461
919.715	14248
919.826	14088
919.936	14149
920.047	14195
920.157	14164
920.267	14412
920.378	14210
920.488	14168
920.598	14336
920.708	14442
920.818	14282
920.928	14366
921.038	14473
921.148	14446
921.258	14225
921.368	14027
921.477	13989
921.587	13898
921.697	13731
921.806	13913
921.916	13875
922.025	13597
922.134	13605
922.244	13571
922.353	13601
922.462	13491
922.571	13396
922.68	13301
922.789	13221
922.898	13221
923.007	13187
923.116	13232
923.224	13225
923.333	13190
923.442	13126
923.55	13057
923.659	13057
923.767	13118
923.876	13019
923.984	13129
924.092	12935
924.201	12981
924.309	12947
924.417	12966
924.525	12905
924.633	12916
924.741	13879
924.849	12707
924.956	12783
925.064	12684
925.172	12646
925.279	12646
925.387	12627
925.494	12688
925.602	12749
925.709	12741
925.816	12547
925.924	12566
926.031	12692
926.138	12597
926.245	12677
926.352	12513
926.459	12623
926.566	12623
926.673	12536
926.779	12376
926.886	12407
926.993	12197
927.099	12216
927.206	12178
927.312	12205
927.419	12175
927.525	12254
927.631	12289
927.737	12098
927.843	12045
927.95	11885
928.056	12110
928.162	12178
928.267	12121
928.373	12741
928.479	12205
928.585	11885
928.69	12060
928.796	12030
928.901	11950
929.007	11798
929.112	11904
929.218	11923
929.323	11783
929.428	11843
929.533	11859
929.638	11703
929.743	11745
929.848	11703
929.953	11771
930.058	11627
930.163	11505
930.267	11478
930.372	11642
930.477	11490
930.581	11703
930.685	11573
930.79	11372
930.894	11391
930.998	11307
931.103	11436
931.207	11105
931.311	11041
931.415	10938
931.519	10740
931.623	10736
