Data from test_V78500241_2639.txt Node
Date: Fri Mar 25 15:28:14 CST 2022
User: usil
Spectrometer: V785-0024
Trigger mode: 0
Integration Time (sec): 4.000000E-1
Scans to average: 1
Nonlinearity correction enabled: false
Boxcar width: 0
Storing dark spectrum: false
XAxis mode: Wavelengths
Number of Pixels in Spectrum: 1024
>>>>>Begin Spectral Data<<<<<
801.071	27195
801.214	27161
801.356	26906
801.499	26902
801.641	26720
801.783	26674
801.926	26861
802.068	26594
802.211	26674
802.353	26727
802.496	26438
802.638	26492
802.78	26362
802.923	26389
803.065	26252
803.208	26229
803.35	26282
803.492	26514
803.635	26545
803.777	26480
803.919	26533
804.061	26853
804.204	26632
804.346	26522
804.488	26488
804.63	26518
804.773	26400
804.915	26480
805.057	26530
805.199	26632
805.341	26507
805.483	26625
805.626	26667
805.768	26609
805.91	26568
806.052	26613
806.194	26423
806.336	26876
806.478	26571
806.62	26533
806.762	26830
806.904	26796
807.046	26952
807.188	27233
807.33	27146
807.472	27028
807.614	26967
807.756	27123
807.898	26937
808.04	26883
808.182	26876
808.324	26967
808.465	26937
808.607	27146
808.749	27146
808.891	27249
809.033	27355
809.174	27310
809.316	27321
809.458	27230
809.6	27344
809.741	27332
809.883	27218
810.025	27450
810.166	27587
810.308	27462
810.45	27462
810.591	27435
810.733	27226
810.875	27100
811.016	27104
811.158	27165
811.299	27291
811.441	27393
811.582	27351
811.724	27226
811.865	27192
812.007	27237
812.148	27096
812.29	27192
812.431	27321
812.573	27542
812.714	27606
812.855	27720
812.997	27755
813.138	27827
813.279	27682
813.421	27694
813.562	27671
813.703	27519
813.845	27458
813.986	27039
814.127	26902
814.268	26899
814.41	26975
814.551	26758
814.692	26891
814.833	26849
814.974	26838
815.115	26982
815.256	26632
815.397	26857
815.539	26746
815.68	26640
815.821	26537
815.962	26762
816.103	26579
816.244	26537
816.385	26473
816.526	26412
816.666	26248
816.807	26050
816.948	26267
817.089	26351
817.23	26138
817.371	26119
817.512	26134
817.653	26138
817.793	26039
817.934	25936
818.075	26176
818.216	26138
818.356	26187
818.497	25856
818.638	25845
818.778	25833
818.919	25879
819.06	25887
819.2	26035
819.341	26103
819.481	26008
819.622	26305
819.762	26419
819.903	26507
820.043	26172
820.184	26248
820.324	26187
820.465	26317
820.605	26244
820.746	26362
820.886	26142
821.026	26168
821.167	26077
821.307	26206
821.447	26145
821.588	26100
821.728	26020
821.868	25849
822.008	25559
822.149	25670
822.289	25525
822.429	25350
822.569	25331
822.709	25350
822.849	25183
822.99	25122
823.13	24996
823.27	24935
823.41	24905
823.55	24779
823.69	24951
823.83	24787
823.97	24825
824.11	24715
824.25	24692
824.389	24795
824.529	24901
824.669	24757
824.809	24909
824.949	24745
825.089	24783
825.228	24760
825.368	24612
825.508	24578
825.648	24669
825.787	24654
825.927	24760
826.067	24483
826.206	24547
826.346	24802
826.485	24684
826.625	24620
826.765	24673
826.904	24601
827.044	24433
827.183	24475
827.323	24308
827.462	24372
827.601	24372
827.741	24376
827.88	24308
828.02	24319
828.159	24232
828.298	24304
828.437	24429
828.577	24216
828.716	24357
828.855	24190
828.994	24072
829.134	24003
829.273	23935
829.412	23992
829.551	23988
829.69	23961
829.829	24091
829.968	24083
830.107	24167
830.246	24030
830.385	24003
830.524	23893
830.663	23824
830.802	23752
830.941	23619
831.08	23558
831.219	23733
831.357	23657
831.496	23889
831.635	23714
831.774	23516
831.913	23398
832.051	23391
832.19	23395
832.329	23334
832.467	23395
832.606	23208
832.744	23277
832.883	23307
833.022	23185
833.16	23417
833.299	23303
833.437	23280
833.576	23326
833.714	23353
833.852	23459
833.991	23410
834.129	23539
834.267	23379
834.406	23467
834.544	23497
834.682	23356
834.821	23318
834.959	23543
835.097	23406
835.235	23353
835.373	23421
835.511	23372
835.65	23223
835.788	23299
835.926	23181
836.064	23056
836.202	23121
836.34	23170
836.478	23280
836.615	23277
836.753	23273
836.891	23318
837.029	23318
837.167	23128
837.305	23181
837.443	23075
837.58	23075
837.718	23048
837.856	23140
837.993	23041
838.131	23124
838.269	22930
838.406	23037
838.544	22911
838.681	22828
838.819	22691
838.956	22493
839.094	22535
839.231	22478
839.369	22733
839.506	22911
839.643	22889
839.781	22432
839.918	22474
840.055	22588
840.193	22535
840.33	22470
840.467	22462
840.604	22523
840.742	22771
840.879	22219
841.016	22561
841.153	22436
841.29	22565
841.427	22569
841.564	22550
841.701	22554
841.838	22504
841.975	22386
842.112	22466
842.249	22352
842.385	22360
842.522	22516
842.659	22432
842.796	22261
842.933	22257
843.069	22207
843.206	22246
843.343	22291
843.479	22188
843.616	22154
843.752	22063
843.889	22067
844.025	22177
844.162	21983
844.298	22090
844.435	22013
844.571	21941
844.708	22078
844.844	22051
844.98	22078
845.117	22150
845.253	21922
845.389	21953
845.525	21880
845.661	21895
845.798	21808
845.934	21842
846.07	21884
846.206	21762
846.342	21766
846.478	21778
846.614	21538
846.75	21542
846.886	21580
847.022	21606
847.158	21492
847.294	21595
847.429	21568
847.565	21496
847.701	21739
847.837	21188
847.972	21176
848.108	21268
848.244	21378
848.379	21173
848.515	21070
848.65	21131
848.786	21085
848.921	21020
849.057	21169
849.192	21203
849.328	20994
849.463	21039
849.598	21058
849.734	20960
849.869	21024
850.004	20895
850.14	20967
850.275	20899
850.41	20781
850.545	20746
850.68	20807
850.815	20842
850.95	20941
851.085	20887
851.22	20956
851.355	20910
851.49	20838
851.625	20861
851.76	20807
851.895	20701
852.03	20705
852.165	20883
852.299	20918
852.434	20902
852.569	20948
852.703	20857
852.838	20948
852.973	21184
853.107	20944
853.242	20769
853.376	20785
853.511	20720
853.645	20648
853.78	20792
853.914	20678
854.048	20686
854.183	20686
854.317	20724
854.451	20914
854.585	20613
854.72	20701
854.854	20697
854.988	20556
855.122	20724
855.256	20640
855.39	20758
855.524	20746
855.658	20655
855.792	20678
855.926	20670
856.06	20712
856.194	20819
856.327	20579
856.461	20708
856.595	20716
856.729	20602
856.862	20819
856.996	20689
857.13	20758
857.263	20724
857.397	20754
857.53	20640
857.664	20788
857.797	20667
857.931	20762
858.064	20640
858.197	20807
858.331	20758
858.464	20556
858.597	20636
858.731	20686
858.864	20689
858.997	20720
859.13	20629
859.263	20765
859.396	20849
859.529	20629
859.662	20644
859.795	20575
859.928	20632
860.061	20925
860.194	20925
860.327	20659
860.46	20792
860.592	20762
860.725	20781
860.858	20758
860.99	20773
861.123	20659
861.256	20754
861.388	20834
861.521	21359
861.653	20583
861.786	20396
861.918	20476
862.05	20598
862.183	20533
862.315	20564
862.447	20617
862.58	20469
862.712	20469
862.844	20351
862.976	20514
863.108	20511
863.24	20902
863.372	20370
863.504	20347
863.636	20404
863.768	20473
863.9	20381
864.032	20446
864.164	20370
864.296	20415
864.428	20579
864.559	20484
864.691	20381
864.823	20503
864.954	20275
865.086	20339
865.217	20275
865.349	20233
865.48	20374
865.612	20393
865.743	20442
865.875	20358
866.006	20244
866.137	20358
866.269	20415
866.4	20237
866.531	20183
866.662	20259
866.793	20199
866.924	20237
867.055	20339
867.186	20138
867.317	20240
867.448	20142
867.579	20286
867.71	20134
867.841	20191
867.972	20328
868.103	20172
868.233	20267
868.364	20286
868.495	20431
868.625	20377
868.756	20621
868.886	20469
869.017	20400
869.147	20598
869.278	20598
869.408	20526
869.539	20556
869.669	20590
869.799	20545
869.929	20579
870.06	20613
870.19	20861
870.32	20773
870.45	20819
870.58	20849
870.71	20986
870.84	20952
870.97	20952
871.1	20849
871.23	21055
871.36	21093
871.489	20929
871.619	20963
871.749	21020
871.879	21085
872.008	21135
872.138	21058
872.267	21154
872.397	21013
872.526	20944
872.656	21009
872.785	20891
872.915	20975
873.044	21100
873.173	21062
873.303	21135
873.432	21138
873.561	21207
873.69	21135
873.819	21192
873.948	21184
874.077	21100
874.206	21058
874.335	21089
874.464	21230
874.593	21374
874.722	21306
874.851	21351
874.979	21279
875.108	21412
875.237	21325
875.365	21226
875.494	21340
875.623	21420
875.751	21348
875.88	21359
876.008	21526
876.136	21564
876.265	21717
876.393	21724
876.521	21861
876.65	21895
876.778	21838
876.906	21701
877.034	21618
877.162	21637
877.29	21606
877.418	21739
877.546	21682
877.674	21755
877.802	21629
877.93	21755
878.058	21660
878.185	21538
878.313	21648
878.441	21732
878.568	21526
878.696	21633
878.824	21762
878.951	21797
879.079	21823
879.206	21884
879.333	21846
879.461	21717
879.588	21869
879.715	21884
879.842	21934
879.97	21720
880.097	21447
880.224	21515
880.351	21648
880.478	21591
880.605	21530
880.732	21428
880.859	21705
880.986	21553
881.112	21519
881.239	21496
881.366	21264
881.493	21157
881.619	21173
881.746	21081
881.872	21135
881.999	20963
882.125	21062
882.252	21081
882.378	21093
882.505	21233
882.631	20887
882.757	20777
882.883	20979
883.01	20853
883.136	20872
883.262	20686
883.388	20632
883.514	20765
883.64	20811
883.766	20667
883.892	20689
884.018	20697
884.143	20750
884.269	20845
884.395	20514
884.52	20446
884.646	20495
884.772	20419
884.897	20454
885.023	20427
885.148	20598
885.274	20530
885.399	20663
885.524	20457
885.65	20476
885.775	20457
885.9	20469
886.025	20537
886.15	20560
886.275	20476
886.4	20427
886.525	20488
886.65	20434
886.775	20313
886.9	20594
887.025	20678
887.149	20438
887.274	20282
887.399	20320
887.523	20278
887.648	20138
887.773	20157
887.897	20176
888.021	20294
888.146	20187
888.27	20358
888.395	20278
888.519	20320
888.643	20301
888.767	20286
888.891	20199
889.015	20058
889.139	20202
889.263	20016
889.387	20244
889.511	20267
889.635	20172
889.759	20024
889.883	19970
890.006	20058
890.13	20088
890.254	19951
890.377	20035
890.501	19738
890.624	19746
890.748	19894
890.871	19734
890.995	19586
891.118	19563
891.241	19575
891.364	19556
891.488	19742
891.611	19670
891.734	19620
891.857	19685
891.98	19681
892.103	19658
892.226	19620
892.349	19571
892.471	19571
892.594	19533
892.717	19620
892.839	19506
892.962	19540
893.085	19597
893.207	19540
893.33	19457
893.452	19460
893.575	19620
893.697	19594
893.819	19552
893.941	19757
894.064	19689
894.186	19548
894.308	19441
894.43	19590
894.552	19765
894.674	19597
894.796	19540
894.918	19544
895.04	19559
895.161	19483
895.283	19632
895.405	19453
895.526	19567
895.648	19597
895.769	19689
895.891	19635
896.012	19658
896.134	19571
896.255	19605
896.376	19537
896.498	19582
896.619	19548
896.74	19537
896.861	19601
896.982	19868
897.103	20046
897.224	19772
897.345	19769
897.466	19712
897.587	19868
897.708	19913
897.828	19799
897.949	19662
898.07	19662
898.19	19734
898.311	19833
898.431	19696
898.552	19727
898.672	19780
898.792	19902
898.913	19776
899.033	19601
899.153	19605
899.273	19480
899.393	19506
899.513	19578
899.633	19601
899.753	19533
899.873	19510
899.993	19601
900.113	19449
900.232	19495
900.352	19434
900.472	19339
900.591	19225
900.711	19293
900.83	19156
900.95	19483
901.069	19346
901.189	19171
901.308	19004
901.427	18901
901.546	18943
901.665	18973
901.784	19012
901.904	18783
902.023	18642
902.141	18483
902.26	18479
902.379	18574
902.498	18429
902.617	18391
902.735	18494
902.854	18422
902.973	18369
903.091	18216
903.21	18019
903.328	18026
903.446	18026
903.565	18007
903.683	18026
903.801	17878
903.919	17954
904.038	18011
904.156	17836
904.274	17714
904.392	17752
904.51	17771
904.627	17615
904.745	17638
904.863	17760
904.981	17493
905.098	17379
905.216	17368
905.334	17478
905.451	17402
905.569	17387
905.686	17444
905.803	17288
905.921	17235
906.038	17277
906.155	17239
906.272	17037
906.389	17041
906.506	16949
906.623	16835
906.74	16934
906.857	16809
906.974	16850
907.091	16843
907.208	16908
907.324	16961
907.441	16835
907.557	16615
907.674	16615
907.79	16569
907.907	16584
908.023	16706
908.139	16672
908.256	16622
908.372	16577
908.488	16443
908.604	16352
908.72	16333
908.836	16398
908.952	16394
909.068	16402
909.184	16459
909.3	16337
909.415	16348
909.531	16348
909.647	16021
909.762	15937
909.878	16051
909.993	16044
910.108	16029
910.224	16032
910.339	16128
910.454	15934
910.57	15827
910.685	15835
910.8	16090
910.915	15994
911.03	15880
911.145	15759
911.259	15671
911.374	15660
911.489	15606
911.604	15496
911.718	15412
911.833	15443
911.947	15302
912.062	15283
912.176	15466
912.291	15515
912.405	15416
912.519	15755
912.633	15633
912.748	15523
912.862	15405
912.976	15199
913.09	15173
913.204	15203
913.318	15275
913.431	15294
913.545	15268
913.659	15386
913.772	15150
913.886	15013
914	15085
914.113	15138
914.226	15283
914.34	15081
914.453	14982
914.566	14963
914.68	15001
914.793	14842
914.906	14800
915.019	14720
915.132	14629
915.245	14667
915.358	14644
915.47	14731
915.583	14663
915.696	14750
915.809	14815
915.921	14705
916.034	14678
916.146	14511
916.259	14575
916.371	14682
916.483	14606
916.595	14473
916.708	14526
916.82	14431
916.932	14419
917.044	14503
917.156	14412
917.268	14237
917.38	14328
917.491	14290
917.603	14374
917.715	14377
917.826	14442
917.938	14366
918.049	14183
918.161	14339
918.272	14438
918.384	14396
918.495	14259
918.606	14130
918.717	14008
918.828	14126
918.939	14103
919.05	13906
919.161	13978
919.272	13849
919.383	13909
919.494	14206
919.604	14358
919.715	14096
919.826	13921
919.936	14054
920.047	14123
920.157	14020
920.267	14214
920.378	13978
920.488	14020
920.598	14305
920.708	14419
920.818	14240
920.928	14305
921.038	14377
921.148	14374
921.258	14020
921.368	13902
921.477	13883
921.587	13765
921.697	13708
921.806	13883
921.916	13776
922.025	13571
922.134	13578
922.244	13460
922.353	13377
922.462	13430
922.571	13320
922.68	13240
922.789	13141
922.898	13240
923.007	13038
923.116	13213
923.224	13088
923.333	13061
923.442	12932
923.55	12882
923.659	12909
923.767	13091
923.876	12886
923.984	13046
924.092	12962
924.201	12989
924.309	12924
924.417	12791
924.525	12791
924.633	12821
924.741	13807
924.849	12692
924.956	12745
925.064	12620
925.172	12544
925.279	12547
925.387	12544
925.494	12509
925.602	12677
925.709	12646
925.816	12513
925.924	12460
926.031	12608
926.138	12471
926.245	12627
926.352	12418
926.459	12597
926.566	12627
926.673	12464
926.779	12380
926.886	12296
926.993	12186
927.099	12121
927.206	12098
927.312	12034
927.419	12167
927.525	12095
927.631	12144
927.737	12087
927.843	12057
927.95	11912
928.056	12007
928.162	12015
928.267	11927
928.373	12570
928.479	12102
928.585	11786
928.69	11916
928.796	11973
928.901	11817
929.007	11638
929.112	11809
929.218	11889
929.323	11741
929.428	11646
929.533	11665
929.638	11737
929.743	11703
929.848	11710
929.953	11611
930.058	11604
930.163	11417
930.267	11395
930.372	11497
930.477	11425
930.581	11581
930.685	11452
930.79	11246
930.894	11273
930.998	11292
931.103	11387
931.207	10995
931.311	11048
931.415	10889
931.519	10694
931.623	10580
