Data from test_V78500241_19.txt Node
Date: Fri Mar 25 15:09:59 CST 2022
User: usil
Spectrometer: V785-0024
Trigger mode: 0
Integration Time (sec): 4.000000E-1
Scans to average: 1
Nonlinearity correction enabled: false
Boxcar width: 0
Storing dark spectrum: false
XAxis mode: Wavelengths
Number of Pixels in Spectrum: 1024
>>>>>Begin Spectral Data<<<<<
801.071	27991
801.214	27949
801.356	27671
801.499	27724
801.641	27515
801.783	27572
801.926	27652
802.068	27473
802.211	27348
802.353	27515
802.496	27218
802.638	27279
802.78	27157
802.923	27112
803.065	27070
803.208	27036
803.35	27146
803.492	27142
803.635	27252
803.777	27074
803.919	27291
804.061	27538
804.204	27192
804.346	27013
804.488	26956
804.63	27241
804.773	27013
804.915	27077
805.057	27245
805.199	27214
805.341	27241
805.483	27294
805.626	27062
805.768	27203
805.91	27176
806.052	27252
806.194	27222
806.336	27416
806.478	27176
806.62	27211
806.762	27233
806.904	27401
807.046	27576
807.188	27424
807.33	27595
807.472	27606
807.614	27595
807.756	27378
807.898	27313
808.04	27112
808.182	27287
808.324	27256
808.465	27359
808.607	27519
808.749	27698
808.891	27770
809.033	27816
809.174	27686
809.316	27572
809.458	27599
809.6	27564
809.741	27698
809.883	27713
810.025	27964
810.166	27717
810.308	27827
810.45	27838
810.591	27766
810.733	27610
810.875	27625
811.016	27599
811.158	27420
811.299	27572
811.441	27618
811.582	27705
811.724	27507
811.865	27477
812.007	27416
812.148	27397
812.29	27557
812.431	27648
812.573	27789
812.714	27945
812.855	27926
812.997	28074
813.138	28215
813.279	28135
813.421	28063
813.562	27979
813.703	27770
813.845	27759
813.986	27408
814.127	27272
814.268	27077
814.41	27173
814.551	27127
814.692	27173
814.833	27089
814.974	27051
815.115	27047
815.256	27017
815.397	26990
815.539	27009
815.68	26921
815.821	26720
815.962	26887
816.103	26853
816.244	26670
816.385	26499
816.526	26625
816.666	26248
816.807	26221
816.948	26358
817.089	26191
817.23	26366
817.371	26161
817.512	26183
817.653	26069
817.793	26145
817.934	26050
818.075	26202
818.216	26058
818.356	26069
818.497	26043
818.638	25826
818.778	25769
818.919	26016
819.06	25966
819.2	26054
819.341	26130
819.481	26050
819.622	26153
819.762	26453
819.903	26267
820.043	26290
820.184	26248
820.324	26096
820.465	26157
820.605	26161
820.746	26164
820.886	25898
821.026	26130
821.167	26142
821.307	26161
821.447	26180
821.588	26069
821.728	25871
821.868	25731
822.008	25662
822.149	25499
822.289	25396
822.429	25141
822.569	25194
822.709	25255
822.849	25152
822.99	24954
823.13	25069
823.27	24901
823.41	24779
823.55	24768
823.69	24776
823.83	24810
823.97	24692
824.11	24551
824.25	24490
824.389	24445
824.529	24395
824.669	24479
824.809	24593
824.949	24669
825.089	24639
825.228	24517
825.368	24426
825.508	24270
825.648	24254
825.787	24426
825.927	24327
826.067	24338
826.206	24369
826.346	24277
826.485	24380
826.625	24190
826.765	24486
826.904	24479
827.044	24205
827.183	24022
827.323	23984
827.462	24053
827.601	24007
827.741	24064
827.88	23999
828.02	23950
828.159	23897
828.298	24057
828.437	24030
828.577	24030
828.716	24018
828.855	23885
828.994	23764
829.134	23691
829.273	23737
829.412	23592
829.551	23490
829.69	23573
829.829	23623
829.968	23764
830.107	23684
830.246	23627
830.385	23611
830.524	23539
830.663	23417
830.802	23402
830.941	23140
831.08	23246
831.219	23258
831.357	23155
831.496	23516
831.635	23079
831.774	23033
831.913	22896
832.051	22911
832.19	22911
832.329	22904
832.467	22892
832.606	22885
832.744	22831
832.883	22930
833.022	22782
833.16	22961
833.299	22923
833.437	22873
833.576	22805
833.714	22900
833.852	22919
833.991	22885
834.129	22797
834.267	22778
834.406	22942
834.544	23006
834.682	22812
834.821	22736
834.959	22930
835.097	22713
835.235	22793
835.373	22729
835.511	22858
835.65	22710
835.788	22755
835.926	22436
836.064	22402
836.202	22474
836.34	22687
836.478	22752
836.615	22596
836.753	22668
836.891	22774
837.029	22820
837.167	22630
837.305	22516
837.443	22481
837.58	22451
837.718	22485
837.856	22508
837.993	22329
838.131	22489
838.269	22386
838.406	22363
838.544	22348
838.681	22188
838.819	22154
838.956	21884
839.094	21941
839.231	21876
839.369	22063
839.506	22398
839.643	22154
839.781	21846
839.918	21857
840.055	21865
840.193	21816
840.33	21694
840.467	21728
840.604	21865
840.742	22074
840.879	21724
841.016	21778
841.153	21736
841.29	21880
841.427	21694
841.564	21842
841.701	21819
841.838	21717
841.975	21591
842.112	21591
842.249	21435
842.385	21424
842.522	21751
842.659	21610
842.796	21450
842.933	21477
843.069	21397
843.206	21401
843.343	21595
843.479	21431
843.616	21519
843.752	21233
843.889	21218
844.025	21363
844.162	21264
844.298	21325
844.435	21268
844.571	21192
844.708	21252
844.844	21389
844.98	21336
845.117	21351
845.253	21116
845.389	21116
845.525	21150
845.661	20982
845.798	20941
845.934	21066
846.07	20845
846.206	20880
846.342	21051
846.478	20918
846.614	20731
846.75	20606
846.886	20743
847.022	20678
847.158	20613
847.294	20556
847.429	20655
847.565	20552
847.701	20853
847.837	20332
847.972	20419
848.108	20473
848.244	20514
848.379	20263
848.515	20233
848.65	20145
848.786	20210
848.921	20301
849.057	20309
849.192	20347
849.328	20301
849.463	20168
849.598	20145
849.734	20153
849.869	20035
850.004	20001
850.14	20005
850.275	19883
850.41	19909
850.545	19890
850.68	20050
850.815	19845
850.95	19887
851.085	20119
851.22	20035
851.355	19951
851.49	19852
851.625	20012
851.76	19845
851.895	19776
852.03	19788
852.165	19856
852.299	19951
852.434	19902
852.569	19856
852.703	19875
852.838	20001
852.973	20039
853.107	19989
853.242	19852
853.376	19712
853.511	19647
853.645	19746
853.78	19875
853.914	19712
854.048	19704
854.183	19685
854.317	19803
854.451	19940
854.585	19822
854.72	19575
854.854	19830
854.988	19666
855.122	19822
855.256	19495
855.39	19807
855.524	19765
855.658	19696
855.792	19723
855.926	19780
856.06	19746
856.194	19772
856.327	19689
856.461	19674
856.595	19662
856.729	19712
856.862	19841
856.996	19909
857.13	19807
857.263	19780
857.397	19795
857.53	19727
857.664	19757
857.797	19750
857.931	19788
858.064	19616
858.197	19685
858.331	19696
858.464	19689
858.597	19468
858.731	19514
858.864	19616
858.997	19559
859.13	19685
859.263	19693
859.396	19696
859.529	19605
859.662	19578
859.795	19609
859.928	19647
860.061	19765
860.194	19757
860.327	19700
860.46	19700
860.592	19674
860.725	19757
860.858	19727
860.99	19605
861.123	19670
861.256	19491
861.388	19590
861.521	20134
861.653	19544
861.786	19525
861.918	19487
862.05	19544
862.183	19662
862.315	19780
862.447	19753
862.58	19685
862.712	19381
862.844	19434
862.976	19346
863.108	19369
863.24	19871
863.372	19282
863.504	19521
863.636	19308
863.768	19434
863.9	19362
864.032	19285
864.164	19251
864.296	19350
864.428	19384
864.559	19407
864.691	19362
864.823	19362
864.954	19392
865.086	19251
865.217	19400
865.349	19072
865.48	19285
865.612	19255
865.743	19540
865.875	19266
866.006	19099
866.137	19282
866.269	19339
866.4	19187
866.531	19202
866.662	19232
866.793	19133
866.924	19247
867.055	19236
867.186	19206
867.317	19206
867.448	19179
867.579	19122
867.71	19065
867.841	19198
867.972	19206
868.103	19183
868.233	19206
868.364	19099
868.495	19236
868.625	19320
868.756	19544
868.886	19164
869.017	19324
869.147	19567
869.278	19544
869.408	19362
869.539	19362
869.669	19400
869.799	19392
869.929	19350
870.06	19506
870.19	19632
870.32	19670
870.45	19704
870.58	19742
870.71	19925
870.84	19868
870.97	19871
871.1	19776
871.23	19997
871.36	20031
871.489	19993
871.619	19822
871.749	20005
871.879	20031
872.008	20107
872.138	20016
872.267	20012
872.397	19826
872.526	19883
872.656	19925
872.785	19811
872.915	20001
873.044	20008
873.173	19967
873.303	20096
873.432	20005
873.561	20092
873.69	20119
873.819	19955
873.948	20050
874.077	20024
874.206	20005
874.335	20100
874.464	20134
874.593	20275
874.722	20286
874.851	20240
874.979	20298
875.108	20438
875.237	20366
875.365	20286
875.494	20393
875.623	20275
875.751	20259
875.88	20351
876.008	20267
876.136	20317
876.265	20636
876.393	20777
876.521	20678
876.65	20800
876.778	20701
876.906	20758
877.034	20739
877.162	20644
877.29	20583
877.418	20682
877.546	20724
877.674	20632
877.802	20594
877.93	20686
878.058	20480
878.185	20522
878.313	20644
878.441	20606
878.568	20457
878.696	20526
878.824	20644
878.951	20705
879.079	20838
879.206	20800
879.333	20735
879.461	20648
879.588	20773
879.715	20785
879.842	20899
879.97	20781
880.097	20495
880.224	20564
880.351	20442
880.478	20503
880.605	20423
880.732	20484
880.859	20743
880.986	20495
881.112	20518
881.239	20328
881.366	20153
881.493	20202
881.619	20054
881.746	20020
881.872	20111
881.999	20039
882.125	19974
882.252	20138
882.378	20065
882.505	20130
882.631	20069
882.757	19932
882.883	19982
883.01	19826
883.136	19814
883.262	19727
883.388	19727
883.514	19868
883.64	20005
883.766	19738
883.892	19746
884.018	19643
884.143	19826
884.269	19868
884.395	19457
884.52	19460
884.646	19540
884.772	19430
884.897	19343
885.023	19571
885.148	19651
885.274	19651
885.399	19510
885.524	19350
885.65	19480
885.775	19567
885.9	19476
886.025	19647
886.15	19563
886.275	19365
886.4	19377
886.525	19426
886.65	19400
886.775	19369
886.9	19556
887.025	19586
887.149	19468
887.274	19388
887.399	19156
887.523	19251
887.648	19221
887.773	19187
887.897	19301
888.021	19228
888.146	19244
888.27	19400
888.395	19335
888.519	19259
888.643	19255
888.767	19251
888.891	19168
889.015	19133
889.139	19129
889.263	19118
889.387	19156
889.511	19263
889.635	19148
889.759	19008
889.883	18993
890.006	18989
890.13	19110
890.254	18962
890.377	18966
890.501	18665
890.624	18730
890.748	18798
890.871	18665
890.995	18612
891.118	18448
891.241	18677
891.364	18650
891.488	18673
891.611	18585
891.734	18741
891.857	18749
891.98	18639
892.103	18661
892.226	18700
892.349	18559
892.471	18414
892.594	18574
892.717	18544
892.839	18540
892.962	18544
893.085	18642
893.207	18532
893.33	18540
893.452	18612
893.575	18612
893.697	18570
893.819	18703
893.941	18875
894.064	18715
894.186	18506
894.308	18566
894.43	18696
894.552	18661
894.674	18642
894.796	18429
894.918	18528
895.04	18547
895.161	18593
895.283	18726
895.405	18540
895.526	18528
895.648	18551
895.769	18582
895.891	18642
896.012	18711
896.134	18650
896.255	18726
896.376	18616
896.498	18665
896.619	18673
896.74	18677
896.861	18711
896.982	19004
897.103	19194
897.224	19046
897.345	18951
897.466	18795
897.587	18863
897.708	18920
897.828	18901
897.949	18730
898.07	18589
898.19	18760
898.311	18943
898.431	18772
898.552	18863
898.672	18928
898.792	18939
898.913	18825
899.033	18654
899.153	18658
899.273	18513
899.393	18582
899.513	18574
899.633	18544
899.753	18585
899.873	18441
899.993	18547
900.113	18448
900.232	18631
900.352	18566
900.472	18376
900.591	18441
900.711	18445
900.83	18334
900.95	18448
901.069	18498
901.189	18422
901.308	18106
901.427	18038
901.546	18049
901.665	17980
901.784	18060
901.904	17920
902.023	17726
902.141	17596
902.26	17589
902.379	17722
902.498	17551
902.617	17364
902.735	17486
902.854	17440
902.973	17398
903.091	17220
903.21	17159
903.328	17258
903.446	17060
903.565	17079
903.683	17037
903.801	16919
903.919	16980
904.038	16927
904.156	16850
904.274	16793
904.392	16782
904.51	16797
904.627	16877
904.745	16946
904.863	16892
904.981	16542
905.098	16462
905.216	16466
905.334	16478
905.451	16337
905.569	16379
905.686	16481
905.803	16500
905.921	16325
906.038	16360
906.155	16246
906.272	16188
906.389	16185
906.506	16021
906.623	16093
906.74	16002
906.857	15850
906.974	15907
907.091	16032
907.208	16188
907.324	15998
907.441	15915
907.557	15778
907.674	15694
907.79	15671
907.907	15587
908.023	15648
908.139	15671
908.256	15576
908.372	15515
908.488	15526
908.604	15420
908.72	15355
908.836	15378
908.952	15389
909.068	15370
909.184	15504
909.3	15310
909.415	15424
909.531	15332
909.647	15097
909.762	15055
909.878	15017
909.993	15199
910.108	15032
910.224	15070
910.339	15032
910.454	14937
910.57	14910
910.685	14853
910.8	15142
910.915	15131
911.03	14842
911.145	14735
911.259	14701
911.374	14834
911.489	14629
911.604	14594
911.718	14427
911.833	14431
911.947	14282
912.062	14161
912.176	14446
912.291	14412
912.405	14355
912.519	14606
912.633	14552
912.748	14438
912.862	14408
912.976	14263
913.09	14107
913.204	14278
913.318	14229
913.431	14275
913.545	14206
913.659	14328
913.772	14214
913.886	14092
914	14142
914.113	14229
914.226	14252
914.34	14168
914.453	14027
914.566	14195
914.68	13970
914.793	13982
914.906	13700
915.019	13734
915.132	13685
915.245	13620
915.358	13769
915.47	13753
915.583	13769
915.696	13837
915.809	13849
915.921	13928
916.034	13674
916.146	13601
916.259	13708
916.371	13780
916.483	13723
916.595	13597
916.708	13552
916.82	13616
916.932	13594
917.044	13559
917.156	13502
917.268	13529
917.38	13480
917.491	13434
917.603	13464
917.715	13499
917.826	13525
917.938	13426
918.049	13285
918.161	13373
918.272	13525
918.384	13491
918.495	13445
918.606	13251
918.717	13282
918.828	13228
918.939	13304
919.05	13149
919.161	13244
919.272	12947
919.383	12981
919.494	13232
919.604	13434
919.715	13164
919.826	13149
919.936	13232
920.047	13232
920.157	13084
920.267	13373
920.378	13282
920.488	13187
920.598	13327
920.708	13537
920.818	13438
920.928	13289
921.038	13438
921.148	13445
921.258	13114
921.368	13027
921.477	12985
921.587	12878
921.697	12871
921.806	12962
921.916	12814
922.025	12711
922.134	12593
922.244	12604
922.353	12631
922.462	12490
922.571	12346
922.68	12262
922.789	12190
922.898	12239
923.007	12163
923.116	12308
923.224	12220
923.333	12167
923.442	12053
923.55	12068
923.659	12091
923.767	12228
923.876	12057
923.984	12129
924.092	12049
924.201	12022
924.309	11977
924.417	11950
924.525	11935
924.633	11965
924.741	12791
924.849	11828
924.956	11836
925.064	11767
925.172	11665
925.279	11680
925.387	11764
925.494	11695
925.602	11889
925.709	11821
925.816	11615
925.924	11672
926.031	11733
926.138	11676
926.245	11745
926.352	11543
926.459	11688
926.566	11752
926.673	11680
926.779	11581
926.886	11467
926.993	11368
927.099	11376
927.206	11330
927.312	11299
927.419	11395
927.525	11410
927.631	11376
927.737	11201
927.843	11273
927.95	11102
928.056	11201
928.162	11197
928.267	11242
928.373	11859
928.479	11277
928.585	11022
928.69	11159
928.796	11235
928.901	11048
929.007	10850
929.112	11075
929.218	10968
929.323	10885
929.428	10869
929.533	10987
929.638	10805
929.743	10866
929.848	10972
929.953	10862
930.058	10797
930.163	10607
930.267	10668
930.372	10774
930.477	10596
930.581	10778
930.685	10706
930.79	10538
930.894	10599
930.998	10428
931.103	10672
931.207	10314
931.311	10223
931.415	10051
931.519	9876
931.623	9903
