Data from test_V78500241_986.txt Node
Date: Fri Mar 25 15:16:43 CST 2022
User: usil
Spectrometer: V785-0024
Trigger mode: 0
Integration Time (sec): 4.000000E-1
Scans to average: 1
Nonlinearity correction enabled: false
Boxcar width: 0
Storing dark spectrum: false
XAxis mode: Wavelengths
Number of Pixels in Spectrum: 1024
>>>>>Begin Spectral Data<<<<<
801.071	28295
801.214	28192
801.356	27960
801.499	27945
801.641	27838
801.783	27781
801.926	27907
802.068	27778
802.211	27747
802.353	27675
802.496	27557
802.638	27504
802.78	27553
802.923	27462
803.065	27408
803.208	27408
803.35	27538
803.492	27603
803.635	27580
803.777	27500
803.919	27603
804.061	28105
804.204	27743
804.346	27595
804.488	27713
804.63	27641
804.773	27542
804.915	27709
805.057	27747
805.199	27618
805.341	27778
805.483	27926
805.626	27831
805.768	27739
805.91	27781
806.052	27876
806.194	27759
806.336	27941
806.478	27911
806.62	27979
806.762	28044
806.904	28139
807.046	28226
807.188	28337
807.33	28291
807.472	28382
807.614	28173
807.756	28272
807.898	28078
808.04	28105
808.182	28074
808.324	28185
808.465	28249
808.607	28341
808.749	28466
808.891	28569
809.033	28691
809.174	28645
809.316	28611
809.458	28489
809.6	28573
809.741	28546
809.883	28755
810.025	28713
810.166	28771
810.308	28854
810.45	28888
810.591	28618
810.733	28691
810.875	28447
811.016	28333
811.158	28455
811.299	28550
811.441	28641
811.582	28645
811.724	28538
811.865	28421
812.007	28527
812.148	28535
812.29	28550
812.431	28554
812.573	28824
812.714	29010
812.855	29086
812.997	29098
813.138	29288
813.279	29220
813.421	29102
813.562	29143
813.703	28869
813.845	28828
813.986	28459
814.127	28421
814.268	28215
814.41	28234
814.551	28154
814.692	28291
814.833	28284
814.974	28215
815.115	28223
815.256	27991
815.397	28135
815.539	28207
815.68	28017
815.821	28078
815.962	27968
816.103	27994
816.244	27994
816.385	27831
816.526	27895
816.666	27660
816.807	27564
816.948	27667
817.089	27747
817.23	27660
817.371	27519
817.512	27633
817.653	27542
817.793	27435
817.934	27591
818.075	27568
818.216	27477
818.356	27587
818.497	27431
818.638	27298
818.778	27287
818.919	27370
819.06	27443
819.2	27492
819.341	27633
819.481	27610
819.622	27686
819.762	28013
819.903	27701
820.043	27682
820.184	27595
820.324	27595
820.465	27633
820.605	27679
820.746	27694
820.886	27610
821.026	27557
821.167	27682
821.307	27724
821.447	27564
821.588	27393
821.728	27477
821.868	27188
822.008	27039
822.149	26967
822.289	27108
822.429	26804
822.569	26609
822.709	26792
822.849	26629
822.99	26640
823.13	26564
823.27	26446
823.41	26377
823.55	26370
823.69	26412
823.83	26294
823.97	26313
824.11	26157
824.25	26199
824.389	26305
824.529	26434
824.669	26259
824.809	26324
824.949	26313
825.089	26336
825.228	26210
825.368	26016
825.508	26081
825.648	25966
825.787	26115
825.927	26145
826.067	26107
826.206	26035
826.346	25989
826.485	26290
826.625	26096
826.765	25974
826.904	26142
827.044	25928
827.183	25837
827.323	25761
827.462	25776
827.601	25772
827.741	25860
827.88	25940
828.02	25742
828.159	25765
828.298	25807
828.437	25696
828.577	25753
828.716	25921
828.855	25776
828.994	25624
829.134	25430
829.273	25411
829.412	25483
829.551	25331
829.69	25594
829.829	25499
829.968	25483
830.107	25643
830.246	25430
830.385	25510
830.524	25381
830.663	25460
830.802	25175
830.941	25168
831.08	25046
831.219	25240
831.357	25156
831.496	25449
831.635	25156
831.774	25118
831.913	25061
832.051	24939
832.19	24943
832.329	24932
832.467	24810
832.606	24795
832.744	24745
832.883	24749
833.022	24764
833.16	24924
833.299	24798
833.437	24753
833.576	24852
833.714	24966
833.852	24924
833.991	24989
834.129	25072
834.267	25038
834.406	24825
834.544	24920
834.682	24932
834.821	24658
834.959	24962
835.097	24738
835.235	24871
835.373	24913
835.511	24932
835.65	24677
835.788	24768
835.926	24658
836.064	24544
836.202	24441
836.34	24623
836.478	24863
836.615	24711
836.753	24722
836.891	24719
837.029	24715
837.167	24502
837.305	24665
837.443	24597
837.58	24627
837.718	24597
837.856	24498
837.993	24437
838.131	24566
838.269	24437
838.406	24395
838.544	24357
838.681	24304
838.819	24213
838.956	24015
839.094	23935
839.231	24007
839.369	24178
839.506	24479
839.643	24216
839.781	23969
839.918	23912
840.055	24045
840.193	23916
840.33	23863
840.467	23882
840.604	24038
840.742	24281
840.879	23798
841.016	23847
841.153	23695
841.29	23992
841.427	23927
841.564	23977
841.701	23863
841.838	23939
841.975	23668
842.112	23840
842.249	23684
842.385	23786
842.522	23939
842.659	23726
842.796	23581
842.933	23748
843.069	23600
843.206	23703
843.343	23710
843.479	23619
843.616	23600
843.752	23459
843.889	23463
844.025	23722
844.162	23478
844.298	23520
844.435	23440
844.571	23414
844.708	23341
844.844	23592
844.98	23634
845.117	23623
845.253	23463
845.389	23379
845.525	23318
845.661	23387
845.798	23185
845.934	23212
846.07	23170
846.206	23136
846.342	23273
846.478	23235
846.614	22873
846.75	22873
846.886	22911
847.022	22934
847.158	22987
847.294	22938
847.429	23102
847.565	23025
847.701	23086
847.837	22767
847.972	22611
848.108	22774
848.244	22679
848.379	22554
848.515	22508
848.65	22550
848.786	22611
848.921	22481
849.057	22508
849.192	22672
849.328	22611
849.463	22584
849.598	22341
849.734	22382
849.869	22299
850.004	22257
850.14	22257
850.275	22299
850.41	22010
850.545	22246
850.68	22207
850.815	22341
850.95	22280
851.085	22447
851.22	22462
851.355	22173
851.49	22230
851.625	22226
851.76	22169
851.895	22162
852.03	22272
852.165	22249
852.299	22207
852.434	22287
852.569	22314
852.703	22204
852.838	22344
852.973	22421
853.107	22234
853.242	22253
853.376	22082
853.511	21915
853.645	22078
853.78	22337
853.914	22025
854.048	21964
854.183	22143
854.317	22219
854.451	22215
854.585	22143
854.72	22082
854.854	22249
854.988	21960
855.122	22101
855.256	22025
855.39	22090
855.524	22139
855.658	22032
855.792	22063
855.926	22048
856.06	22090
856.194	22204
856.327	22166
856.461	21983
856.595	22093
856.729	21983
856.862	22120
856.996	22139
857.13	22074
857.263	22135
857.397	22105
857.53	22128
857.664	22116
857.797	22048
857.931	22261
858.064	22105
858.197	22196
858.331	22002
858.464	22010
858.597	21903
858.731	21991
858.864	22093
858.997	22055
859.13	22101
859.263	21975
859.396	22196
859.529	21994
859.662	22025
859.795	22059
859.928	22265
860.061	22204
860.194	22299
860.327	22200
860.46	22188
860.592	22219
860.725	22257
860.858	22219
860.99	22078
861.123	21983
861.256	22002
861.388	22086
861.521	22752
861.653	22017
861.786	21850
861.918	21956
862.05	22017
862.183	21987
862.315	22029
862.447	21983
862.58	22109
862.712	21899
862.844	21774
862.976	21850
863.108	21918
863.24	22188
863.372	21797
863.504	21766
863.636	21781
863.768	21808
863.9	21808
864.032	21812
864.164	21667
864.296	21846
864.428	21895
864.559	21949
864.691	21823
864.823	21698
864.954	21667
865.086	21861
865.217	21606
865.349	21679
865.48	21675
865.612	21785
865.743	21797
865.875	21591
866.006	21610
866.137	21705
866.269	21698
866.4	21660
866.531	21614
866.662	21568
866.793	21599
866.924	21629
867.055	21709
867.186	21542
867.317	21485
867.448	21534
867.579	21564
867.71	21424
867.841	21534
867.972	21587
868.103	21553
868.233	21675
868.364	21572
868.495	21781
868.625	21808
868.756	21972
868.886	21747
869.017	21831
869.147	21918
869.278	21918
869.408	21911
869.539	21797
869.669	21922
869.799	21918
869.929	21960
870.06	21998
870.19	22131
870.32	22124
870.45	22158
870.58	22276
870.71	22375
870.84	22333
870.97	22207
871.1	22211
871.23	22489
871.36	22656
871.489	22432
871.619	22417
871.749	22531
871.879	22459
872.008	22504
872.138	22443
872.267	22398
872.397	22318
872.526	22242
872.656	22268
872.785	22242
872.915	22455
873.044	22455
873.173	22519
873.303	22451
873.432	22542
873.561	22474
873.69	22508
873.819	22580
873.948	22462
874.077	22489
874.206	22341
874.335	22428
874.464	22538
874.593	22630
874.722	22679
874.851	22759
874.979	22710
875.108	22733
875.237	22748
875.365	22729
875.494	22561
875.623	22664
875.751	22615
875.88	22725
876.008	22801
876.136	22828
876.265	22953
876.393	23254
876.521	23178
876.65	23162
876.778	23010
876.906	23189
877.034	22881
877.162	22968
877.29	23018
877.418	23033
877.546	23086
877.674	22839
877.802	23010
877.93	22999
878.058	22965
878.185	22908
878.313	22885
878.441	22908
878.568	22927
878.696	22923
878.824	22999
878.951	23185
879.079	23246
879.206	23223
879.333	23140
879.461	23052
879.588	23083
879.715	23185
879.842	23242
879.97	23086
880.097	22740
880.224	22892
880.351	23014
880.478	22828
880.605	22679
880.732	22801
880.859	23075
880.986	22820
881.112	22831
881.239	22675
881.366	22512
881.493	22455
881.619	22421
881.746	22409
881.872	22303
881.999	22447
882.125	22322
882.252	22493
882.378	22314
882.505	22538
882.631	22223
882.757	22265
882.883	22177
883.01	22070
883.136	22025
883.262	22074
883.388	21903
883.514	22074
883.64	22097
883.766	22010
883.892	21755
884.018	21884
884.143	22070
884.269	21998
884.395	21705
884.52	21781
884.646	21701
884.772	21564
884.897	21675
885.023	21781
885.148	21724
885.274	21876
885.399	21736
885.524	21633
885.65	21755
885.775	21679
885.9	21736
886.025	21774
886.15	21713
886.275	21690
886.4	21618
886.525	21690
886.65	21568
886.775	21622
886.9	21770
887.025	21915
887.149	21686
887.274	21618
887.399	21591
887.523	21428
887.648	21408
887.773	21332
887.897	21545
888.021	21496
888.146	21374
888.27	21519
888.395	21603
888.519	21504
888.643	21473
888.767	21492
888.891	21397
889.015	21268
889.139	21351
889.263	21321
889.387	21466
889.511	21500
889.635	21310
889.759	21176
889.883	21195
890.006	21161
890.13	21306
890.254	21089
890.377	21157
890.501	20967
890.624	20979
890.748	21123
890.871	20986
890.995	20769
891.118	20834
891.241	20838
891.364	20796
891.488	20944
891.611	20880
891.734	20876
891.857	20807
891.98	20857
892.103	20876
892.226	20906
892.349	20701
892.471	20568
892.594	20621
892.717	20834
892.839	20754
892.962	20720
893.085	20883
893.207	20743
893.33	20598
893.452	20632
893.575	20788
893.697	20716
893.819	20864
893.941	20887
894.064	21032
894.186	20773
894.308	20651
894.43	20720
894.552	20868
894.674	20781
894.796	20613
894.918	20667
895.04	20758
895.161	20769
895.283	20659
895.405	20670
895.526	20743
895.648	20648
895.769	20583
895.891	20682
896.012	20815
896.134	20682
896.255	20609
896.376	20697
896.498	20758
896.619	20670
896.74	20750
896.861	20758
896.982	21024
897.103	21123
897.224	21020
897.345	20849
897.466	20925
897.587	20815
897.708	20929
897.828	20994
897.949	20887
898.07	20712
898.19	20788
898.311	20872
898.431	20800
898.552	20906
898.672	20948
898.792	20925
898.913	20788
899.033	20891
899.153	20693
899.273	20568
899.393	20659
899.513	20632
899.633	20670
899.753	20621
899.873	20511
899.993	20697
900.113	20617
900.232	20629
900.352	20621
900.472	20568
900.591	20374
900.711	20385
900.83	20328
900.95	20465
901.069	20412
901.189	20343
901.308	20187
901.427	19978
901.546	20024
901.665	19982
901.784	19951
901.904	19913
902.023	19818
902.141	19567
902.26	19510
902.379	19552
902.498	19422
902.617	19426
902.735	19457
902.854	19540
902.973	19308
903.091	19228
903.21	19175
903.328	19088
903.446	19095
903.565	19072
903.683	18981
903.801	18909
903.919	19008
904.038	18791
904.156	18749
904.274	18935
904.392	18703
904.51	18665
904.627	18639
904.745	18654
904.863	18741
904.981	18486
905.098	18456
905.216	18346
905.334	18521
905.451	18361
905.569	18437
905.686	18475
905.803	18315
905.921	18251
906.038	18190
906.155	18258
906.272	18076
906.389	18068
906.506	17961
906.623	17920
906.74	17942
906.857	17809
906.974	17859
907.091	17969
907.208	18034
907.324	17999
907.441	17790
907.557	17676
907.674	17813
907.79	17596
907.907	17543
908.023	17596
908.139	17611
908.256	17634
908.372	17490
908.488	17539
908.604	17372
908.72	17303
908.836	17250
908.952	17273
909.068	17277
909.184	17573
909.3	17391
909.415	17467
909.531	17383
909.647	17109
909.762	17029
909.878	17121
909.993	17075
910.108	17033
910.224	17086
910.339	16927
910.454	17022
910.57	16942
910.685	16744
910.8	17128
910.915	16923
911.03	16885
911.145	16759
911.259	16637
911.374	16683
911.489	16561
911.604	16443
911.718	16402
911.833	16375
911.947	16405
912.062	16226
912.176	16386
912.291	16356
912.405	16314
912.519	16558
912.633	16447
912.748	16421
912.862	16329
912.976	16147
913.09	16032
913.204	16090
913.318	16230
913.431	16291
913.545	16223
913.659	16287
913.772	16090
913.886	16010
914	16032
914.113	15983
914.226	16090
914.34	16032
914.453	15831
914.566	16013
914.68	15880
914.793	15850
914.906	15701
915.019	15599
915.132	15507
915.245	15549
915.358	15599
915.47	15652
915.583	15618
915.696	15591
915.809	15671
915.921	15625
916.034	15450
916.146	15500
916.259	15420
916.371	15557
916.483	15511
916.595	15386
916.708	15420
916.82	15359
916.932	15287
917.044	15325
917.156	15393
917.268	15256
917.38	15199
917.491	15192
917.603	15230
917.715	15203
917.826	15230
917.938	15180
918.049	15074
918.161	15176
918.272	15241
918.384	15287
918.495	15131
918.606	14941
918.717	14921
918.828	15039
918.939	15009
919.05	14929
919.161	14963
919.272	14739
919.383	14834
919.494	15017
919.604	15074
919.715	14929
919.826	14796
919.936	14956
920.047	14994
920.157	14925
920.267	15032
920.378	14872
920.488	14880
920.598	15108
920.708	15207
920.818	15001
920.928	14956
921.038	15199
921.148	15169
921.258	14872
921.368	14769
921.477	14610
921.587	14537
921.697	14530
921.806	14655
921.916	14457
922.025	14393
922.134	14339
922.244	14218
922.353	14317
922.462	14084
922.571	14012
922.68	13921
922.789	13932
922.898	13925
923.007	13849
923.116	13925
923.224	13894
923.333	13826
923.442	13845
923.55	13826
923.659	13765
923.767	13795
923.876	13674
923.984	13769
924.092	13601
924.201	13708
924.309	13582
924.417	13685
924.525	13575
924.633	13518
924.741	14480
924.849	13244
924.956	13457
925.064	13400
925.172	13255
925.279	13171
925.387	13396
925.494	13297
925.602	13495
925.709	13316
925.816	13164
925.924	13282
926.031	13247
926.138	13236
926.245	13289
926.352	13152
926.459	13324
926.566	13282
926.673	13175
926.779	13019
926.886	12996
926.993	12966
927.099	12939
927.206	12798
927.312	12669
927.419	12928
927.525	12776
927.631	12875
927.737	12741
927.843	12749
927.95	12631
928.056	12612
928.162	12642
928.267	12700
928.373	13282
928.479	12726
928.585	12547
928.69	12696
928.796	12563
928.901	12525
929.007	12380
929.112	12525
929.218	12525
929.323	12395
929.428	12369
929.533	12589
929.638	12292
929.743	12414
929.848	12414
929.953	12327
930.058	12262
930.163	12114
930.267	12121
930.372	12232
930.477	11969
930.581	12270
930.685	12091
930.79	11984
930.894	11965
930.998	11901
931.103	12034
931.207	11695
931.311	11699
931.415	11524
931.519	11372
931.623	11269
