Data from test_V78500241_2588.txt Node
Date: Fri Mar 25 15:27:52 CST 2022
User: usil
Spectrometer: V785-0024
Trigger mode: 0
Integration Time (sec): 4.000000E-1
Scans to average: 1
Nonlinearity correction enabled: false
Boxcar width: 0
Storing dark spectrum: false
XAxis mode: Wavelengths
Number of Pixels in Spectrum: 1024
>>>>>Begin Spectral Data<<<<<
801.071	26918
801.214	26842
801.356	26636
801.499	26659
801.641	26522
801.783	26568
801.926	26511
802.068	26522
802.211	26355
802.353	26358
802.496	26301
802.638	26157
802.78	26077
802.923	25921
803.065	25955
803.208	26126
803.35	26058
803.492	26298
803.635	26218
803.777	26149
803.919	26271
804.061	26606
804.204	26271
804.346	26320
804.488	26119
804.63	26332
804.773	26126
804.915	26298
805.057	26377
805.199	26210
805.341	26381
805.483	26374
805.626	26294
805.768	26263
805.91	26343
806.052	26396
806.194	26313
806.336	26385
806.478	26339
806.62	26362
806.762	26412
806.904	26629
807.046	26845
807.188	26743
807.33	26826
807.472	26838
807.614	26617
807.756	26724
807.898	26564
808.04	26590
808.182	26564
808.324	26609
808.465	26750
808.607	26815
808.749	26880
808.891	26990
809.033	27154
809.174	27032
809.316	26804
809.458	26864
809.6	27013
809.741	27001
809.883	27142
810.025	27150
810.166	27233
810.308	27256
810.45	27192
810.591	27127
810.733	26940
810.875	26929
811.016	26769
811.158	26842
811.299	27093
811.441	27081
811.582	27184
811.724	26933
811.865	26872
812.007	26910
812.148	26929
812.29	26921
812.431	27127
812.573	27116
812.714	27195
812.855	27580
812.997	27481
813.138	27690
813.279	27576
813.421	27561
813.562	27325
813.703	27275
813.845	27066
813.986	26857
814.127	26701
814.268	26743
814.41	26606
814.551	26522
814.692	26788
814.833	26579
814.974	26560
815.115	26594
815.256	26453
815.397	26431
815.539	26571
815.68	26412
815.821	26381
815.962	26400
816.103	26343
816.244	26271
816.385	26134
816.526	26122
816.666	25951
816.807	25856
816.948	26031
817.089	25966
817.23	25902
817.371	25841
817.512	25936
817.653	25818
817.793	25894
817.934	25757
818.075	25906
818.216	25845
818.356	25776
818.497	25715
818.638	25567
818.778	25571
818.919	25609
819.06	25616
819.2	25708
819.341	25803
819.481	25909
819.622	25955
819.762	26145
819.903	26187
820.043	26027
820.184	25959
820.324	25963
820.465	26039
820.605	26001
820.746	25902
820.886	25822
821.026	25932
821.167	25951
821.307	25925
821.447	25700
821.588	25780
821.728	25670
821.868	25514
822.008	25346
822.149	25419
822.289	25358
822.429	25145
822.569	25031
822.709	25008
822.849	24916
822.99	24722
823.13	24806
823.27	24856
823.41	24783
823.55	24593
823.69	24639
823.83	24688
823.97	24623
824.11	24544
824.25	24346
824.389	24601
824.529	24669
824.669	24475
824.809	24616
824.949	24650
825.089	24536
825.228	24544
825.368	24296
825.508	24414
825.648	24403
825.787	24323
825.927	24467
826.067	24334
826.206	24456
826.346	24475
826.485	24536
826.625	24353
826.765	24433
826.904	24262
827.044	24163
827.183	24057
827.323	23992
827.462	24087
827.601	24091
827.741	24030
827.88	24220
828.02	23756
828.159	24003
828.298	23984
828.437	24216
828.577	24114
828.716	24125
828.855	23999
828.994	23741
829.134	23821
829.273	23840
829.412	23714
829.551	23710
829.69	23699
829.829	23737
829.968	23866
830.107	23752
830.246	23855
830.385	23798
830.524	23634
830.663	23524
830.802	23509
830.941	23398
831.08	23455
831.219	23570
831.357	23391
831.496	23509
831.635	23356
831.774	23349
831.913	23318
832.051	23113
832.19	23155
832.329	23223
832.467	23124
832.606	22965
832.744	23010
832.883	22980
833.022	23067
833.16	23079
833.299	23071
833.437	23022
833.576	23052
833.714	23071
833.852	23197
833.991	23292
834.129	23277
834.267	23143
834.406	23094
834.544	23292
834.682	23159
834.821	23124
834.959	23254
835.097	23033
835.235	23208
835.373	23075
835.511	23033
835.65	22881
835.788	23029
835.926	22793
836.064	22786
836.202	22816
836.34	22930
836.478	23037
836.615	22938
836.753	22991
836.891	23117
837.029	22984
837.167	23033
837.305	22816
837.443	22869
837.58	22801
837.718	22923
837.856	22877
837.993	22896
838.131	22908
838.269	22713
838.406	22713
838.544	22607
838.681	22504
838.819	22569
838.956	22360
839.094	22314
839.231	22382
839.369	22500
839.506	22713
839.643	22584
839.781	22405
839.918	22215
840.055	22341
840.193	22455
840.33	22219
840.467	22375
840.604	22360
840.742	22531
840.879	22131
841.016	22143
841.153	22207
841.29	22462
841.427	22249
841.564	22333
841.701	22192
841.838	22185
841.975	22204
842.112	22268
842.249	22204
842.385	22204
842.522	22318
842.659	22070
842.796	22017
842.933	22017
843.069	21899
843.206	22013
843.343	22154
843.479	22070
843.616	22143
843.752	21812
843.889	21819
844.025	21987
844.162	21766
844.298	21884
844.435	21774
844.571	21785
844.708	21835
844.844	21876
844.98	21941
845.117	21915
845.253	21720
845.389	21599
845.525	21663
845.661	21644
845.798	21523
845.934	21447
846.07	21557
846.206	21519
846.342	21641
846.478	21424
846.614	21378
846.75	21332
846.886	21363
847.022	21233
847.158	21306
847.294	21283
847.429	21260
847.565	21241
847.701	21515
847.837	21036
847.972	20944
848.108	21062
848.244	20975
848.379	20807
848.515	20910
848.65	20979
848.786	20853
848.921	20906
849.057	20975
849.192	21051
849.328	20853
849.463	20773
849.598	20823
849.734	20731
849.869	20731
850.004	20541
850.14	20727
850.275	20663
850.41	20640
850.545	20560
850.68	20571
850.815	20689
850.95	20594
851.085	20811
851.22	20697
851.355	20754
851.49	20644
851.625	20556
851.76	20609
851.895	20606
852.03	20533
852.165	20621
852.299	20579
852.434	20697
852.569	20678
852.703	20598
852.838	20659
852.973	20659
853.107	20750
853.242	20594
853.376	20473
853.511	20332
853.645	20336
853.78	20560
853.914	20492
854.048	20374
854.183	20457
854.317	20320
854.451	20648
854.585	20423
854.72	20495
854.854	20530
854.988	20427
855.122	20450
855.256	20385
855.39	20393
855.524	20492
855.658	20541
855.792	20537
855.926	20465
856.06	20522
856.194	20465
856.327	20358
856.461	20278
856.595	20301
856.729	20480
856.862	20473
856.996	20457
857.13	20537
857.263	20575
857.397	20617
857.53	20476
857.664	20415
857.797	20469
857.931	20648
858.064	20431
858.197	20583
858.331	20461
858.464	20434
858.597	20309
858.731	20396
858.864	20412
858.997	20412
859.13	20457
859.263	20511
859.396	20495
859.529	20400
859.662	20454
859.795	20408
859.928	20393
860.061	20507
860.194	20518
860.327	20560
860.46	20533
860.592	20590
860.725	20583
860.858	20537
860.99	20533
861.123	20320
861.256	20301
861.388	20362
861.521	21165
861.653	20263
861.786	20347
861.918	20256
862.05	20233
862.183	20324
862.315	20343
862.447	20419
862.58	20396
862.712	20103
862.844	20119
862.976	20343
863.108	20191
863.24	20720
863.372	20176
863.504	20187
863.636	20183
863.768	20191
863.9	20210
864.032	20122
864.164	20176
864.296	20229
864.428	20256
864.559	20275
864.691	20218
864.823	20218
864.954	20221
865.086	20142
865.217	20039
865.349	19936
865.48	20062
865.612	20065
865.743	20313
865.875	20107
866.006	20012
866.137	20039
866.269	20065
866.4	20088
866.531	19970
866.662	19993
866.793	19940
866.924	19986
867.055	20012
867.186	20081
867.317	20031
867.448	19951
867.579	19982
867.71	19978
867.841	19944
867.972	20058
868.103	20005
868.233	20012
868.364	20069
868.495	20195
868.625	20172
868.756	20278
868.886	20214
869.017	20271
869.147	20366
869.278	20366
869.408	20339
869.539	20164
869.669	20309
869.799	20301
869.929	20358
870.06	20393
870.19	20667
870.32	20674
870.45	20514
870.58	20712
870.71	20750
870.84	20762
870.97	20682
871.1	20587
871.23	20819
871.36	20868
871.489	20762
871.619	20739
871.749	20754
871.879	20979
872.008	20990
872.138	20906
872.267	20868
872.397	20777
872.526	20716
872.656	20765
872.785	20724
872.915	20811
873.044	21047
873.173	20853
873.303	21039
873.432	20941
873.561	20982
873.69	20914
873.819	20853
873.948	20925
874.077	20914
874.206	20792
874.335	20861
874.464	21005
874.593	21176
874.722	21085
874.851	21230
874.979	21123
875.108	21081
875.237	21096
875.365	21081
875.494	21207
875.623	21119
875.751	21077
875.88	21317
876.008	21188
876.136	21355
876.265	21511
876.393	21648
876.521	21553
876.65	21614
876.778	21507
876.906	21408
877.034	21405
877.162	21443
877.29	21439
877.418	21564
877.546	21485
877.674	21332
877.802	21519
877.93	21568
878.058	21488
878.185	21420
878.313	21450
878.441	21374
878.568	21298
878.696	21443
878.824	21477
878.951	21591
879.079	21648
879.206	21656
879.333	21633
879.461	21469
879.588	21576
879.715	21671
879.842	21698
879.97	21633
880.097	21439
880.224	21302
880.351	21230
880.478	21332
880.605	21329
880.732	21249
880.859	21580
880.986	21291
881.112	21192
881.239	21230
881.366	21157
881.493	20979
881.619	20899
881.746	20990
881.872	20804
881.999	20849
882.125	20842
882.252	20807
882.378	20883
882.505	21036
882.631	20845
882.757	20469
882.883	20632
883.01	20648
883.136	20667
883.262	20541
883.388	20484
883.514	20632
883.64	20655
883.766	20587
883.892	20446
884.018	20511
884.143	20545
884.269	20545
884.395	20313
884.52	20130
884.646	20317
884.772	20187
884.897	20134
885.023	20301
885.148	20301
885.274	20476
885.399	20336
885.524	20370
885.65	20305
885.775	20229
885.9	20400
886.025	20313
886.15	20324
886.275	20305
886.4	20214
886.525	20320
886.65	20065
886.775	20233
886.9	20305
887.025	20454
887.149	20153
887.274	20073
887.399	20065
887.523	19982
887.648	19978
887.773	19959
887.897	20122
888.021	20077
888.146	20081
888.27	20176
888.395	20168
888.519	19963
888.643	20176
888.767	20149
888.891	19959
889.015	19898
889.139	19898
889.263	19887
889.387	19944
889.511	20020
889.635	19963
889.759	19944
889.883	19830
890.006	19776
890.13	19902
890.254	19696
890.377	19731
890.501	19628
890.624	19639
890.748	19723
890.871	19468
890.995	19544
891.118	19285
891.241	19434
891.364	19430
891.488	19620
891.611	19400
891.734	19434
891.857	19388
891.98	19476
892.103	19449
892.226	19426
892.349	19312
892.471	19308
892.594	19343
892.717	19381
892.839	19263
892.962	19365
893.085	19362
893.207	19358
893.33	19232
893.452	19240
893.575	19373
893.697	19304
893.819	19365
893.941	19571
894.064	19438
894.186	19285
894.308	19263
894.43	19457
894.552	19567
894.674	19449
894.796	19225
894.918	19270
895.04	19365
895.161	19403
895.283	19312
895.405	19244
895.526	19304
895.648	19327
895.769	19449
895.891	19346
896.012	19445
896.134	19411
896.255	19400
896.376	19320
896.498	19384
896.619	19381
896.74	19282
896.861	19384
896.982	19814
897.103	19799
897.224	19590
897.345	19563
897.466	19518
897.587	19601
897.708	19776
897.828	19651
897.949	19537
898.07	19510
898.19	19400
898.311	19742
898.431	19601
898.552	19563
898.672	19632
898.792	19719
898.913	19506
899.033	19381
899.153	19407
899.273	19297
899.393	19388
899.513	19453
899.633	19259
899.753	19415
899.873	19255
899.993	19327
900.113	19308
900.232	19301
900.352	19244
900.472	19168
900.591	19164
900.711	19114
900.83	19027
900.95	19164
901.069	19126
901.189	19053
901.308	18806
901.427	18703
901.546	18825
901.665	18814
901.784	18711
901.904	18566
902.023	18536
902.141	18369
902.26	18296
902.379	18338
902.498	18220
902.617	18243
902.735	18243
902.854	18391
902.973	18186
903.091	17969
903.21	18003
903.328	17897
903.446	17870
903.565	17676
903.683	17779
903.801	17661
903.919	17764
904.038	17745
904.156	17459
904.274	17570
904.392	17497
904.51	17414
904.627	17455
904.745	17562
904.863	17608
904.981	17273
905.098	17227
905.216	17296
905.334	17208
905.451	17231
905.569	17181
905.686	17250
905.803	17071
905.921	16946
906.038	17060
906.155	16987
906.272	17014
906.389	16892
906.506	16752
906.623	16748
906.74	16740
906.857	16626
906.974	16588
907.091	16778
907.208	16767
907.324	16672
907.441	16660
907.557	16500
907.674	16421
907.79	16455
907.907	16523
908.023	16470
908.139	16500
908.256	16447
908.372	16379
908.488	16394
908.604	16360
908.72	16112
908.836	16135
908.952	16204
909.068	16150
909.184	16291
909.3	16101
909.415	16166
909.531	16158
909.647	15987
909.762	15895
909.878	15812
909.993	15835
910.108	15831
910.224	15960
910.339	15842
910.454	15759
910.57	15686
910.685	15690
910.8	15899
910.915	15766
911.03	15739
911.145	15500
911.259	15435
911.374	15469
911.489	15401
911.604	15294
911.718	15230
911.833	15351
911.947	15173
912.062	15154
912.176	15317
912.291	15363
912.405	15336
912.519	15477
912.633	15515
912.748	15245
912.862	15241
912.976	15203
913.09	15024
913.204	15020
913.318	15146
913.431	15123
913.545	15017
913.659	15214
913.772	15036
913.886	14986
914	14781
914.113	15043
914.226	15043
914.34	14975
914.453	14811
914.566	14937
914.68	14834
914.793	14750
914.906	14674
915.019	14537
915.132	14465
915.245	14518
915.358	14488
915.47	14552
915.583	14594
915.696	14545
915.809	14625
915.921	14560
916.034	14377
916.146	14450
916.259	14396
916.371	14461
916.483	14431
916.595	14362
916.708	14412
916.82	14400
916.932	14286
917.044	14309
917.156	14282
917.268	14100
917.38	14180
917.491	14164
917.603	14225
917.715	14263
917.826	14317
917.938	14069
918.049	14092
918.161	14100
918.272	14282
918.384	14187
918.495	14218
918.606	13932
918.717	13887
918.828	13947
918.939	13928
919.05	13803
919.161	13921
919.272	13837
919.383	13776
919.494	14081
919.604	14134
919.715	13906
919.826	13852
919.936	13890
920.047	14012
920.157	13856
920.267	14123
920.378	13902
920.488	13932
920.598	14168
920.708	14119
920.818	14081
920.928	14081
921.038	14267
921.148	14134
921.258	13940
921.368	13750
921.477	13795
921.587	13696
921.697	13540
921.806	13708
921.916	13499
922.025	13324
922.134	13350
922.244	13274
922.353	13438
922.462	13221
922.571	13225
922.68	13004
922.789	13000
922.898	12973
923.007	12897
923.116	13031
923.224	12993
923.333	12970
923.442	12814
923.55	12882
923.659	12791
923.767	12905
923.876	12829
923.984	12878
924.092	12768
924.201	12669
924.309	12798
924.417	12821
924.525	12700
924.633	12635
924.741	13590
924.849	12388
924.956	12620
925.064	12486
925.172	12357
925.279	12441
925.387	12448
925.494	12422
925.602	12585
925.709	12483
925.816	12365
925.924	12422
926.031	12448
926.138	12410
926.245	12380
926.352	12289
926.459	12380
926.566	12422
926.673	12372
926.779	12136
926.886	12171
926.993	12068
927.099	11923
927.206	11969
927.312	11942
927.419	12011
927.525	12003
927.631	12026
927.737	11874
927.843	11855
927.95	11756
928.056	11851
928.162	11775
928.267	11897
928.373	12452
928.479	11870
928.585	11779
928.69	11805
928.796	11832
928.901	11714
929.007	11623
929.112	11653
929.218	11619
929.323	11543
929.428	11509
929.533	11630
929.638	11589
929.743	11501
929.848	11501
929.953	11543
930.058	11349
930.163	11208
930.267	11258
930.372	11417
930.477	11265
930.581	11474
930.685	11383
930.79	11181
930.894	11170
930.998	11136
931.103	11242
931.207	10976
931.311	10824
931.415	10694
931.519	10580
931.623	10538
