Data from test_V78500241_3528.txt Node
Date: Fri Mar 25 15:34:25 CST 2022
User: usil
Spectrometer: V785-0024
Trigger mode: 0
Integration Time (sec): 4.000000E-1
Scans to average: 1
Nonlinearity correction enabled: false
Boxcar width: 0
Storing dark spectrum: false
XAxis mode: Wavelengths
Number of Pixels in Spectrum: 1024
>>>>>Begin Spectral Data<<<<<
801.071	27458
801.214	27306
801.356	27070
801.499	27024
801.641	26906
801.783	26925
801.926	26845
802.068	26765
802.211	26811
802.353	26807
802.496	26689
802.638	26663
802.78	26499
802.923	26419
803.065	26450
803.208	26385
803.35	26419
803.492	26575
803.635	26785
803.777	26678
803.919	26739
804.061	27096
804.204	26807
804.346	26659
804.488	26655
804.63	26705
804.773	26579
804.915	26693
805.057	26777
805.199	26720
805.341	26804
805.483	26769
805.626	26777
805.768	26674
805.91	26769
806.052	26731
806.194	26746
806.336	26849
806.478	26925
806.62	26861
806.762	26880
806.904	27005
807.046	27332
807.188	27275
807.33	27142
807.472	27199
807.614	27207
807.756	27169
807.898	27047
808.04	26979
808.182	26918
808.324	27165
808.465	27039
808.607	27233
808.749	27447
808.891	27329
809.033	27439
809.174	27443
809.316	27374
809.458	27389
809.6	27389
809.741	27564
809.883	27473
810.025	27701
810.166	27656
810.308	27622
810.45	27618
810.591	27591
810.733	27408
810.875	27507
811.016	27313
811.158	27416
811.299	27389
811.441	27637
811.582	27610
811.724	27367
811.865	27351
812.007	27298
812.148	27424
812.29	27279
812.431	27458
812.573	27739
812.714	27880
812.855	27861
812.997	28074
813.138	28181
813.279	28010
813.421	27930
813.562	27785
813.703	27698
813.845	27603
813.986	27336
814.127	27370
814.268	27047
814.41	26979
814.551	26937
814.692	27241
814.833	27051
814.974	27062
815.115	26963
815.256	26880
815.397	26883
815.539	26883
815.68	26743
815.821	26762
815.962	26887
816.103	26842
816.244	26526
816.385	26446
816.526	26556
816.666	26423
816.807	26240
816.948	26343
817.089	26450
817.23	26237
817.371	26351
817.512	26320
817.653	26317
817.793	26199
817.934	26286
818.075	26286
818.216	26301
818.356	26172
818.497	26271
818.638	26039
818.778	26142
818.919	26176
819.06	26267
819.2	26442
819.341	26377
819.481	26305
819.622	26503
819.762	26636
819.903	26670
820.043	26648
820.184	26419
820.324	26415
820.465	26465
820.605	26381
820.746	26415
820.886	26317
821.026	26404
821.167	26328
821.307	26484
821.447	26415
821.588	26153
821.728	26149
821.868	25982
822.008	25917
822.149	25780
822.289	25704
822.429	25628
822.569	25487
822.709	25548
822.849	25384
822.99	25308
823.13	25293
823.27	25251
823.41	25122
823.55	25034
823.69	25209
823.83	25202
823.97	25031
824.11	24856
824.25	24916
824.389	24863
824.529	25038
824.669	25019
824.809	25027
824.949	25069
825.089	25122
825.228	24833
825.368	24863
825.508	24753
825.648	24875
825.787	24772
825.927	24943
826.067	24825
826.206	24760
826.346	24840
826.485	24863
826.625	24856
826.765	25027
826.904	24837
827.044	24532
827.183	24696
827.323	24642
827.462	24601
827.601	24589
827.741	24631
827.88	24597
828.02	24486
828.159	24490
828.298	24593
828.437	24528
828.577	24410
828.716	24547
828.855	24410
828.994	24186
829.134	24125
829.273	24441
829.412	24311
829.551	24136
829.69	24262
829.829	24372
829.968	24205
830.107	24471
830.246	24277
830.385	24205
830.524	24136
830.663	24068
830.802	23980
830.941	23935
831.08	23916
831.219	23908
831.357	23916
831.496	24125
831.635	23790
831.774	23863
831.913	23870
832.051	23668
832.19	23767
832.329	23589
832.467	23623
832.606	23406
832.744	23452
832.883	23520
833.022	23406
833.16	23630
833.299	23615
833.437	23524
833.576	23630
833.714	23672
833.852	23676
833.991	23611
834.129	23627
834.267	23790
834.406	23543
834.544	23619
834.682	23566
834.821	23619
834.959	23821
835.097	23516
835.235	23634
835.373	23699
835.511	23608
835.65	23482
835.788	23376
835.926	23425
836.064	23303
836.202	23337
836.34	23543
836.478	23581
836.615	23440
836.753	23562
836.891	23474
837.029	23463
837.167	23448
837.305	23395
837.443	23398
837.58	23296
837.718	23429
837.856	23379
837.993	23220
838.131	23216
838.269	23094
838.406	23326
838.544	23044
838.681	23018
838.819	23006
838.956	22763
839.094	22843
839.231	22961
839.369	23113
839.506	23250
839.643	23181
839.781	22786
839.918	22706
840.055	22831
840.193	22805
840.33	22577
840.467	22740
840.604	22778
840.742	22946
840.879	22596
841.016	22641
841.153	22649
841.29	22854
841.427	22683
841.564	22850
841.701	22660
841.838	22649
841.975	22736
842.112	22721
842.249	22664
842.385	22664
842.522	22649
842.659	22622
842.796	22611
842.933	22443
843.069	22436
843.206	22516
843.343	22611
843.479	22546
843.616	22459
843.752	22287
843.889	22352
844.025	22569
844.162	22238
844.298	22451
844.435	22257
844.571	22272
844.708	22329
844.844	22352
844.98	22424
845.117	22348
845.253	22135
845.389	22207
845.525	22078
845.661	22116
845.798	22032
845.934	22059
846.07	22036
846.206	21968
846.342	22166
846.478	21892
846.614	21713
846.75	21766
846.886	21698
847.022	21652
847.158	21743
847.294	21793
847.429	21865
847.565	21823
847.701	21934
847.837	21610
847.972	21485
848.108	21549
848.244	21580
848.379	21268
848.515	21405
848.65	21313
848.786	21424
848.921	21416
849.057	21469
849.192	21310
849.328	21428
849.463	21332
849.598	21256
849.734	21291
849.869	21241
850.004	21135
850.14	21195
850.275	21222
850.41	21074
850.545	21074
850.68	21085
850.815	21176
850.95	21036
851.085	21370
851.22	21211
851.355	21233
851.49	21119
851.625	20986
851.76	21036
851.895	21058
852.03	21058
852.165	21013
852.299	21047
852.434	21203
852.569	21062
852.703	21058
852.838	21211
852.973	21272
853.107	21241
853.242	21089
853.376	20944
853.511	20746
853.645	20948
853.78	21127
853.914	20910
854.048	20956
854.183	20929
854.317	20982
854.451	21116
854.585	20982
854.72	21009
854.854	21043
854.988	20834
855.122	20971
855.256	20815
855.39	20864
855.524	21055
855.658	20944
855.792	20982
855.926	20921
856.06	21013
856.194	21051
856.327	21001
856.461	20762
856.595	20746
856.729	20899
856.862	20864
856.996	20914
857.13	20982
857.263	20956
857.397	20967
857.53	21001
857.664	21070
857.797	21024
857.931	20971
858.064	21024
858.197	21077
858.331	20933
858.464	20853
858.597	20838
858.731	20883
858.864	20948
858.997	20944
859.13	21032
859.263	20876
859.396	21093
859.529	20815
859.662	20895
859.795	20727
859.928	20956
860.061	21173
860.194	21123
860.327	20963
860.46	20880
860.592	21093
860.725	21017
860.858	21150
860.99	20979
861.123	20849
861.256	20819
861.388	20921
861.521	21812
861.653	20849
861.786	20693
861.918	20739
862.05	20788
862.183	20670
862.315	20925
862.447	20918
862.58	20788
862.712	20674
862.844	20640
862.976	20682
863.108	20716
863.24	21047
863.372	20674
863.504	20701
863.636	20552
863.768	20773
863.9	20556
864.032	20674
864.164	20655
864.296	20686
864.428	20583
864.559	20708
864.691	20701
864.823	20632
864.954	20670
865.086	20682
865.217	20537
865.349	20404
865.48	20431
865.612	20533
865.743	20602
865.875	20537
866.006	20503
866.137	20602
866.269	20511
866.4	20457
866.531	20499
866.662	20518
866.793	20434
866.924	20606
867.055	20454
867.186	20476
867.317	20446
867.448	20389
867.579	20457
867.71	20343
867.841	20393
867.972	20396
868.103	20545
868.233	20492
868.364	20583
868.495	20583
868.625	20598
868.756	20811
868.886	20587
869.017	20697
869.147	20853
869.278	20735
869.408	20686
869.539	20689
869.669	20716
869.799	20853
869.929	20754
870.06	20842
870.19	21077
870.32	20975
870.45	21112
870.58	21119
870.71	21180
870.84	21275
870.97	21146
871.1	21070
871.23	21325
871.36	21367
871.489	21275
871.619	21401
871.749	21230
871.879	21408
872.008	21431
872.138	21336
872.267	21408
872.397	21199
872.526	21146
872.656	21173
872.785	21085
872.915	21348
873.044	21523
873.173	21275
873.303	21450
873.432	21363
873.561	21473
873.69	21291
873.819	21348
873.948	21477
874.077	21359
874.206	21287
874.335	21363
874.464	21545
874.593	21675
874.722	21599
874.851	21576
874.979	21701
875.108	21614
875.237	21652
875.365	21523
875.494	21568
875.623	21599
875.751	21538
875.88	21667
876.008	21724
876.136	21728
876.265	22010
876.393	22097
876.521	22059
876.65	22128
876.778	22044
876.906	21949
877.034	21998
877.162	22025
877.29	21979
877.418	21911
877.546	22021
877.674	21949
877.802	21880
877.93	21991
878.058	21945
878.185	21941
878.313	21827
878.441	22021
878.568	21827
878.696	21888
878.824	21983
878.951	21937
879.079	22128
879.206	22139
879.333	22211
879.461	22166
879.588	22010
879.715	22048
879.842	22310
879.97	22029
880.097	21838
880.224	21804
880.351	21797
880.478	21774
880.605	21762
880.732	21842
880.859	22013
880.986	21698
881.112	21812
881.239	21641
881.366	21587
881.493	21511
881.619	21378
881.746	21401
881.872	21351
881.999	21344
882.125	21420
882.252	21363
882.378	21340
882.505	21507
882.631	21230
882.757	21058
882.883	21146
883.01	21070
883.136	21020
883.262	20834
883.388	20864
883.514	21024
883.64	21192
883.766	20975
883.892	20804
884.018	20933
884.143	20967
884.269	21123
884.395	20792
884.52	20720
884.646	20667
884.772	20575
884.897	20655
885.023	20727
885.148	20853
885.274	20804
885.399	20849
885.524	20727
885.65	20769
885.775	20636
885.9	20693
886.025	20724
886.15	20731
886.275	20526
886.4	20716
886.525	20598
886.65	20697
886.775	20609
886.9	20648
887.025	20967
887.149	20583
887.274	20419
887.399	20514
887.523	20480
887.648	20351
887.773	20332
887.897	20495
888.021	20518
888.146	20434
888.27	20533
888.395	20617
888.519	20507
888.643	20507
888.767	20492
888.891	20396
889.015	20393
889.139	20305
889.263	20290
889.387	20419
889.511	20454
889.635	20358
889.759	20339
889.883	20317
890.006	20275
890.13	20313
890.254	20240
890.377	20122
890.501	20043
890.624	19978
890.748	20145
890.871	19860
890.995	20024
891.118	19799
891.241	19871
891.364	19898
891.488	19997
891.611	19890
891.734	19928
891.857	19898
891.98	19883
892.103	19818
892.226	19906
892.349	19776
892.471	19746
892.594	19795
892.717	19906
892.839	19772
892.962	19811
893.085	19753
893.207	19761
893.33	19738
893.452	19594
893.575	19833
893.697	19658
893.819	19944
893.941	20027
894.064	19830
894.186	19708
894.308	19662
894.43	19879
894.552	19921
894.674	19845
894.796	19677
894.918	19731
895.04	19677
895.161	19860
895.283	19693
895.405	19772
895.526	19670
895.648	19769
895.769	19852
895.891	19791
896.012	19780
896.134	19753
896.255	19708
896.376	19609
896.498	19807
896.619	19738
896.74	19791
896.861	19765
896.982	20001
897.103	20271
897.224	20046
897.345	19940
897.466	19989
897.587	20012
897.708	20077
897.828	20062
897.949	19993
898.07	19856
898.19	19970
898.311	20065
898.431	20050
898.552	19936
898.672	20126
898.792	20062
898.913	20012
899.033	19849
899.153	19818
899.273	19719
899.393	19738
899.513	19799
899.633	19723
899.753	19841
899.873	19643
899.993	19693
900.113	19575
900.232	19666
900.352	19582
900.472	19616
900.591	19483
900.711	19483
900.83	19392
900.95	19540
901.069	19605
901.189	19388
901.308	19148
901.427	19145
901.546	19084
901.665	19202
901.784	19061
901.904	19012
902.023	18993
902.141	18688
902.26	18623
902.379	18677
902.498	18677
902.617	18540
902.735	18707
902.854	18544
902.973	18532
903.091	18304
903.21	18216
903.328	18266
903.446	18186
903.565	18171
903.683	18174
903.801	18022
903.919	18087
904.038	18102
904.156	17958
904.274	17984
904.392	17847
904.51	17863
904.627	17874
904.745	17973
904.863	17893
904.981	17653
905.098	17619
905.216	17581
905.334	17623
905.451	17482
905.569	17619
905.686	17532
905.803	17551
905.921	17433
906.038	17448
906.155	17376
906.272	17204
906.389	17315
906.506	17056
906.623	17181
906.74	17117
906.857	16984
906.974	16881
907.091	17166
907.208	17189
907.324	17193
907.441	17018
907.557	16828
907.674	16911
907.79	16809
907.907	16790
908.023	16862
908.139	16782
908.256	16687
908.372	16637
908.488	16641
908.604	16489
908.72	16523
908.836	16436
908.952	16554
909.068	16637
909.184	16660
909.3	16542
909.415	16611
909.531	16523
909.647	16337
909.762	16367
909.878	16284
909.993	16223
910.108	16234
910.224	16192
910.339	16215
910.454	16192
910.57	15975
910.685	15956
910.8	16192
910.915	16124
911.03	15968
911.145	15838
911.259	15747
911.374	15918
911.489	15854
911.604	15675
911.718	15576
911.833	15572
911.947	15496
912.062	15363
912.176	15633
912.291	15610
912.405	15561
912.519	15789
912.633	15785
912.748	15701
912.862	15515
912.976	15496
913.09	15272
913.204	15351
913.318	15469
913.431	15557
913.545	15496
913.659	15523
913.772	15363
913.886	15249
914	15150
914.113	15226
914.226	15310
914.34	15245
914.453	15028
914.566	15226
914.68	15192
914.793	15108
914.906	14849
915.019	14815
915.132	14796
915.245	14754
915.358	14853
915.47	14883
915.583	14750
915.696	14853
915.809	14853
915.921	14979
916.034	14629
916.146	14727
916.259	14648
916.371	14792
916.483	14792
916.595	14590
916.708	14773
916.82	14629
916.932	14564
917.044	14632
917.156	14682
917.268	14450
917.38	14526
917.491	14434
917.603	14568
917.715	14606
917.826	14640
917.938	14374
918.049	14339
918.161	14423
918.272	14583
918.384	14556
918.495	14427
918.606	14298
918.717	14252
918.828	14301
918.939	14259
919.05	14138
919.161	14237
919.272	13944
919.383	14157
919.494	14267
919.604	14492
919.715	14237
919.826	14161
919.936	14278
920.047	14336
920.157	14271
920.267	14355
920.378	14248
920.488	14278
920.598	14385
920.708	14571
920.818	14427
920.928	14240
921.038	14545
921.148	14499
921.258	14202
921.368	14031
921.477	14065
921.587	13951
921.697	13799
921.806	13982
921.916	13807
922.025	13746
922.134	13643
922.244	13514
922.353	13620
922.462	13491
922.571	13476
922.68	13278
922.789	13354
922.898	13331
923.007	13274
923.116	13244
923.224	13308
923.333	13327
923.442	13107
923.55	13095
923.659	13103
923.767	13129
923.876	13061
923.984	13091
924.092	13076
924.201	13126
924.309	13099
924.417	13053
924.525	12973
924.633	12981
924.741	13685
924.849	12719
924.956	12920
925.064	12700
925.172	12658
925.279	12669
925.387	12764
925.494	12650
925.602	12768
925.709	12787
925.816	12574
925.924	12669
926.031	12817
926.138	12669
926.245	12711
926.352	12547
926.459	12654
926.566	12764
926.673	12536
926.779	12460
926.886	12471
926.993	12289
927.099	12239
927.206	12216
927.312	12228
927.419	12327
927.525	12266
927.631	12323
927.737	12144
927.843	12068
927.95	12057
928.056	12053
928.162	12136
928.267	12087
928.373	12578
928.479	12186
928.585	11908
928.69	12076
928.796	12076
928.901	11912
929.007	11821
929.112	11946
929.218	11920
929.323	11821
929.428	11832
929.533	11965
929.638	11786
929.743	11771
929.848	11859
929.953	11790
930.058	11642
930.163	11486
930.267	11573
930.372	11634
930.477	11421
930.581	11608
930.685	11471
930.79	11379
930.894	11402
930.998	11474
931.103	11501
931.207	11136
931.311	11098
931.415	11022
931.519	10831
931.623	10778
