Data from test_V78500241_422.txt Node
Date: Fri Mar 25 15:12:47 CST 2022
User: usil
Spectrometer: V785-0024
Trigger mode: 0
Integration Time (sec): 4.000000E-1
Scans to average: 1
Nonlinearity correction enabled: false
Boxcar width: 0
Storing dark spectrum: false
XAxis mode: Wavelengths
Number of Pixels in Spectrum: 1024
>>>>>Begin Spectral Data<<<<<
801.071	27222
801.214	26979
801.356	26963
801.499	26796
801.641	26819
801.783	26762
801.926	26826
802.068	26727
802.211	26590
802.353	26663
802.496	26438
802.638	26408
802.78	26244
802.923	26465
803.065	26320
803.208	26355
803.35	26438
803.492	26617
803.635	26457
803.777	26530
803.919	26514
804.061	26861
804.204	26594
804.346	26488
804.488	26347
804.63	26545
804.773	26385
804.915	26499
805.057	26670
805.199	26556
805.341	26682
805.483	26598
805.626	26640
805.768	26495
805.91	26758
806.052	26644
806.194	26495
806.336	26857
806.478	26640
806.62	26777
806.762	26861
806.904	26948
807.046	27093
807.188	27039
807.33	27081
807.472	27051
807.614	27009
807.756	26994
807.898	26899
808.04	26769
808.182	26842
808.324	26830
808.465	27028
808.607	27039
808.749	27256
808.891	27279
809.033	27370
809.174	27310
809.316	27180
809.458	27245
809.6	27093
809.741	27393
809.883	27310
810.025	27431
810.166	27492
810.308	27424
810.45	27507
810.591	27435
810.733	27260
810.875	27214
811.016	27066
811.158	27222
811.299	27416
811.441	27481
811.582	27306
811.724	27161
811.865	27161
812.007	27192
812.148	27093
812.29	27272
812.431	27313
812.573	27576
812.714	27656
812.855	27781
812.997	27907
813.138	28006
813.279	27979
813.421	27789
813.562	27720
813.703	27519
813.845	27564
813.986	27058
814.127	27165
814.268	26849
814.41	27055
814.551	26906
814.692	26929
814.833	26823
814.974	26887
815.115	26807
815.256	26659
815.397	26765
815.539	26712
815.68	26716
815.821	26682
815.962	26781
816.103	26663
816.244	26693
816.385	26389
816.526	26488
816.666	26328
816.807	26233
816.948	26233
817.089	26336
817.23	26301
817.371	26176
817.512	26202
817.653	26278
817.793	26176
817.934	26214
818.075	26214
818.216	26202
818.356	26202
818.497	26073
818.638	25795
818.778	25932
818.919	25932
819.06	26027
819.2	26031
819.341	26221
819.481	26069
819.622	26313
819.762	26514
819.903	26484
820.043	26336
820.184	26362
820.324	26252
820.465	26404
820.605	26149
820.746	26271
820.886	26187
821.026	26218
821.167	26317
821.307	26476
821.447	26252
821.588	26126
821.728	25879
821.868	25822
822.008	25658
822.149	25700
822.289	25662
822.429	25468
822.569	25324
822.709	25365
822.849	25190
822.99	25046
823.13	25122
823.27	25183
823.41	24852
823.55	24886
823.69	24996
823.83	24947
823.97	24939
824.11	24745
824.25	24658
824.389	24700
824.529	24882
824.669	24730
824.809	24932
824.949	24943
825.089	24814
825.228	24745
825.368	24700
825.508	24509
825.648	24837
825.787	24631
825.927	24726
826.067	24578
826.206	24623
826.346	24741
826.485	24608
826.625	24749
826.765	24749
826.904	24601
827.044	24426
827.183	24361
827.323	24429
827.462	24429
827.601	24369
827.741	24395
827.88	24357
828.02	24342
828.159	24251
828.298	24273
828.437	24502
828.577	24209
828.716	24376
828.855	24338
828.994	24045
829.134	24068
829.273	24148
829.412	24015
829.551	24041
829.69	23973
829.829	23984
829.968	24076
830.107	24190
830.246	24159
830.385	24007
830.524	23961
830.663	23920
830.802	23805
830.941	23813
831.08	23726
831.219	23840
831.357	23646
831.496	23977
831.635	23699
831.774	23547
831.913	23653
832.051	23429
832.19	23448
832.329	23490
832.467	23509
832.606	23261
832.744	23337
832.883	23258
833.022	23292
833.16	23406
833.299	23364
833.437	23440
833.576	23425
833.714	23433
833.852	23520
833.991	23520
834.129	23581
834.267	23570
834.406	23414
834.544	23425
834.682	23433
834.821	23387
834.959	23395
835.097	23292
835.235	23478
835.373	23425
835.511	23421
835.65	23318
835.788	23288
835.926	23254
836.064	23010
836.202	23155
836.34	23478
836.478	23322
836.615	23246
836.753	23231
836.891	23436
837.029	23296
837.167	23353
837.305	23227
837.443	23083
837.58	23025
837.718	23261
837.856	23162
837.993	23117
838.131	23067
838.269	22972
838.406	23048
838.544	22873
838.681	22771
838.819	22790
838.956	22656
839.094	22573
839.231	22694
839.369	22854
839.506	22984
839.643	22915
839.781	22702
839.918	22542
840.055	22573
840.193	22664
840.33	22455
840.467	22519
840.604	22668
840.742	22805
840.879	22466
841.016	22519
841.153	22485
841.29	22679
841.427	22554
841.564	22660
841.701	22538
841.838	22527
841.975	22542
842.112	22535
842.249	22413
842.385	22344
842.522	22504
842.659	22428
842.796	22394
842.933	22306
843.069	22242
843.206	22242
843.343	22402
843.479	22166
843.616	22291
843.752	22101
843.889	22101
844.025	22177
844.162	21983
844.298	22070
844.435	22086
844.571	22150
844.708	21979
844.844	22246
844.98	22166
845.117	22268
845.253	22078
845.389	21861
845.525	22067
845.661	21930
845.798	21850
845.934	21842
846.07	21797
846.206	21854
846.342	21998
846.478	21819
846.614	21660
846.75	21515
846.886	21557
847.022	21743
847.158	21694
847.294	21587
847.429	21610
847.565	21485
847.701	21804
847.837	21325
847.972	21397
848.108	21420
848.244	21207
848.379	21256
848.515	21188
848.65	21252
848.786	21146
848.921	21272
849.057	21218
849.192	21203
849.328	21028
849.463	21176
849.598	21089
849.734	21119
849.869	20925
850.004	20929
850.14	20929
850.275	20937
850.41	20883
850.545	20769
850.68	20895
850.815	20967
850.95	20876
851.085	21104
851.22	21081
851.355	20921
851.49	20834
851.625	20861
851.76	20845
851.895	20872
852.03	20788
852.165	20887
852.299	20830
852.434	20963
852.569	20971
852.703	21077
852.838	21028
852.973	21013
853.107	20971
853.242	20838
853.376	20739
853.511	20693
853.645	20682
853.78	20910
853.914	20842
854.048	20758
854.183	20807
854.317	20769
854.451	20914
854.585	20769
854.72	20727
854.854	20781
854.988	20670
855.122	20777
855.256	20552
855.39	20758
855.524	20785
855.658	20864
855.792	20697
855.926	20819
856.06	20834
856.194	20758
856.327	20750
856.461	20659
856.595	20667
856.729	20777
856.862	20842
856.996	20838
857.13	20887
857.263	20785
857.397	20724
857.53	20819
857.664	20769
857.797	20849
857.931	20864
858.064	20739
858.197	20849
858.331	20811
858.464	20678
858.597	20712
858.731	20708
858.864	20727
858.997	20754
859.13	20746
859.263	20750
859.396	20921
859.529	20663
859.662	20750
859.795	20670
859.928	20861
860.061	20998
860.194	20868
860.327	20819
860.46	20792
860.592	20902
860.725	20925
860.858	20807
860.99	20781
861.123	20769
861.256	20670
861.388	20773
861.521	21408
861.653	20670
861.786	20594
861.918	20575
862.05	20613
862.183	20769
862.315	20705
862.447	20689
862.58	20640
862.712	20492
862.844	20385
862.976	20423
863.108	20583
863.24	20849
863.372	20362
863.504	20564
863.636	20438
863.768	20473
863.9	20412
864.032	20355
864.164	20324
864.296	20457
864.428	20530
864.559	20484
864.691	20590
864.823	20431
864.954	20473
865.086	20431
865.217	20412
865.349	20225
865.48	20358
865.612	20370
865.743	20473
865.875	20385
866.006	20393
866.137	20389
866.269	20256
866.4	20237
866.531	20355
866.662	20252
866.793	20332
866.924	20347
867.055	20404
867.186	20271
867.317	20256
867.448	20195
867.579	20233
867.71	20233
867.841	20214
867.972	20256
868.103	20290
868.233	20339
868.364	20389
868.495	20343
868.625	20583
868.756	20640
868.886	20469
869.017	20511
869.147	20670
869.278	20678
869.408	20678
869.539	20606
869.669	20530
869.799	20613
869.929	20556
870.06	20686
870.19	20845
870.32	20842
870.45	20941
870.58	20864
870.71	21112
870.84	21096
870.97	20941
871.1	20891
871.23	21119
871.36	21135
871.489	20979
871.619	21020
871.749	21081
871.879	21173
872.008	21317
872.138	21226
872.267	21096
872.397	21032
872.526	21024
872.656	20990
872.785	20994
872.915	21127
873.044	21211
873.173	21313
873.303	21340
873.432	21256
873.561	21325
873.69	21176
873.819	21100
873.948	21275
874.077	21104
874.206	21157
874.335	21135
874.464	21275
874.593	21382
874.722	21302
874.851	21397
874.979	21454
875.108	21382
875.237	21538
875.365	21199
875.494	21298
875.623	21511
875.751	21348
875.88	21408
876.008	21553
876.136	21622
876.265	21865
876.393	21899
876.521	21854
876.65	21907
876.778	21766
876.906	21698
877.034	21766
877.162	21759
877.29	21675
877.418	21835
877.546	21568
877.674	21705
877.802	21717
877.93	21812
878.058	21675
878.185	21629
878.313	21660
878.441	21736
878.568	21526
878.696	21770
878.824	21759
878.951	21800
879.079	21960
879.206	22082
879.333	21945
879.461	21838
879.588	21983
879.715	21911
879.842	21964
879.97	21930
880.097	21481
880.224	21564
880.351	21709
880.478	21561
880.605	21477
880.732	21515
880.859	21774
880.986	21485
881.112	21614
881.239	21473
881.366	21386
881.493	21249
881.619	21119
881.746	21332
881.872	21081
881.999	21096
882.125	21036
882.252	21230
882.378	21207
882.505	21096
882.631	21112
882.757	20842
882.883	20971
883.01	20925
883.136	20834
883.262	20800
883.388	20872
883.514	20899
883.64	20933
883.766	20750
883.892	20762
884.018	20667
884.143	20849
884.269	20929
884.395	20579
884.52	20617
884.646	20549
884.772	20450
884.897	20389
885.023	20541
885.148	20617
885.274	20613
885.399	20606
885.524	20514
885.65	20469
885.775	20507
885.9	20446
886.025	20602
886.15	20507
886.275	20454
886.4	20434
886.525	20488
886.65	20412
886.775	20431
886.9	20564
887.025	20724
887.149	20492
887.274	20377
887.399	20286
887.523	20233
887.648	20187
887.773	20282
887.897	20282
888.021	20351
888.146	20206
888.27	20381
888.395	20434
888.519	20339
888.643	20336
888.767	20419
888.891	20187
889.015	20119
889.139	20206
889.263	20077
889.387	20084
889.511	20259
889.635	20301
889.759	20122
889.883	20172
890.006	20187
890.13	20263
890.254	20199
890.377	19982
890.501	19822
890.624	19742
890.748	19902
890.871	19674
890.995	19616
891.118	19647
891.241	19647
891.364	19681
891.488	19845
891.611	19731
891.734	19723
891.857	19712
891.98	19765
892.103	19719
892.226	19723
892.349	19578
892.471	19392
892.594	19616
892.717	19594
892.839	19643
892.962	19525
893.085	19567
893.207	19567
893.33	19430
893.452	19533
893.575	19586
893.697	19502
893.819	19685
893.941	19788
894.064	19655
894.186	19537
894.308	19388
894.43	19559
894.552	19719
894.674	19643
894.796	19464
894.918	19544
895.04	19635
895.161	19628
895.283	19655
895.405	19476
895.526	19563
895.648	19476
895.769	19746
895.891	19700
896.012	19734
896.134	19689
896.255	19597
896.376	19453
896.498	19578
896.619	19586
896.74	19575
896.861	19624
896.982	19902
897.103	20050
897.224	19849
897.345	19849
897.466	19772
897.587	19871
897.708	19849
897.828	19814
897.949	19795
898.07	19685
898.19	19746
898.311	19944
898.431	19849
898.552	19776
898.672	19852
898.792	19841
898.913	19795
899.033	19635
899.153	19727
899.273	19635
899.393	19472
899.513	19597
899.633	19567
899.753	19616
899.873	19449
899.993	19670
900.113	19491
900.232	19529
900.352	19582
900.472	19453
900.591	19377
900.711	19460
900.83	19285
900.95	19377
901.069	19472
901.189	19346
901.308	19046
901.427	18962
901.546	18810
901.665	18897
901.784	18939
901.904	18688
902.023	18753
902.141	18540
902.26	18414
902.379	18540
902.498	18559
902.617	18506
902.735	18441
902.854	18414
902.973	18346
903.091	18163
903.21	18076
903.328	18049
903.446	18083
903.565	18003
903.683	17939
903.801	17901
903.919	18003
904.038	17897
904.156	17737
904.274	17863
904.392	17726
904.51	17798
904.627	17680
904.745	17794
904.863	17752
904.981	17486
905.098	17406
905.216	17334
905.334	17505
905.451	17463
905.569	17535
905.686	17421
905.803	17372
905.921	17288
906.038	17273
906.155	17200
906.272	17159
906.389	17155
906.506	16972
906.623	16965
906.74	16957
906.857	16748
906.974	16828
907.091	17010
907.208	17121
907.324	17006
907.441	16938
907.557	16740
907.674	16706
907.79	16634
907.907	16653
908.023	16622
908.139	16649
908.256	16763
908.372	16577
908.488	16504
908.604	16455
908.72	16325
908.836	16325
908.952	16421
909.068	16565
909.184	16531
909.3	16451
909.415	16409
909.531	16344
909.647	16242
909.762	16143
909.878	16116
909.993	15994
910.108	16025
910.224	15979
910.339	16158
910.454	16025
910.57	15922
910.685	15968
910.8	16109
910.915	16021
911.03	15838
911.145	15869
911.259	15724
911.374	15694
911.489	15576
911.604	15618
911.718	15393
911.833	15481
911.947	15279
912.062	15249
912.176	15496
912.291	15462
912.405	15439
912.519	15580
912.633	15549
912.748	15450
912.862	15397
912.976	15249
913.09	15169
913.204	15199
913.318	15260
913.431	15431
913.545	15382
913.659	15310
913.772	15233
913.886	15074
914	15017
914.113	15104
914.226	15138
914.34	15184
914.453	14929
914.566	15070
914.68	14998
914.793	14979
914.906	14651
915.019	14686
915.132	14640
915.245	14659
915.358	14678
915.47	14678
915.583	14785
915.696	14739
915.809	14838
915.921	14758
916.034	14610
916.146	14602
916.259	14590
916.371	14731
916.483	14621
916.595	14556
916.708	14617
916.82	14522
916.932	14476
917.044	14537
917.156	14442
917.268	14393
917.38	14480
917.491	14404
917.603	14400
917.715	14336
917.826	14377
917.938	14309
918.049	14164
918.161	14393
918.272	14419
918.384	14427
918.495	14381
918.606	14233
918.717	14123
918.828	14130
918.939	14157
919.05	14100
919.161	14050
919.272	13947
919.383	13932
919.494	14214
919.604	14355
919.715	14130
919.826	14024
919.936	14084
920.047	14244
920.157	14172
920.267	14263
920.378	14130
920.488	14096
920.598	14377
920.708	14415
920.818	14278
920.928	14202
921.038	14286
921.148	14267
921.258	14016
921.368	14020
921.477	14012
921.587	13879
921.697	13761
921.806	13837
921.916	13689
922.025	13609
922.134	13460
922.244	13499
922.353	13483
922.462	13358
922.571	13297
922.68	13221
922.789	13137
922.898	13190
923.007	13084
923.116	13141
923.224	13247
923.333	13015
923.442	13053
923.55	12981
923.659	13038
923.767	13145
923.876	13004
923.984	13095
924.092	12833
924.201	12943
924.309	12947
924.417	12966
924.525	12821
924.633	12795
924.741	13712
924.849	12604
924.956	12764
925.064	12612
925.172	12574
925.279	12608
925.387	12589
925.494	12620
925.602	12749
925.709	12654
925.816	12563
925.924	12574
926.031	12635
926.138	12536
926.245	12612
926.352	12418
926.459	12521
926.566	12570
926.673	12597
926.779	12437
926.886	12254
926.993	12186
927.099	12182
927.206	12117
927.312	12098
927.419	12216
927.525	12197
927.631	12213
927.737	12106
927.843	11935
927.95	11927
928.056	11904
928.162	12076
928.267	12083
928.373	12620
928.479	12072
928.585	11855
928.69	11973
928.796	11992
928.901	11889
929.007	11680
929.112	11851
929.218	11851
929.323	11805
929.428	11688
929.533	11859
929.638	11649
929.743	11733
929.848	11688
929.953	11710
930.058	11543
930.163	11539
930.267	11436
930.372	11535
930.477	11402
930.581	11688
930.685	11417
930.79	11318
930.894	11421
930.998	11246
931.103	11345
931.207	11014
931.311	10881
931.415	10866
931.519	10733
931.623	10725
