Data from test_V78500241_355.txt Node
Date: Fri Mar 25 15:12:19 CST 2022
User: usil
Spectrometer: V785-0024
Trigger mode: 0
Integration Time (sec): 4.000000E-1
Scans to average: 1
Nonlinearity correction enabled: false
Boxcar width: 0
Storing dark spectrum: false
XAxis mode: Wavelengths
Number of Pixels in Spectrum: 1024
>>>>>Begin Spectral Data<<<<<
801.071	26971
801.214	26982
801.356	26788
801.499	26777
801.641	26720
801.783	26530
801.926	26636
802.068	26526
802.211	26564
802.353	26473
802.496	26237
802.638	26286
802.78	26317
802.923	26130
803.065	26092
803.208	26073
803.35	26244
803.492	26267
803.635	26488
803.777	26290
803.919	26396
804.061	26632
804.204	26339
804.346	26149
804.488	26187
804.63	26370
804.773	26111
804.915	26248
805.057	26336
805.199	26370
805.341	26438
805.483	26465
805.626	26469
805.768	26278
805.91	26415
806.052	26522
806.194	26385
806.336	26716
806.478	26332
806.62	26545
806.762	26499
806.904	26701
807.046	27013
807.188	26872
807.33	26918
807.472	26842
807.614	26887
807.756	26845
807.898	26640
808.04	26640
808.182	26594
808.324	26621
808.465	26800
808.607	26864
808.749	26994
808.891	27070
809.033	27180
809.174	27017
809.316	27123
809.458	26994
809.6	26956
809.741	27047
809.883	27264
810.025	27321
810.166	27367
810.308	27310
810.45	27264
810.591	27214
810.733	27157
810.875	27161
811.016	26823
811.158	26883
811.299	27081
811.441	27138
811.582	27214
811.724	27020
811.865	27028
812.007	27020
812.148	27058
812.29	27032
812.431	27211
812.573	27275
812.714	27363
812.855	27488
812.997	27633
813.138	27717
813.279	27781
813.421	27644
813.562	27431
813.703	27230
813.845	27116
813.986	27081
814.127	26906
814.268	26769
814.41	26724
814.551	26663
814.692	26788
814.833	26545
814.974	26788
815.115	26568
815.256	26556
815.397	26629
815.539	26514
815.68	26465
815.821	26377
815.962	26571
816.103	26617
816.244	26374
816.385	26237
816.526	26176
816.666	25959
816.807	25944
816.948	26069
817.089	25993
817.23	26020
817.371	25921
817.512	25966
817.653	25959
817.793	25902
817.934	25970
818.075	25997
818.216	25966
818.356	25940
818.497	25841
818.638	25597
818.778	25571
818.919	25704
819.06	25746
819.2	25788
819.341	25818
819.481	25833
819.622	26031
819.762	26180
819.903	26142
820.043	26252
820.184	25936
820.324	25947
820.465	26039
820.605	26065
820.746	25947
820.886	25890
821.026	26054
821.167	25970
821.307	26001
821.447	26012
821.588	25993
821.728	25662
821.868	25476
822.008	25525
822.149	25552
822.289	25331
822.429	25251
822.569	25065
822.709	25156
822.849	24890
822.99	24939
823.13	24909
823.27	24935
823.41	24779
823.55	24612
823.69	24734
823.83	24707
823.97	24650
824.11	24589
824.25	24544
824.389	24585
824.529	24646
824.669	24498
824.809	24681
824.949	24692
825.089	24623
825.228	24597
825.368	24369
825.508	24460
825.648	24407
825.787	24471
825.927	24471
826.067	24361
826.206	24361
826.346	24426
826.485	24372
826.625	24357
826.765	24380
826.904	24475
827.044	24266
827.183	24232
827.323	23996
827.462	24220
827.601	24102
827.741	24129
827.88	24087
828.02	24030
828.159	24045
828.298	24205
828.437	24121
828.577	24053
828.716	24273
828.855	24057
828.994	23897
829.134	23878
829.273	23863
829.412	23863
829.551	23927
829.69	23741
829.829	23851
829.968	23897
830.107	23931
830.246	23878
830.385	23748
830.524	23710
830.663	23707
830.802	23543
830.941	23524
831.08	23425
831.219	23551
831.357	23657
831.496	23695
831.635	23554
831.774	23296
831.913	23227
832.051	23364
832.19	23208
832.329	23296
832.467	23162
832.606	23029
832.744	23204
832.883	23155
833.022	23105
833.16	23166
833.299	23124
833.437	23159
833.576	23292
833.714	23185
833.852	23345
833.991	23322
834.129	23296
834.267	23269
834.406	23170
834.544	23254
834.682	23315
834.821	23299
834.959	23292
835.097	23128
835.235	23181
835.373	23044
835.511	23162
835.65	23113
835.788	23155
835.926	22892
836.064	22740
836.202	22881
836.34	23075
836.478	23079
836.615	23132
836.753	23086
836.891	23121
837.029	23094
837.167	23041
837.305	22972
837.443	22911
837.58	22953
837.718	23113
837.856	22961
837.993	22915
838.131	22885
838.269	22759
838.406	22877
838.544	22691
838.681	22660
838.819	22474
838.956	22443
839.094	22417
839.231	22303
839.369	22474
839.506	22748
839.643	22672
839.781	22402
839.918	22436
840.055	22459
840.193	22443
840.33	22246
840.467	22379
840.604	22565
840.742	22691
840.879	22219
841.016	22280
841.153	22230
841.29	22588
841.427	22249
841.564	22421
841.701	22325
841.838	22386
841.975	22150
842.112	22246
842.249	22067
842.385	21918
842.522	22211
842.659	22276
842.796	22040
842.933	21937
843.069	22120
843.206	21994
843.343	22090
843.479	22078
843.616	22112
843.752	21899
843.889	21846
844.025	22040
844.162	21911
844.298	21903
844.435	21759
844.571	21846
844.708	21907
844.844	22162
844.98	21994
845.117	21876
845.253	21793
845.389	21850
845.525	21644
845.661	21648
845.798	21545
845.934	21633
846.07	21542
846.206	21568
846.342	21774
846.478	21572
846.614	21439
846.75	21466
846.886	21256
847.022	21393
847.158	21310
847.294	21252
847.429	21355
847.565	21310
847.701	21553
847.837	21211
847.972	21047
848.108	21241
848.244	21176
848.379	20899
848.515	20967
848.65	20986
848.786	20906
848.921	20944
849.057	21036
849.192	21157
849.328	20948
849.463	20872
849.598	20739
849.734	20788
849.869	20819
850.004	20705
850.14	20807
850.275	20655
850.41	20609
850.545	20632
850.68	20746
850.815	20682
850.95	20655
851.085	20785
851.22	20823
851.355	20864
851.49	20693
851.625	20545
851.76	20769
851.895	20583
852.03	20560
852.165	20731
852.299	20644
852.434	20788
852.569	20773
852.703	20670
852.838	20769
852.973	20891
853.107	20864
853.242	20625
853.376	20560
853.511	20328
853.645	20556
853.78	20518
853.914	20549
854.048	20587
854.183	20499
854.317	20492
854.451	20769
854.585	20381
854.72	20484
854.854	20625
854.988	20374
855.122	20457
855.256	20339
855.39	20583
855.524	20659
855.658	20495
855.792	20503
855.926	20530
856.06	20556
856.194	20587
856.327	20396
856.461	20499
856.595	20473
856.729	20454
856.862	20640
856.996	20606
857.13	20648
857.263	20648
857.397	20613
857.53	20442
857.664	20579
857.797	20480
857.931	20602
858.064	20518
858.197	20613
858.331	20476
858.464	20556
858.597	20374
858.731	20377
858.864	20438
858.997	20507
859.13	20594
859.263	20598
859.396	20640
859.529	20625
859.662	20511
859.795	20461
859.928	20583
860.061	20655
860.194	20609
860.327	20499
860.46	20575
860.592	20575
860.725	20552
860.858	20636
860.99	20488
861.123	20450
861.256	20492
861.388	20526
861.521	21104
861.653	20408
861.786	20370
861.918	20336
862.05	20339
862.183	20492
862.315	20400
862.447	20659
862.58	20332
862.712	20301
862.844	20180
862.976	20252
863.108	20396
863.24	20640
863.372	20225
863.504	20210
863.636	20324
863.768	20328
863.9	20172
864.032	20168
864.164	20115
864.296	20301
864.428	20240
864.559	20324
864.691	20336
864.823	20282
864.954	20225
865.086	20267
865.217	20054
865.349	20130
865.48	20153
865.612	20145
865.743	20301
865.875	20202
866.006	20054
866.137	20058
866.269	20195
866.4	20138
866.531	20084
866.662	19978
866.793	20020
866.924	19967
867.055	20183
867.186	20100
867.317	20035
867.448	20005
867.579	20065
867.71	20084
867.841	19989
867.972	20005
868.103	20073
868.233	20081
868.364	20069
868.495	20172
868.625	20366
868.756	20328
868.886	20202
869.017	20393
869.147	20332
869.278	20476
869.408	20347
869.539	20320
869.669	20358
869.799	20358
869.929	20332
870.06	20492
870.19	20587
870.32	20678
870.45	20724
870.58	20648
870.71	20880
870.84	20792
870.97	20765
871.1	20762
871.23	20864
871.36	21085
871.489	20864
871.619	20823
871.749	20902
871.879	21043
872.008	21081
872.138	20925
872.267	20956
872.397	20746
872.526	20735
872.656	20746
872.785	20727
872.915	20925
873.044	21108
873.173	20902
873.303	20914
873.432	21047
873.561	21108
873.69	20944
873.819	20899
873.948	21013
874.077	21055
874.206	20864
874.335	20914
874.464	21123
874.593	21100
874.722	21169
874.851	21096
874.979	21298
875.108	21154
875.237	21249
875.365	20990
875.494	21104
875.623	21192
875.751	21135
875.88	21252
876.008	21443
876.136	21264
876.265	21595
876.393	21641
876.521	21675
876.65	21610
876.778	21538
876.906	21561
877.034	21511
877.162	21587
877.29	21378
877.418	21637
877.546	21542
877.674	21587
877.802	21538
877.93	21595
878.058	21477
878.185	21496
878.313	21420
878.441	21485
878.568	21336
878.696	21378
878.824	21595
878.951	21637
879.079	21675
879.206	21785
879.333	21717
879.461	21545
879.588	21622
879.715	21694
879.842	21789
879.97	21587
880.097	21252
880.224	21306
880.351	21340
880.478	21340
880.605	21359
880.732	21443
880.859	21572
880.986	21359
881.112	21424
881.239	21237
881.366	21017
881.493	21066
881.619	21058
881.746	21013
881.872	20914
881.999	21039
882.125	20933
882.252	20902
882.378	20811
882.505	20975
882.631	20891
882.757	20617
882.883	20769
883.01	20697
883.136	20632
883.262	20499
883.388	20434
883.514	20648
883.64	20724
883.766	20473
883.892	20480
884.018	20465
884.143	20644
884.269	20758
884.395	20545
884.52	20240
884.646	20305
884.772	20259
884.897	20229
885.023	20187
885.148	20366
885.274	20442
885.399	20465
885.524	20412
885.65	20294
885.775	20309
885.9	20271
886.025	20385
886.15	20385
886.275	20298
886.4	20240
886.525	20328
886.65	20290
886.775	20191
886.9	20488
887.025	20530
887.149	20275
887.274	20138
887.399	20065
887.523	20221
887.648	20065
887.773	20092
887.897	20233
888.021	20145
888.146	20020
888.27	20195
888.395	20130
888.519	20008
888.643	20180
888.767	20145
888.891	20035
889.015	19944
889.139	20027
889.263	19951
889.387	19944
889.511	20077
889.635	19997
889.759	19970
889.883	19913
890.006	19887
890.13	20062
890.254	19951
890.377	19883
890.501	19723
890.624	19624
890.748	19655
890.871	19632
890.995	19518
891.118	19426
891.241	19578
891.364	19521
891.488	19582
891.611	19647
891.734	19563
891.857	19556
891.98	19537
892.103	19597
892.226	19464
892.349	19415
892.471	19388
892.594	19381
892.717	19480
892.839	19320
892.962	19377
893.085	19521
893.207	19339
893.33	19255
893.452	19400
893.575	19419
893.697	19403
893.819	19620
893.941	19620
894.064	19670
894.186	19312
894.308	19263
894.43	19495
894.552	19658
894.674	19453
894.796	19320
894.918	19453
895.04	19369
895.161	19457
895.283	19441
895.405	19487
895.526	19495
895.648	19438
895.769	19510
895.891	19400
896.012	19594
896.134	19502
896.255	19453
896.376	19392
896.498	19373
896.619	19468
896.74	19514
896.861	19518
896.982	19708
897.103	19868
897.224	19738
897.345	19780
897.466	19670
897.587	19567
897.708	19830
897.828	19647
897.949	19529
898.07	19476
898.19	19567
898.311	19704
898.431	19605
898.552	19715
898.672	19681
898.792	19670
898.913	19696
899.033	19567
899.153	19453
899.273	19282
899.393	19396
899.513	19377
899.633	19510
899.753	19457
899.873	19373
899.993	19453
900.113	19400
900.232	19327
900.352	19396
900.472	19244
900.591	19031
900.711	19244
900.83	19228
900.95	19324
901.069	19346
901.189	19126
901.308	18894
901.427	18787
901.546	18814
901.665	18730
901.784	18840
901.904	18730
902.023	18494
902.141	18429
902.26	18338
902.379	18330
902.498	18296
902.617	18308
902.735	18429
902.854	18258
902.973	18209
903.091	18011
903.21	17946
903.328	17973
903.446	18015
903.565	17798
903.683	17710
903.801	17642
903.919	17714
904.038	17722
904.156	17547
904.274	17615
904.392	17482
904.51	17543
904.627	17627
904.745	17649
904.863	17600
904.981	17391
905.098	17227
905.216	17235
905.334	17261
905.451	17204
905.569	17159
905.686	17326
905.803	17193
905.921	17003
906.038	17140
906.155	17098
906.272	16984
906.389	17022
906.506	16797
906.623	16869
906.74	16752
906.857	16725
906.974	16603
907.091	16923
907.208	16843
907.324	16824
907.441	16717
907.557	16603
907.674	16569
907.79	16523
907.907	16626
908.023	16546
908.139	16558
908.256	16462
908.372	16527
908.488	16344
908.604	16287
908.72	16238
908.836	16306
908.952	16291
909.068	16268
909.184	16337
909.3	16162
909.415	16272
909.531	16200
909.647	16101
909.762	15953
909.878	15949
909.993	16021
910.108	15930
910.224	15926
910.339	15865
910.454	15869
910.57	15709
910.685	15747
910.8	16112
910.915	15915
911.03	15857
911.145	15656
911.259	15641
911.374	15603
911.489	15454
911.604	15454
911.718	15355
911.833	15340
911.947	15230
912.062	15077
912.176	15260
912.291	15230
912.405	15268
912.519	15545
912.633	15466
912.748	15359
912.862	15336
912.976	15169
913.09	14948
913.204	15112
913.318	15230
913.431	15306
913.545	15150
913.659	15203
913.772	15036
913.886	15013
914	14937
914.113	15077
914.226	15074
914.34	15043
914.453	14807
914.566	14971
914.68	14842
914.793	14804
914.906	14682
915.019	14670
915.132	14556
915.245	14678
915.358	14697
915.47	14541
915.583	14610
915.696	14670
915.809	14663
915.921	14731
916.034	14594
916.146	14518
916.259	14465
916.371	14537
916.483	14522
916.595	14454
916.708	14454
916.82	14476
916.932	14374
917.044	14374
917.156	14434
917.268	14275
917.38	14229
917.491	14221
917.603	14221
917.715	14313
917.826	14313
917.938	14191
918.049	14115
918.161	14221
918.272	14351
918.384	14385
918.495	14145
918.606	14046
918.717	13989
918.828	14084
918.939	14088
919.05	13944
919.161	14008
919.272	13864
919.383	13830
919.494	13993
919.604	14210
919.715	14050
919.826	13818
919.936	13928
920.047	14039
920.157	14073
920.267	14237
920.378	14020
920.488	13921
920.598	14233
920.708	14229
920.818	14119
920.928	14168
921.038	14172
921.148	14221
921.258	13944
921.368	13951
921.477	13715
921.587	13765
921.697	13674
921.806	13765
921.916	13609
922.025	13491
922.134	13392
922.244	13422
922.353	13419
922.462	13316
922.571	13168
922.68	12962
922.789	13015
922.898	12993
923.007	13000
923.116	13076
923.224	13038
923.333	12996
923.442	12958
923.55	12871
923.659	12916
923.767	12932
923.876	12848
923.984	12852
924.092	12875
924.201	12798
924.309	12829
924.417	12798
924.525	12692
924.633	12760
924.741	13445
924.849	12589
924.956	12677
925.064	12570
925.172	12426
925.279	12498
925.387	12486
925.494	12448
925.602	12654
925.709	12544
925.816	12407
925.924	12460
926.031	12547
926.138	12426
926.245	12391
926.352	12437
926.459	12540
926.566	12570
926.673	12399
926.779	12273
926.886	12308
926.993	12110
927.099	12095
927.206	12038
927.312	11961
927.419	12102
927.525	12121
927.631	12083
927.737	11912
927.843	11863
927.95	11821
928.056	11843
928.162	11897
928.267	11954
928.373	12566
928.479	11969
928.585	11722
928.69	11866
928.796	11882
928.901	11855
929.007	11577
929.112	11794
929.218	11710
929.323	11619
929.428	11691
929.533	11824
929.638	11596
929.743	11585
929.848	11642
929.953	11642
930.058	11543
930.163	11337
930.267	11330
930.372	11395
930.477	11239
930.581	11596
930.685	11402
930.79	11220
930.894	11242
930.998	11201
931.103	11410
931.207	10987
931.311	10896
931.415	10790
931.519	10687
931.623	10584
