Data from test_V78500241_2471.txt Node
Date: Fri Mar 25 15:27:03 CST 2022
User: usil
Spectrometer: V785-0024
Trigger mode: 0
Integration Time (sec): 4.000000E-1
Scans to average: 1
Nonlinearity correction enabled: false
Boxcar width: 0
Storing dark spectrum: false
XAxis mode: Wavelengths
Number of Pixels in Spectrum: 1024
>>>>>Begin Spectral Data<<<<<
801.071	27093
801.214	27123
801.356	26899
801.499	26651
801.641	26609
801.783	26674
801.926	26568
802.068	26552
802.211	26640
802.353	26469
802.496	26309
802.638	26278
802.78	26282
802.923	26115
803.065	26103
803.208	26309
803.35	26229
803.492	26393
803.635	26560
803.777	26351
803.919	26377
804.061	26663
804.204	26461
804.346	26328
804.488	26210
804.63	26339
804.773	26313
804.915	26438
805.057	26564
805.199	26290
805.341	26438
805.483	26583
805.626	26377
805.768	26366
805.91	26431
806.052	26377
806.194	26415
806.336	26708
806.478	26522
806.62	26408
806.762	26526
806.904	26826
807.046	26906
807.188	26864
807.33	27001
807.472	26933
807.614	26948
807.756	26868
807.898	26762
808.04	26689
808.182	26598
808.324	26880
808.465	26701
808.607	27017
808.749	27036
808.891	27199
809.033	27218
809.174	27188
809.316	27005
809.458	26982
809.6	27112
809.741	27207
809.883	27173
810.025	27268
810.166	27378
810.308	27363
810.45	27382
810.591	27260
810.733	27009
810.875	27066
811.016	27051
811.158	27047
811.299	27192
811.441	27386
811.582	27310
811.724	27188
811.865	27051
812.007	27093
812.148	27085
812.29	27051
812.431	27127
812.573	27397
812.714	27530
812.855	27633
812.997	27713
813.138	27698
813.279	27667
813.421	27591
813.562	27526
813.703	27348
813.845	27279
813.986	26952
814.127	26842
814.268	26667
814.41	26785
814.551	26777
814.692	26655
814.833	26659
814.974	26587
815.115	26724
815.256	26625
815.397	26617
815.539	26537
815.68	26495
815.821	26530
815.962	26518
816.103	26469
816.244	26438
816.385	26233
816.526	26317
816.666	26138
816.807	25978
816.948	26088
817.089	26069
817.23	26031
817.371	25955
817.512	25947
817.653	25868
817.793	25925
817.934	25898
818.075	25986
818.216	26027
818.356	25906
818.497	25860
818.638	25696
818.778	25677
818.919	25689
819.06	25932
819.2	25849
819.341	25917
819.481	25906
819.622	26027
819.762	26195
819.903	26244
820.043	26248
820.184	26187
820.324	26119
820.465	26157
820.605	26050
820.746	26058
820.886	26024
821.026	26103
821.167	25978
821.307	26050
821.447	26031
821.588	25856
821.728	25628
821.868	25624
822.008	25457
822.149	25354
822.289	25388
822.429	25225
822.569	25171
822.709	25164
822.849	25015
822.99	24882
823.13	25008
823.27	24829
823.41	24848
823.55	24650
823.69	24779
823.83	24726
823.97	24604
824.11	24502
824.25	24532
824.389	24551
824.529	24631
824.669	24597
824.809	24635
824.949	24772
825.089	24741
825.228	24635
825.368	24372
825.508	24414
825.648	24441
825.787	24350
825.927	24547
826.067	24551
826.206	24521
826.346	24505
826.485	24658
826.625	24399
826.765	24688
826.904	24456
827.044	24186
827.183	24174
827.323	24148
827.462	24186
827.601	24235
827.741	24045
827.88	24114
828.02	23950
828.159	24133
828.298	24053
828.437	24262
828.577	24174
828.716	24182
828.855	23954
828.994	23828
829.134	23870
829.273	23870
829.412	23756
829.551	23802
829.69	23897
829.829	23767
829.968	24045
830.107	24049
830.246	23889
830.385	23790
830.524	23771
830.663	23809
830.802	23528
830.941	23349
831.08	23284
831.219	23509
831.357	23516
831.496	23566
831.635	23577
831.774	23425
831.913	23402
832.051	23231
832.19	23277
832.329	23288
832.467	23090
832.606	23006
832.744	23083
832.883	23075
833.022	23132
833.16	23128
833.299	23162
833.437	23307
833.576	23254
833.714	23052
833.852	23193
833.991	23235
834.129	23269
834.267	23368
834.406	23334
834.544	23223
834.682	23398
834.821	23056
834.959	23391
835.097	23143
835.235	23220
835.373	23140
835.511	23299
835.65	23033
835.788	23010
835.926	22915
836.064	22938
836.202	22904
836.34	23014
836.478	23174
836.615	23018
836.753	23155
836.891	23086
837.029	23216
837.167	23105
837.305	22965
837.443	22896
837.58	22866
837.718	22968
837.856	23018
837.993	22965
838.131	22949
838.269	22782
838.406	22877
838.544	22866
838.681	22538
838.819	22550
838.956	22417
839.094	22322
839.231	22527
839.369	22561
839.506	22877
839.643	22607
839.781	22459
839.918	22310
840.055	22333
840.193	22352
840.33	22394
840.467	22398
840.604	22523
840.742	22679
840.879	22204
841.016	22253
841.153	22101
841.29	22470
841.427	22268
841.564	22333
841.701	22436
841.838	22261
841.975	22337
842.112	22318
842.249	22276
842.385	22223
842.522	22500
842.659	22272
842.796	22185
842.933	22158
843.069	22109
843.206	22067
843.343	22074
843.479	22093
843.616	22150
843.752	22010
843.889	21930
844.025	22093
844.162	21861
844.298	21922
844.435	21819
844.571	21850
844.708	21842
844.844	21949
844.98	22017
845.117	21964
845.253	21842
845.389	21720
845.525	21823
845.661	21675
845.798	21591
845.934	21686
846.07	21545
846.206	21553
846.342	21720
846.478	21538
846.614	21515
846.75	21249
846.886	21306
847.022	21370
847.158	21355
847.294	21351
847.429	21454
847.565	21405
847.701	21557
847.837	21146
847.972	21142
848.108	21150
848.244	21055
848.379	20986
848.515	20998
848.65	20880
848.786	20929
848.921	20956
849.057	20971
849.192	20971
849.328	21043
849.463	20872
849.598	20956
849.734	20941
849.869	20750
850.004	20670
850.14	20644
850.275	20727
850.41	20651
850.545	20583
850.68	20594
850.815	20849
850.95	20670
851.085	20815
851.22	20651
851.355	20754
851.49	20697
851.625	20712
851.76	20701
851.895	20716
852.03	20670
852.165	20708
852.299	20750
852.434	20785
852.569	20758
852.703	20834
852.838	20773
852.973	20899
853.107	20762
853.242	20606
853.376	20598
853.511	20446
853.645	20564
853.78	20670
853.914	20503
854.048	20590
854.183	20492
854.317	20492
854.451	20746
854.585	20556
854.72	20541
854.854	20518
854.988	20434
855.122	20556
855.256	20332
855.39	20431
855.524	20598
855.658	20537
855.792	20590
855.926	20750
856.06	20693
856.194	20674
856.327	20670
856.461	20476
856.595	20518
856.729	20594
856.862	20682
856.996	20587
857.13	20655
857.263	20636
857.397	20533
857.53	20549
857.664	20549
857.797	20590
857.931	20621
858.064	20746
858.197	20716
858.331	20552
858.464	20492
858.597	20324
858.731	20514
858.864	20438
858.997	20434
859.13	20545
859.263	20625
859.396	20568
859.529	20473
859.662	20473
859.795	20480
859.928	20537
860.061	20785
860.194	20750
860.327	20625
860.46	20609
860.592	20689
860.725	20716
860.858	20792
860.99	20450
861.123	20412
861.256	20522
861.388	20514
861.521	21070
861.653	20465
861.786	20370
861.918	20404
862.05	20461
862.183	20415
862.315	20434
862.447	20560
862.58	20355
862.712	20218
862.844	20225
862.976	20229
863.108	20248
863.24	20788
863.372	20237
863.504	20298
863.636	20301
863.768	20275
863.9	20210
864.032	20248
864.164	20221
864.296	20324
864.428	20317
864.559	20275
864.691	20393
864.823	20324
864.954	20393
865.086	20195
865.217	20168
865.349	20084
865.48	20149
865.612	20145
865.743	20358
865.875	20172
866.006	20092
866.137	20176
866.269	20122
866.4	20176
866.531	20088
866.662	20046
866.793	20039
866.924	19940
867.055	20157
867.186	20195
867.317	20164
867.448	20092
867.579	20199
867.71	20001
867.841	20001
867.972	20092
868.103	20115
868.233	20149
868.364	20012
868.495	20161
868.625	20286
868.756	20431
868.886	20263
869.017	20309
869.147	20374
869.278	20454
869.408	20374
869.539	20396
869.669	20351
869.799	20434
869.929	20518
870.06	20476
870.19	20697
870.32	20549
870.45	20701
870.58	20826
870.71	20883
870.84	20800
870.97	20568
871.1	20762
871.23	20914
871.36	20952
871.489	20750
871.619	20876
871.749	20948
871.879	20967
872.008	21039
872.138	20921
872.267	20960
872.397	20811
872.526	20929
872.656	20739
872.785	20838
872.915	20979
873.044	21013
873.173	20914
873.303	21001
873.432	21051
873.561	21089
873.69	20880
873.819	21039
873.948	21062
874.077	21032
874.206	20899
874.335	20883
874.464	21108
874.593	21207
874.722	21180
874.851	21279
874.979	21195
875.108	21211
875.237	21169
875.365	21009
875.494	21150
875.623	21275
875.751	21241
875.88	21089
876.008	21313
876.136	21405
876.265	21675
876.393	21724
876.521	21724
876.65	21835
876.778	21644
876.906	21587
877.034	21530
877.162	21633
877.29	21557
877.418	21603
877.546	21408
877.674	21633
877.802	21690
877.93	21393
878.058	21454
878.185	21424
878.313	21496
878.441	21485
878.568	21492
878.696	21622
878.824	21511
878.951	21587
879.079	21789
879.206	21975
879.333	21755
879.461	21622
879.588	21698
879.715	21781
879.842	21854
879.97	21595
880.097	21340
880.224	21325
880.351	21466
880.478	21507
880.605	21355
880.732	21355
880.859	21583
880.986	21401
881.112	21344
881.239	21260
881.366	21005
881.493	21127
881.619	21039
881.746	21112
881.872	20902
881.999	20941
882.125	20948
882.252	21085
882.378	20956
882.505	21066
882.631	20883
882.757	20613
882.883	20743
883.01	20701
883.136	20575
883.262	20590
883.388	20613
883.514	20701
883.64	20632
883.766	20533
883.892	20454
884.018	20412
884.143	20579
884.269	20670
884.395	20431
884.52	20244
884.646	20355
884.772	20176
884.897	20385
885.023	20423
885.148	20427
885.274	20469
885.399	20495
885.524	20511
885.65	20355
885.775	20320
885.9	20282
886.025	20385
886.15	20450
886.275	20286
886.4	20351
886.525	20301
886.65	20237
886.775	20100
886.9	20495
887.025	20617
887.149	20275
887.274	20126
887.399	20020
887.523	20088
887.648	20039
887.773	20062
887.897	20233
888.021	20164
888.146	20119
888.27	20115
888.395	20115
888.519	20161
888.643	20065
888.767	20149
888.891	20039
889.015	19944
889.139	20065
889.263	20016
889.387	20008
889.511	19982
889.635	20077
889.759	19883
889.883	20005
890.006	19890
890.13	19974
890.254	19799
890.377	19909
890.501	19689
890.624	19605
890.748	19658
890.871	19540
890.995	19422
891.118	19521
891.241	19563
891.364	19521
891.488	19559
891.611	19487
891.734	19445
891.857	19506
891.98	19578
892.103	19655
892.226	19464
892.349	19480
892.471	19217
892.594	19400
892.717	19445
892.839	19430
892.962	19422
893.085	19453
893.207	19388
893.33	19396
893.452	19331
893.575	19388
893.697	19346
893.819	19544
893.941	19529
894.064	19567
894.186	19343
894.308	19301
894.43	19441
894.552	19548
894.674	19582
894.796	19350
894.918	19354
895.04	19327
895.161	19582
895.283	19449
895.405	19362
895.526	19460
895.648	19419
895.769	19396
895.891	19590
896.012	19556
896.134	19476
896.255	19373
896.376	19434
896.498	19468
896.619	19419
896.74	19430
896.861	19464
896.982	19860
897.103	19818
897.224	19651
897.345	19685
897.466	19632
897.587	19605
897.708	19795
897.828	19731
897.949	19525
898.07	19460
898.19	19567
898.311	19765
898.431	19559
898.552	19613
898.672	19765
898.792	19719
898.913	19674
899.033	19624
899.153	19411
899.273	19453
899.393	19403
899.513	19434
899.633	19407
899.753	19502
899.873	19350
899.993	19434
900.113	19400
900.232	19453
900.352	19335
900.472	19213
900.591	19255
900.711	19160
900.83	19148
900.95	19263
901.069	19331
901.189	19198
901.308	18932
901.427	18700
901.546	18817
901.665	18848
901.784	18837
901.904	18696
902.023	18665
902.141	18391
902.26	18357
902.379	18467
902.498	18338
902.617	18380
902.735	18380
902.854	18376
902.973	18178
903.091	18038
903.21	17958
903.328	17961
903.446	17904
903.565	17927
903.683	17836
903.801	17737
903.919	17783
904.038	17718
904.156	17532
904.274	17646
904.392	17573
904.51	17703
904.627	17547
904.745	17634
904.863	17570
904.981	17299
905.098	17174
905.216	17353
905.334	17345
905.451	17242
905.569	17220
905.686	17353
905.803	17250
905.921	17014
906.038	17193
906.155	17003
906.272	16919
906.389	16881
906.506	16812
906.623	16812
906.74	16725
906.857	16637
906.974	16603
907.091	16892
907.208	16843
907.324	16752
907.441	16755
907.557	16493
907.674	16497
907.79	16432
907.907	16485
908.023	16462
908.139	16599
908.256	16535
908.372	16436
908.488	16478
908.604	16337
908.72	16253
908.836	16253
908.952	16139
909.068	16173
909.184	16341
909.3	16276
909.415	16299
909.531	16295
909.647	16109
909.762	16002
909.878	15831
909.993	16051
910.108	16021
910.224	15884
910.339	15930
910.454	15838
910.57	15625
910.685	15641
910.8	15915
910.915	15903
911.03	15739
911.145	15603
911.259	15656
911.374	15572
911.489	15603
911.604	15458
911.718	15291
911.833	15310
911.947	15268
912.062	15325
912.176	15481
912.291	15469
912.405	15443
912.519	15576
912.633	15496
912.748	15367
912.862	15283
912.976	15180
913.09	15051
913.204	15112
913.318	15169
913.431	15241
913.545	15154
913.659	15272
913.772	15089
913.886	15039
914	14925
914.113	14960
914.226	15074
914.34	15066
914.453	14826
914.566	15017
914.68	14800
914.793	14842
914.906	14697
915.019	14575
915.132	14503
915.245	14556
915.358	14556
915.47	14648
915.583	14549
915.696	14602
915.809	14606
915.921	14682
916.034	14533
916.146	14465
916.259	14415
916.371	14499
916.483	14434
916.595	14476
916.708	14434
916.82	14404
916.932	14385
917.044	14408
917.156	14339
917.268	14240
917.38	14275
917.491	14282
917.603	14256
917.715	14290
917.826	14275
917.938	14221
918.049	14123
918.161	14229
918.272	14336
918.384	14347
918.495	14263
918.606	14043
918.717	13894
918.828	14092
918.939	13989
919.05	13898
919.161	13986
919.272	13712
919.383	13761
919.494	14187
919.604	14214
919.715	14050
919.826	13947
919.936	13970
920.047	14005
920.157	13959
920.267	14164
920.378	13963
920.488	14020
920.598	14088
920.708	14313
920.818	14123
920.928	14126
921.038	14278
921.148	14233
921.258	13902
921.368	13807
921.477	13757
921.587	13700
921.697	13552
921.806	13757
921.916	13552
922.025	13460
922.134	13480
922.244	13350
922.353	13430
922.462	13301
922.571	13221
922.68	13126
922.789	13168
922.898	13034
923.007	12966
923.116	13019
923.224	12977
923.333	12939
923.442	12993
923.55	12897
923.659	13015
923.767	13000
923.876	12859
923.984	12852
924.092	12829
924.201	12757
924.309	12829
924.417	12840
924.525	12749
924.633	12741
924.741	13601
924.849	12422
924.956	12738
925.064	12506
925.172	12521
925.279	12403
925.387	12410
925.494	12582
925.602	12650
925.709	12479
925.816	12353
925.924	12395
926.031	12486
926.138	12403
926.245	12429
926.352	12384
926.459	12410
926.566	12479
926.673	12445
926.779	12262
926.886	12254
926.993	12091
927.099	12117
927.206	12022
927.312	12041
927.419	12106
927.525	12060
927.631	12060
927.737	11942
927.843	11927
927.95	11813
928.056	11942
928.162	11912
928.267	11904
928.373	12578
928.479	11942
928.585	11676
928.69	11882
928.796	11912
928.901	11828
929.007	11581
929.112	11760
929.218	11771
929.323	11608
929.428	11642
929.533	11684
929.638	11433
929.743	11585
929.848	11604
929.953	11608
930.058	11455
930.163	11360
930.267	11376
930.372	11520
930.477	11284
930.581	11421
930.685	11444
930.79	11170
930.894	11307
930.998	11181
931.103	11349
931.207	10930
931.311	10911
931.415	10782
931.519	10653
931.623	10660
