Data from test_V78500241_3125.txt Node
Date: Fri Mar 25 15:31:37 CST 2022
User: usil
Spectrometer: V785-0024
Trigger mode: 0
Integration Time (sec): 4.000000E-1
Scans to average: 1
Nonlinearity correction enabled: false
Boxcar width: 0
Storing dark spectrum: false
XAxis mode: Wavelengths
Number of Pixels in Spectrum: 1024
>>>>>Begin Spectral Data<<<<<
801.071	27165
801.214	27127
801.356	26914
801.499	26746
801.641	26590
801.783	26708
801.926	26640
802.068	26602
802.211	26651
802.353	26476
802.496	26415
802.638	26294
802.78	26286
802.923	26077
803.065	26172
803.208	26153
803.35	26256
803.492	26263
803.635	26446
803.777	26275
803.919	26522
804.061	26674
804.204	26488
804.346	26400
804.488	26336
804.63	26389
804.773	26385
804.915	26336
805.057	26457
805.199	26366
805.341	26415
805.483	26423
805.626	26507
805.768	26473
805.91	26488
806.052	26625
806.194	26370
806.336	26594
806.478	26560
806.62	26381
806.762	26632
806.904	26804
807.046	27089
807.188	26929
807.33	26990
807.472	26918
807.614	26895
807.756	26906
807.898	26758
808.04	26682
808.182	26693
808.324	26743
808.465	26849
808.607	26895
808.749	26986
808.891	27218
809.033	27279
809.174	27096
809.316	27154
809.458	27055
809.6	26986
809.741	27131
809.883	27298
810.025	27469
810.166	27321
810.308	27511
810.45	27416
810.591	27214
810.733	27074
810.875	27203
811.016	27001
811.158	27009
811.299	27150
811.441	27306
811.582	27351
811.724	27077
811.865	27055
812.007	26902
812.148	27081
812.29	27089
812.431	27237
812.573	27382
812.714	27553
812.855	27603
812.997	27663
813.138	27671
813.279	27762
813.421	27561
813.562	27477
813.703	27450
813.845	27112
813.986	27005
814.127	26979
814.268	26746
814.41	26815
814.551	26765
814.692	26807
814.833	26648
814.974	26659
815.115	26727
815.256	26674
815.397	26629
815.539	26518
815.68	26522
815.821	26377
815.962	26606
816.103	26427
816.244	26339
816.385	26377
816.526	26271
816.666	26240
816.807	25978
816.948	26043
817.089	25989
817.23	26081
817.371	26058
817.512	25951
817.653	26069
817.793	26001
817.934	25951
818.075	26081
818.216	26122
818.356	26092
818.497	25837
818.638	25837
818.778	25738
818.919	25803
819.06	25750
819.2	25906
819.341	25993
819.481	25963
819.622	26157
819.762	26252
819.903	26294
820.043	26183
820.184	26244
820.324	26069
820.465	26320
820.605	26024
820.746	26103
820.886	25993
821.026	25921
821.167	26100
821.307	26005
821.447	25925
821.588	25894
821.728	25791
821.868	25586
822.008	25457
822.149	25445
822.289	25464
822.429	25183
822.569	25274
822.709	25095
822.849	25107
822.99	25015
823.13	24852
823.27	24943
823.41	24802
823.55	24715
823.69	24802
823.83	24791
823.97	24738
824.11	24570
824.25	24601
824.389	24616
824.529	24814
824.669	24597
824.809	24681
824.949	24734
825.089	24688
825.228	24722
825.368	24578
825.508	24376
825.648	24403
825.787	24418
825.927	24486
826.067	24456
826.206	24376
826.346	24684
826.485	24467
826.625	24460
826.765	24570
826.904	24486
827.044	24205
827.183	24178
827.323	24140
827.462	24300
827.601	24369
827.741	24140
827.88	24270
828.02	24068
828.159	24076
828.298	24178
828.437	24357
828.577	24091
828.716	24308
828.855	24194
828.994	23847
829.134	23843
829.273	23889
829.412	23767
829.551	23878
829.69	23859
829.829	23821
829.968	24011
830.107	23874
830.246	23916
830.385	23836
830.524	23695
830.663	23760
830.802	23729
830.941	23619
831.08	23509
831.219	23509
831.357	23512
831.496	23718
831.635	23444
831.774	23398
831.913	23311
832.051	23250
832.19	23303
832.329	23395
832.467	23003
832.606	23006
832.744	23113
832.883	23060
833.022	23159
833.16	23151
833.299	23162
833.437	23288
833.576	23117
833.714	23200
833.852	23181
833.991	23364
834.129	23368
834.267	23303
834.406	23330
834.544	23174
834.682	23277
834.821	23200
834.959	23337
835.097	23132
835.235	23280
835.373	23197
835.511	23239
835.65	23159
835.788	23189
835.926	22930
836.064	22820
836.202	22854
836.34	23223
836.478	23200
836.615	23010
836.753	22991
836.891	23121
837.029	23067
837.167	23014
837.305	22934
837.443	22934
837.58	23010
837.718	23029
837.856	23006
837.993	22938
838.131	22919
838.269	22687
838.406	22858
838.544	22755
838.681	22428
838.819	22550
838.956	22504
839.094	22394
839.231	22497
839.369	22512
839.506	22782
839.643	22592
839.781	22428
839.918	22284
840.055	22413
840.193	22379
840.33	22223
840.467	22337
840.604	22265
840.742	22634
840.879	22211
841.016	22230
841.153	22230
841.29	22508
841.427	22284
841.564	22382
841.701	22257
841.838	22318
841.975	22337
842.112	22253
842.249	22238
842.385	22169
842.522	22268
842.659	22139
842.796	22166
842.933	22131
843.069	22021
843.206	21987
843.343	22230
843.479	22181
843.616	22029
843.752	21857
843.889	21949
844.025	21892
844.162	21709
844.298	21926
844.435	21789
844.571	21823
844.708	21945
844.844	22029
844.98	21937
845.117	21998
845.253	21850
845.389	21698
845.525	21736
845.661	21679
845.798	21663
845.934	21724
846.07	21595
846.206	21572
846.342	21739
846.478	21629
846.614	21431
846.75	21329
846.886	21291
847.022	21500
847.158	21355
847.294	21439
847.429	21393
847.565	21241
847.701	21561
847.837	21013
847.972	21017
848.108	21161
848.244	21070
848.379	20982
848.515	20910
848.65	20925
848.786	20925
848.921	20895
849.057	20941
849.192	20876
849.328	20990
849.463	21001
849.598	20925
849.734	20853
849.869	20750
850.004	20720
850.14	20712
850.275	20754
850.41	20655
850.545	20716
850.68	20629
850.815	20842
850.95	20701
851.085	20899
851.22	20701
851.355	20826
851.49	20670
851.625	20720
851.76	20712
851.895	20823
852.03	20819
852.165	20758
852.299	20765
852.434	20792
852.569	20674
852.703	20636
852.838	20849
852.973	20815
853.107	20929
853.242	20625
853.376	20499
853.511	20465
853.645	20590
853.78	20636
853.914	20560
854.048	20499
854.183	20541
854.317	20648
854.451	20701
854.585	20507
854.72	20533
854.854	20629
854.988	20514
855.122	20511
855.256	20541
855.39	20545
855.524	20617
855.658	20613
855.792	20621
855.926	20526
856.06	20590
856.194	20621
856.327	20450
856.461	20514
856.595	20461
856.729	20541
856.862	20720
856.996	20598
857.13	20609
857.263	20644
857.397	20571
857.53	20648
857.664	20465
857.797	20613
857.931	20625
858.064	20583
858.197	20708
858.331	20568
858.464	20476
858.597	20507
858.731	20450
858.864	20442
858.997	20549
859.13	20560
859.263	20602
859.396	20629
859.529	20503
859.662	20629
859.795	20473
859.928	20499
860.061	20655
860.194	20746
860.327	20541
860.46	20530
860.592	20583
860.725	20735
860.858	20670
860.99	20533
861.123	20442
861.256	20461
861.388	20446
861.521	21081
861.653	20419
861.786	20275
861.918	20374
862.05	20313
862.183	20423
862.315	20412
862.447	20522
862.58	20533
862.712	20191
862.844	20328
862.976	20313
863.108	20374
863.24	20678
863.372	20115
863.504	20145
863.636	20324
863.768	20271
863.9	20271
864.032	20138
864.164	20199
864.296	20366
864.428	20454
864.559	20362
864.691	20366
864.823	20362
864.954	20263
865.086	20233
865.217	20229
865.349	20050
865.48	20259
865.612	20191
865.743	20358
865.875	20206
866.006	20073
866.137	20168
866.269	20145
866.4	19974
866.531	20122
866.662	20065
866.793	20077
866.924	20084
867.055	20172
867.186	20221
867.317	20142
867.448	20069
867.579	20149
867.71	19951
867.841	20050
867.972	20077
868.103	20153
868.233	20081
868.364	20096
868.495	20191
868.625	20324
868.756	20461
868.886	20313
869.017	20396
869.147	20412
869.278	20450
869.408	20347
869.539	20332
869.669	20381
869.799	20317
869.929	20484
870.06	20370
870.19	20609
870.32	20659
870.45	20629
870.58	20655
870.71	20880
870.84	20754
870.97	20773
871.1	20682
871.23	20883
871.36	20914
871.489	20826
871.619	20895
871.749	21058
871.879	20933
872.008	21112
872.138	21051
872.267	21013
872.397	20800
872.526	20724
872.656	20712
872.785	20743
872.915	20963
873.044	21013
873.173	20975
873.303	20941
873.432	20982
873.561	21116
873.69	21001
873.819	21089
873.948	21005
874.077	20918
874.206	20967
874.335	20937
874.464	21001
874.593	21173
874.722	21119
874.851	21192
874.979	21241
875.108	21283
875.237	21256
875.365	21165
875.494	21108
875.623	21249
875.751	21195
875.88	21249
876.008	21401
876.136	21428
876.265	21625
876.393	21709
876.521	21694
876.65	21736
876.778	21542
876.906	21583
877.034	21534
877.162	21591
877.29	21648
877.418	21701
877.546	21606
877.674	21576
877.802	21709
877.93	21515
878.058	21545
878.185	21428
878.313	21488
878.441	21545
878.568	21367
878.696	21488
878.824	21618
878.951	21629
879.079	21766
879.206	21804
879.333	21732
879.461	21530
879.588	21641
879.715	21648
879.842	21899
879.97	21618
880.097	21466
880.224	21268
880.351	21408
880.478	21351
880.605	21439
880.732	21416
880.859	21614
880.986	21462
881.112	21504
881.239	21325
881.366	21089
881.493	21028
881.619	21005
881.746	21032
881.872	21070
881.999	20861
882.125	20914
882.252	20990
882.378	21001
882.505	21096
882.631	20754
882.757	20587
882.883	20937
883.01	20739
883.136	20693
883.262	20507
883.388	20587
883.514	20613
883.64	20739
883.766	20571
883.892	20446
884.018	20503
884.143	20556
884.269	20792
884.395	20351
884.52	20298
884.646	20362
884.772	20339
884.897	20271
885.023	20347
885.148	20457
885.274	20431
885.399	20492
885.524	20362
885.65	20408
885.775	20317
885.9	20317
886.025	20457
886.15	20370
886.275	20286
886.4	20202
886.525	20347
886.65	20221
886.775	20267
886.9	20476
887.025	20533
887.149	20408
887.274	20195
887.399	20046
887.523	20119
887.648	20199
887.773	20016
887.897	20199
888.021	20199
888.146	20115
888.27	20149
888.395	20191
888.519	20081
888.643	20199
888.767	20248
888.891	20008
889.015	19879
889.139	19989
889.263	19894
889.387	20046
889.511	20149
889.635	19970
889.759	19864
889.883	19989
890.006	19879
890.13	20062
890.254	19860
890.377	19765
890.501	19696
890.624	19704
890.748	19822
890.871	19586
890.995	19575
891.118	19381
891.241	19510
891.364	19605
891.488	19609
891.611	19540
891.734	19491
891.857	19655
891.98	19533
892.103	19445
892.226	19491
892.349	19422
892.471	19270
892.594	19422
892.717	19480
892.839	19388
892.962	19392
893.085	19506
893.207	19441
893.33	19228
893.452	19403
893.575	19491
893.697	19472
893.819	19575
893.941	19544
894.064	19643
894.186	19339
894.308	19304
894.43	19571
894.552	19586
894.674	19578
894.796	19343
894.918	19358
895.04	19301
895.161	19537
895.283	19381
895.405	19407
895.526	19392
895.648	19434
895.769	19499
895.891	19384
896.012	19483
896.134	19457
896.255	19476
896.376	19396
896.498	19438
896.619	19502
896.74	19422
896.861	19441
896.982	19753
897.103	19887
897.224	19731
897.345	19677
897.466	19613
897.587	19715
897.708	19689
897.828	19753
897.949	19662
898.07	19510
898.19	19499
898.311	19757
898.431	19655
898.552	19674
898.672	19643
898.792	19776
898.913	19677
899.033	19563
899.153	19529
899.273	19346
899.393	19457
899.513	19434
899.633	19468
899.753	19502
899.873	19415
899.993	19468
900.113	19278
900.232	19308
900.352	19316
900.472	19266
900.591	19141
900.711	19225
900.83	19179
900.95	19304
901.069	19350
901.189	19091
901.308	18859
901.427	18871
901.546	18859
901.665	18829
901.784	18798
901.904	18639
902.023	18642
902.141	18330
902.26	18323
902.379	18350
902.498	18353
902.617	18323
902.735	18266
902.854	18315
902.973	18346
903.091	18049
903.21	17977
903.328	18011
903.446	17866
903.565	17859
903.683	17775
903.801	17809
903.919	17737
904.038	17726
904.156	17646
904.274	17680
904.392	17623
904.51	17520
904.627	17615
904.745	17623
904.863	17615
904.981	17417
905.098	17383
905.216	17250
905.334	17246
905.451	17341
905.569	17143
905.686	17292
905.803	17330
905.921	17090
906.038	17174
906.155	16942
906.272	16866
906.389	16984
906.506	16862
906.623	16782
906.74	16752
906.857	16729
906.974	16691
907.091	16778
907.208	16908
907.324	16805
907.441	16736
907.557	16561
907.674	16478
907.79	16466
907.907	16474
908.023	16519
908.139	16519
908.256	16485
908.372	16379
908.488	16371
908.604	16318
908.72	16322
908.836	16287
908.952	16192
909.068	16280
909.184	16318
909.3	16181
909.415	16249
909.531	16162
909.647	16017
909.762	15956
909.878	15869
909.993	15846
910.108	15994
910.224	15937
910.339	15907
910.454	15895
910.57	15823
910.685	15819
910.8	15968
910.915	15880
911.03	15739
911.145	15633
911.259	15633
911.374	15625
911.489	15553
911.604	15408
911.718	15332
911.833	15348
911.947	15256
912.062	15230
912.176	15401
912.291	15256
912.405	15401
912.519	15481
912.633	15492
912.748	15382
912.862	15310
912.976	15165
913.09	15017
913.204	15077
913.318	15100
913.431	15241
913.545	15275
913.659	15264
913.772	15127
913.886	15055
914	14963
914.113	15013
914.226	15058
914.34	14971
914.453	14853
914.566	15043
914.68	14804
914.793	14777
914.906	14670
915.019	14610
915.132	14488
915.245	14590
915.358	14648
915.47	14602
915.583	14579
915.696	14621
915.809	14686
915.921	14720
916.034	14526
916.146	14438
916.259	14522
916.371	14610
916.483	14575
916.595	14374
916.708	14347
916.82	14396
916.932	14358
917.044	14294
917.156	14381
917.268	14202
917.38	14244
917.491	14282
917.603	14259
917.715	14305
917.826	14278
917.938	14214
918.049	14145
918.161	14164
918.272	14290
918.384	14290
918.495	14123
918.606	14134
918.717	14016
918.828	13978
918.939	13967
919.05	13925
919.161	13963
919.272	13784
919.383	13871
919.494	14107
919.604	14256
919.715	13902
919.826	13818
919.936	13928
920.047	14020
920.157	14123
920.267	14103
920.378	14039
920.488	14005
920.598	14123
920.708	14244
920.818	14176
920.928	14073
921.038	14233
921.148	14286
921.258	13898
921.368	13841
921.477	13811
921.587	13708
921.697	13624
921.806	13693
921.916	13639
922.025	13464
922.134	13365
922.244	13320
922.353	13426
922.462	13259
922.571	13183
922.68	13129
922.789	12966
922.898	12939
923.007	12935
923.116	13114
923.224	13027
923.333	13069
923.442	12913
923.55	12886
923.659	12844
923.767	12985
923.876	12871
923.984	12859
924.092	12894
924.201	12753
924.309	12840
924.417	12768
924.525	12696
924.633	12810
924.741	13693
924.849	12544
924.956	12585
925.064	12570
925.172	12410
925.279	12486
925.387	12517
925.494	12460
925.602	12620
925.709	12551
925.816	12418
925.924	12448
926.031	12437
926.138	12441
926.245	12506
926.352	12395
926.459	12559
926.566	12426
926.673	12292
926.779	12266
926.886	12277
926.993	12144
927.099	12045
927.206	12030
927.312	12022
927.419	12083
927.525	11992
927.631	12072
927.737	11954
927.843	11980
927.95	11748
928.056	11931
928.162	11882
928.267	11946
928.373	12513
928.479	12003
928.585	11737
928.69	11836
928.796	11931
928.901	11783
929.007	11710
929.112	11710
929.218	11745
929.323	11562
929.428	11649
929.533	11703
929.638	11558
929.743	11573
929.848	11649
929.953	11604
930.058	11532
930.163	11402
930.267	11383
930.372	11425
930.477	11337
930.581	11482
930.685	11303
930.79	11318
930.894	11185
930.998	11216
931.103	11356
931.207	10972
931.311	10889
931.415	10847
931.519	10641
931.623	10592
