Data from test_V78500241_1866.txt Node
Date: Fri Mar 25 15:22:50 CST 2022
User: usil
Spectrometer: V785-0024
Trigger mode: 0
Integration Time (sec): 4.000000E-1
Scans to average: 1
Nonlinearity correction enabled: false
Boxcar width: 0
Storing dark spectrum: false
XAxis mode: Wavelengths
Number of Pixels in Spectrum: 1024
>>>>>Begin Spectral Data<<<<<
801.071	27766
801.214	27766
801.356	27576
801.499	27443
801.641	27374
801.783	27386
801.926	27473
802.068	27386
802.211	27317
802.353	27142
802.496	27047
802.638	27043
802.78	26937
802.923	26868
803.065	26899
803.208	26872
803.35	27138
803.492	27119
803.635	27298
803.777	27116
803.919	27237
804.061	27557
804.204	27207
804.346	27306
804.488	26990
804.63	27302
804.773	27104
804.915	27226
805.057	27188
805.199	27127
805.341	27294
805.483	27329
805.626	27363
805.768	27332
805.91	27393
806.052	27408
806.194	27222
806.336	27526
806.478	27435
806.62	27211
806.762	27477
806.904	27519
807.046	27857
807.188	27732
807.33	27838
807.472	27854
807.614	27720
807.756	27698
807.898	27701
808.04	27515
808.182	27519
808.324	27507
808.465	27663
808.607	27827
808.749	28162
808.891	27865
809.033	28116
809.174	28131
809.316	27953
809.458	27880
809.6	27918
809.741	27983
809.883	28196
810.025	28287
810.166	28249
810.308	28261
810.45	28109
810.591	28063
810.733	28017
810.875	27949
811.016	27873
811.158	27842
811.299	28010
811.441	28082
811.582	28086
811.724	28032
811.865	28070
812.007	27857
812.148	27907
812.29	28006
812.431	28223
812.573	28249
812.714	28375
812.855	28470
812.997	28641
813.138	28729
813.279	28554
813.421	28504
813.562	28443
813.703	28280
813.845	28169
813.986	27911
814.127	27789
814.268	27625
814.41	27561
814.551	27618
814.692	27739
814.833	27519
814.974	27564
815.115	27671
815.256	27572
815.397	27443
815.539	27618
815.68	27382
815.821	27298
815.962	27386
816.103	27412
816.244	27329
816.385	27226
816.526	27226
816.666	27001
816.807	26853
816.948	26921
817.089	27116
817.23	26891
817.371	26929
817.512	26914
817.653	26864
817.793	26746
817.934	26750
818.075	26883
818.216	26975
818.356	26792
818.497	26765
818.638	26640
818.778	26701
818.919	26754
819.06	26769
819.2	26902
819.341	26887
819.481	26842
819.622	27005
819.762	27275
819.903	27161
820.043	27066
820.184	27066
820.324	26990
820.465	27131
820.605	27066
820.746	26998
820.886	26883
821.026	27024
821.167	26994
821.307	27131
821.447	26876
821.588	26849
821.728	26743
821.868	26678
822.008	26465
822.149	26419
822.289	26419
822.429	26130
822.569	26149
822.709	25982
822.849	26073
822.99	25947
823.13	25757
823.27	25807
823.41	25856
823.55	25525
823.69	25803
823.83	25784
823.97	25655
824.11	25491
824.25	25578
824.389	25472
824.529	25601
824.669	25533
824.809	25750
824.949	25632
825.089	25750
825.228	25765
825.368	25438
825.508	25403
825.648	25441
825.787	25449
825.927	25384
826.067	25457
826.206	25506
826.346	25521
826.485	25403
826.625	25400
826.765	25521
826.904	25487
827.044	25213
827.183	25255
827.323	25129
827.462	25221
827.601	25209
827.741	25244
827.88	25171
828.02	25023
828.159	25103
828.298	25107
828.437	25251
828.577	25217
828.716	25194
828.855	25103
828.994	24989
829.134	24943
829.273	24947
829.412	24947
829.551	24856
829.69	24856
829.829	24943
829.968	25034
830.107	24848
830.246	24935
830.385	24970
830.524	24783
830.663	24719
830.802	24597
830.941	24547
831.08	24403
831.219	24540
831.357	24654
831.496	24703
831.635	24677
831.774	24429
831.913	24403
832.051	24319
832.19	24323
832.329	24296
832.467	24342
832.606	24182
832.744	24140
832.883	24144
833.022	24190
833.16	24148
833.299	24133
833.437	24216
833.576	24281
833.714	24285
833.852	24232
833.991	24232
834.129	24254
834.267	24452
834.406	24182
834.544	24243
834.682	24254
834.821	24163
834.959	24479
835.097	24220
835.235	24266
835.373	24205
835.511	24178
835.65	24102
835.788	24216
835.926	23942
836.064	23992
836.202	23999
836.34	24136
836.478	24235
836.615	24083
836.753	24091
836.891	24178
837.029	24079
837.167	24068
837.305	23969
837.443	23912
837.58	23958
837.718	24015
837.856	23878
837.993	23889
838.131	23904
838.269	23866
838.406	23726
838.544	23729
838.681	23646
838.819	23615
838.956	23376
839.094	23421
839.231	23566
839.369	23524
839.506	23828
839.643	23589
839.781	23417
839.918	23421
840.055	23379
840.193	23436
840.33	23318
840.467	23296
840.604	23448
840.742	23433
840.879	23124
841.016	23235
841.153	23197
841.29	23387
841.427	23265
841.564	23440
841.701	23227
841.838	23303
841.975	23155
842.112	23155
842.249	23025
842.385	22991
842.522	23292
842.659	23121
842.796	23090
842.933	23124
843.069	23052
843.206	22987
843.343	23204
843.479	23056
843.616	23071
843.752	22843
843.889	22862
844.025	22961
844.162	22805
844.298	22862
844.435	22850
844.571	22828
844.708	22908
844.844	22930
844.98	22949
845.117	22927
845.253	22774
845.389	22809
845.525	22778
845.661	22679
845.798	22535
845.934	22637
846.07	22481
846.206	22603
846.342	22816
846.478	22584
846.614	22325
846.75	22204
846.886	22268
847.022	22230
847.158	22344
847.294	22291
847.429	22337
847.565	22196
847.701	22462
847.837	22059
847.972	21987
848.108	22147
848.244	22192
848.379	21945
848.515	21846
848.65	21892
848.786	21941
848.921	21892
849.057	21975
849.192	22048
849.328	22010
849.463	21915
849.598	21922
849.734	21774
849.869	21827
850.004	21778
850.14	21583
850.275	21732
850.41	21641
850.545	21561
850.68	21644
850.815	21739
850.95	21606
851.085	21869
851.22	21838
851.355	21724
851.49	21614
851.625	21667
851.76	21633
851.895	21485
852.03	21462
852.165	21622
852.299	21682
852.434	21709
852.569	21724
852.703	21660
852.838	21827
852.973	21736
853.107	21739
853.242	21583
853.376	21553
853.511	21401
853.645	21462
853.78	21679
853.914	21386
854.048	21454
854.183	21504
854.317	21389
854.451	21694
854.585	21545
854.72	21553
854.854	21671
854.988	21386
855.122	21515
855.256	21401
855.39	21405
855.524	21633
855.658	21633
855.792	21439
855.926	21435
856.06	21523
856.194	21572
856.327	21454
856.461	21454
856.595	21431
856.729	21515
856.862	21564
856.996	21488
857.13	21439
857.263	21511
857.397	21496
857.53	21564
857.664	21492
857.797	21671
857.931	21622
858.064	21466
858.197	21610
858.331	21523
858.464	21374
858.597	21416
858.731	21466
858.864	21466
858.997	21466
859.13	21405
859.263	21557
859.396	21603
859.529	21367
859.662	21488
859.795	21511
859.928	21511
860.061	21671
860.194	21580
860.327	21591
860.46	21431
860.592	21583
860.725	21549
860.858	21599
860.99	21466
861.123	21519
861.256	21500
861.388	21481
861.521	22074
861.653	21473
861.786	21355
861.918	21408
862.05	21374
862.183	21412
862.315	21447
862.447	21504
862.58	21401
862.712	21256
862.844	21252
862.976	21241
863.108	21287
863.24	21576
863.372	21233
863.504	21184
863.636	21214
863.768	21249
863.9	21363
864.032	21169
864.164	21157
864.296	21279
864.428	21237
864.559	21351
864.691	21104
864.823	21199
864.954	21245
865.086	21180
865.217	21127
865.349	21161
865.48	21062
865.612	21070
865.743	21195
865.875	21146
866.006	21089
866.137	21039
866.269	21154
866.4	20998
866.531	21081
866.662	20979
866.793	20956
866.924	20990
867.055	21081
867.186	21093
867.317	20975
867.448	20982
867.579	21066
867.71	20880
867.841	20948
867.972	21036
868.103	21005
868.233	20925
868.364	21020
868.495	21017
868.625	21173
868.756	21428
868.886	21150
869.017	21317
869.147	21454
869.278	21298
869.408	21336
869.539	21382
869.669	21321
869.799	21378
869.929	21367
870.06	21252
870.19	21580
870.32	21534
870.45	21587
870.58	21675
870.71	21656
870.84	21816
870.97	21660
871.1	21633
871.23	21865
871.36	21960
871.489	21652
871.619	21880
871.749	21808
871.879	21895
872.008	22067
872.138	21797
872.267	21895
872.397	21823
872.526	21671
872.656	21717
872.785	21705
872.915	21972
873.044	21994
873.173	21732
873.303	21926
873.432	21934
873.561	21869
873.69	21827
873.819	21934
873.948	22051
874.077	21816
874.206	21827
874.335	21934
874.464	21964
874.593	22257
874.722	22036
874.851	22162
874.979	22135
875.108	22238
875.237	22021
875.365	21941
875.494	22082
875.623	22116
875.751	22112
875.88	22120
876.008	22234
876.136	22265
876.265	22634
876.393	22618
876.521	22630
876.65	22573
876.778	22550
876.906	22466
877.034	22371
877.162	22493
877.29	22348
877.418	22386
877.546	22561
877.674	22455
877.802	22386
877.93	22470
878.058	22466
878.185	22363
878.313	22523
878.441	22417
878.568	22276
878.696	22462
878.824	22519
878.951	22542
879.079	22611
879.206	22622
879.333	22588
879.461	22478
879.588	22485
879.715	22535
879.842	22839
879.97	22599
880.097	22318
880.224	22219
880.351	22265
880.478	22238
880.605	22105
880.732	22234
880.859	22596
880.986	22238
881.112	22284
881.239	22226
881.366	21899
881.493	21911
881.619	21876
881.746	21850
881.872	21880
881.999	21918
882.125	21808
882.252	21880
882.378	21766
882.505	21899
882.631	21812
882.757	21637
882.883	21542
883.01	21637
883.136	21408
883.262	21466
883.388	21291
883.514	21538
883.64	21595
883.766	21370
883.892	21294
884.018	21348
884.143	21416
884.269	21580
884.395	21313
884.52	21135
884.646	21230
884.772	21245
884.897	21066
885.023	21116
885.148	21256
885.274	21241
885.399	21348
885.524	21260
885.65	21108
885.775	21180
885.9	21058
886.025	21249
886.15	21389
886.275	21138
886.4	21154
886.525	21214
886.65	21116
886.775	21089
886.9	21222
887.025	21336
887.149	21055
887.274	20944
887.399	20895
887.523	20819
887.648	20925
887.773	20823
887.897	20952
888.021	21001
888.146	20944
888.27	20941
888.395	20979
888.519	21036
888.643	21009
888.767	21009
888.891	20811
889.015	20765
889.139	20804
889.263	20705
889.387	20864
889.511	20982
889.635	20887
889.759	20769
889.883	20705
890.006	20834
890.13	20743
890.254	20568
890.377	20697
890.501	20511
890.624	20434
890.748	20621
890.871	20366
890.995	20271
891.118	20195
891.241	20408
891.364	20309
891.488	20415
891.611	20408
891.734	20347
891.857	20518
891.98	20339
892.103	20286
892.226	20328
892.349	20134
892.471	20081
892.594	20221
892.717	20275
892.839	20142
892.962	20229
893.085	20221
893.207	20191
893.33	20172
893.452	20100
893.575	20267
893.697	20084
893.819	20366
893.941	20442
894.064	20347
894.186	20206
894.308	20218
894.43	20408
894.552	20286
894.674	20252
894.796	20130
894.918	20218
895.04	20168
895.161	20214
895.283	20240
895.405	20088
895.526	20229
895.648	20164
895.769	20301
895.891	20271
896.012	20298
896.134	20290
896.255	20298
896.376	20122
896.498	20271
896.619	20396
896.74	20221
896.861	20145
896.982	20533
897.103	20644
897.224	20438
897.345	20549
897.466	20473
897.587	20412
897.708	20480
897.828	20541
897.949	20446
898.07	20073
898.19	20389
898.311	20488
898.431	20396
898.552	20381
898.672	20507
898.792	20495
898.913	20450
899.033	20358
899.153	20084
899.273	20126
899.393	20218
899.513	20252
899.633	20233
899.753	20145
899.873	20111
899.993	20077
900.113	20001
900.232	20119
900.352	20024
900.472	19982
900.591	19921
900.711	19986
900.83	19887
900.95	20096
901.069	20005
901.189	19856
901.308	19582
901.427	19472
901.546	19449
901.665	19510
901.784	19476
901.904	19388
902.023	19266
902.141	19206
902.26	19129
902.379	19175
902.498	19069
902.617	19080
902.735	19015
902.854	19019
902.973	19000
903.091	18707
903.21	18791
903.328	18726
903.446	18688
903.565	18597
903.683	18509
903.801	18399
903.919	18525
904.038	18365
904.156	18270
904.274	18327
904.392	18239
904.51	18315
904.627	18254
904.745	18315
904.863	18365
904.981	18041
905.098	18003
905.216	17988
905.334	17942
905.451	17923
905.569	17908
905.686	18186
905.803	17832
905.921	17786
906.038	17832
906.155	17733
906.272	17649
906.389	17710
906.506	17467
906.623	17387
906.74	17512
906.857	17482
906.974	17478
907.091	17642
907.208	17619
907.324	17505
907.441	17391
907.557	17181
907.674	17227
907.79	17140
907.907	17064
908.023	17231
908.139	17136
908.256	17086
908.372	17174
908.488	17105
908.604	17083
908.72	16793
908.836	17048
908.952	16892
909.068	16862
909.184	17071
909.3	16877
909.415	16965
909.531	16759
909.647	16615
909.762	16649
909.878	16637
909.993	16706
910.108	16603
910.224	16561
910.339	16554
910.454	16535
910.57	16417
910.685	16325
910.8	16653
910.915	16462
911.03	16432
911.145	16234
911.259	16223
911.374	16173
911.489	16147
911.604	16017
911.718	15918
911.833	16010
911.947	15751
912.062	15762
912.176	15998
912.291	15956
912.405	15888
912.519	16147
912.633	16150
912.748	15994
912.862	15850
912.976	15747
913.09	15717
913.204	15751
913.318	15789
913.431	15835
913.545	15857
913.659	15861
913.772	15804
913.886	15584
914	15614
914.113	15637
914.226	15755
914.34	15610
914.453	15542
914.566	15568
914.68	15443
914.793	15306
914.906	15306
915.019	15233
915.132	15154
915.245	15211
915.358	15150
915.47	15180
915.583	15142
915.696	15207
915.809	15272
915.921	15351
916.034	15127
916.146	15009
916.259	15116
916.371	15157
916.483	15123
916.595	14929
916.708	15020
916.82	15020
916.932	15058
917.044	14979
917.156	14990
917.268	14807
917.38	14921
917.491	14735
917.603	14868
917.715	14868
917.826	14880
917.938	14743
918.049	14613
918.161	14796
918.272	14948
918.384	14815
918.495	14720
918.606	14659
918.717	14560
918.828	14610
918.939	14571
919.05	14495
919.161	14568
919.272	14408
919.383	14514
919.494	14625
919.604	14750
919.715	14560
919.826	14423
919.936	14446
920.047	14613
920.157	14556
920.267	14727
920.378	14530
920.488	14355
920.598	14674
920.708	14853
920.818	14667
920.928	14621
921.038	14853
921.148	14826
921.258	14488
921.368	14233
921.477	14244
921.587	14271
921.697	14096
921.806	14191
921.916	14123
922.025	13902
922.134	13913
922.244	13879
922.353	13974
922.462	13849
922.571	13784
922.68	13658
922.789	13518
922.898	13537
923.007	13559
923.116	13590
923.224	13620
923.333	13563
923.442	13426
923.55	13297
923.659	13415
923.767	13384
923.876	13362
923.984	13350
924.092	13339
924.201	13331
924.309	13263
924.417	13354
924.525	13152
924.633	13206
924.741	14145
924.849	13050
924.956	13103
925.064	12989
925.172	12947
925.279	13042
925.387	12973
925.494	13031
925.602	13107
925.709	13008
925.816	12897
925.924	12875
926.031	12993
926.138	12924
926.245	12993
926.352	12779
926.459	12985
926.566	12951
926.673	12875
926.779	12692
926.886	12745
926.993	12506
927.099	12521
927.206	12506
927.312	12479
927.419	12467
927.525	12506
927.631	12536
927.737	12502
927.843	12361
927.95	12281
928.056	12334
928.162	12369
928.267	12365
928.373	12947
928.479	12441
928.585	12190
928.69	12319
928.796	12300
928.901	12296
929.007	12117
929.112	12178
929.218	12190
929.323	12076
929.428	12114
929.533	12209
929.638	12038
929.743	12022
929.848	12072
929.953	11961
930.058	11958
930.163	11688
930.267	11767
930.372	11851
930.477	11688
930.581	11916
930.685	11904
930.79	11661
930.894	11649
930.998	11657
931.103	11786
931.207	11433
931.311	11307
931.415	11227
931.519	11006
931.623	10995
