Data from test_V78500241_1772.txt Node
Date: Fri Mar 25 15:22:11 CST 2022
User: usil
Spectrometer: V785-0024
Trigger mode: 0
Integration Time (sec): 4.000000E-1
Scans to average: 1
Nonlinearity correction enabled: false
Boxcar width: 0
Storing dark spectrum: false
XAxis mode: Wavelengths
Number of Pixels in Spectrum: 1024
>>>>>Begin Spectral Data<<<<<
801.071	28097
801.214	27850
801.356	27701
801.499	27504
801.641	27481
801.783	27583
801.926	27705
802.068	27629
802.211	27416
802.353	27481
802.496	27173
802.638	27260
802.78	27150
802.923	27252
803.065	27096
803.208	27055
803.35	27047
803.492	27287
803.635	27500
803.777	27329
803.919	27507
804.061	27637
804.204	27454
804.346	27393
804.488	27298
804.63	27325
804.773	27230
804.915	27424
805.057	27511
805.199	27363
805.341	27431
805.483	27519
805.626	27530
805.768	27462
805.91	27447
806.052	27477
806.194	27363
806.336	27625
806.478	27557
806.62	27538
806.762	27641
806.904	27637
807.046	27975
807.188	27850
807.33	27953
807.472	27998
807.614	27797
807.756	28010
807.898	27720
808.04	27686
808.182	27793
808.324	27720
808.465	27922
808.607	28006
808.749	28139
808.891	28128
809.033	28253
809.174	28177
809.316	28116
809.458	28101
809.6	27903
809.741	28246
809.883	28272
810.025	28443
810.166	28379
810.308	28432
810.45	28287
810.591	28333
810.733	28116
810.875	28276
811.016	27907
811.158	27968
811.299	28166
811.441	28226
811.582	28325
811.724	28310
811.865	28090
812.007	28211
812.148	28147
812.29	28230
812.431	28375
812.573	28417
812.714	28557
812.855	28725
812.997	28717
813.138	28881
813.279	28664
813.421	28675
813.562	28599
813.703	28333
813.845	28421
813.986	28147
814.127	28013
814.268	27778
814.41	27911
814.551	27842
814.692	27926
814.833	27823
814.974	27861
815.115	27854
815.256	27682
815.397	27812
815.539	27686
815.68	27641
815.821	27526
815.962	27682
816.103	27656
816.244	27568
816.385	27431
816.526	27397
816.666	27310
816.807	27108
816.948	27195
817.089	27203
817.23	27184
817.371	27096
817.512	27089
817.653	27138
817.793	26990
817.934	27100
818.075	27135
818.216	27260
818.356	27009
818.497	27024
818.638	26880
818.778	26994
818.919	26986
819.06	26876
819.2	27013
819.341	27142
819.481	27161
819.622	27302
819.762	27306
819.903	27530
820.043	27291
820.184	27241
820.324	27188
820.465	27351
820.605	27291
820.746	27214
820.886	27127
821.026	27279
821.167	27150
821.307	27207
821.447	27028
821.588	26925
821.728	26994
821.868	26754
822.008	26625
822.149	26564
822.289	26568
822.429	26355
822.569	26332
822.709	26259
822.849	26130
822.99	26035
823.13	26092
823.27	26161
823.41	25875
823.55	25830
823.69	25966
823.83	26050
823.97	25849
824.11	25685
824.25	25719
824.389	25628
824.529	25860
824.669	25746
824.809	25864
824.949	25776
825.089	25837
825.228	25757
825.368	25635
825.508	25632
825.648	25632
825.787	25639
825.927	25833
826.067	25586
826.206	25632
826.346	25628
826.485	25693
826.625	25655
826.765	25696
826.904	25655
827.044	25487
827.183	25476
827.323	25320
827.462	25411
827.601	25392
827.741	25434
827.88	25449
828.02	25308
828.159	25460
828.298	25514
828.437	25479
828.577	25289
828.716	25381
828.855	25289
828.994	25053
829.134	25072
829.273	25065
829.412	25118
829.551	25015
829.69	25008
829.829	25137
829.968	25152
830.107	25148
830.246	24920
830.385	25141
830.524	24852
830.663	24916
830.802	24795
830.941	24715
831.08	24700
831.219	24856
831.357	24753
831.496	24833
831.635	24665
831.774	24601
831.913	24433
832.051	24475
832.19	24418
832.329	24494
832.467	24403
832.606	24296
832.744	24429
832.883	24350
833.022	24296
833.16	24388
833.299	24292
833.437	24357
833.576	24369
833.714	24445
833.852	24357
833.991	24498
834.129	24388
834.267	24395
834.406	24266
834.544	24471
834.682	24376
834.821	24391
834.959	24593
835.097	24323
835.235	24376
835.373	24486
835.511	24452
835.65	24140
835.788	24178
835.926	24194
836.064	23977
836.202	24121
836.34	24258
836.478	24315
836.615	24152
836.753	24224
836.891	24342
837.029	24232
837.167	24327
837.305	24232
837.443	24102
837.58	24125
837.718	24136
837.856	24144
837.993	24053
838.131	24136
838.269	23961
838.406	23889
838.544	23912
838.681	23847
838.819	23737
838.956	23596
839.094	23634
839.231	23668
839.369	23623
839.506	24003
839.643	23798
839.781	23608
839.918	23596
840.055	23627
840.193	23551
840.33	23455
840.467	23429
840.604	23611
840.742	23646
840.879	23383
841.016	23383
841.153	23372
841.29	23611
841.427	23368
841.564	23524
841.701	23387
841.838	23391
841.975	23364
842.112	23551
842.249	23318
842.385	23223
842.522	23467
842.659	23246
842.796	23223
842.933	23162
843.069	23136
843.206	23242
843.343	23273
843.479	23296
843.616	23174
843.752	22980
843.889	22965
844.025	23113
844.162	22991
844.298	23037
844.435	23033
844.571	22987
844.708	22972
844.844	23151
844.98	23269
845.117	23185
845.253	22972
845.389	22923
845.525	22835
845.661	22721
845.798	22717
845.934	22877
846.07	22752
846.206	22763
846.342	22793
846.478	22797
846.614	22485
846.75	22417
846.886	22531
847.022	22637
847.158	22512
847.294	22592
847.429	22440
847.565	22447
847.701	22672
847.837	22181
847.972	22173
848.108	22272
848.244	22284
848.379	22150
848.515	22093
848.65	22070
848.786	22055
848.921	22029
849.057	22215
849.192	22139
849.328	22063
849.463	22044
849.598	22101
849.734	22029
849.869	21892
850.004	21800
850.14	21835
850.275	21994
850.41	21732
850.545	21751
850.68	21785
850.815	21831
850.95	21960
851.085	22025
851.22	21964
851.355	21918
851.49	21850
851.625	21739
851.76	21838
851.895	21717
852.03	21739
852.165	21819
852.299	21869
852.434	21789
852.569	21819
852.703	21869
852.838	21991
852.973	22040
853.107	21968
853.242	21789
853.376	21766
853.511	21667
853.645	21644
853.78	21675
853.914	21701
854.048	21709
854.183	21606
854.317	21675
854.451	21884
854.585	21667
854.72	21701
854.854	21728
854.988	21530
855.122	21587
855.256	21542
855.39	21682
855.524	21720
855.658	21679
855.792	21743
855.926	21553
856.06	21583
856.194	21732
856.327	21618
856.461	21637
856.595	21576
856.729	21583
856.862	21785
856.996	21648
857.13	21861
857.263	21637
857.397	21694
857.53	21698
857.664	21690
857.797	21789
857.931	21701
858.064	21705
858.197	21797
858.331	21538
858.464	21526
858.597	21553
858.731	21603
858.864	21637
858.997	21625
859.13	21614
859.263	21622
859.396	21831
859.529	21690
859.662	21580
859.795	21549
859.928	21686
860.061	21778
860.194	21789
860.327	21648
860.46	21785
860.592	21713
860.725	21720
860.858	21724
860.99	21648
861.123	21663
861.256	21675
861.388	21641
861.521	22409
861.653	21523
861.786	21424
861.918	21466
862.05	21564
862.183	21561
862.315	21622
862.447	21682
862.58	21466
862.712	21473
862.844	21359
862.976	21321
863.108	21363
863.24	21698
863.372	21408
863.504	21264
863.636	21370
863.768	21363
863.9	21359
864.032	21279
864.164	21378
864.296	21428
864.428	21481
864.559	21412
864.691	21443
864.823	21428
864.954	21351
865.086	21306
865.217	21313
865.349	21173
865.48	21317
865.612	21340
865.743	21279
865.875	21138
866.006	21252
866.137	21154
866.269	21218
866.4	21321
866.531	21085
866.662	21112
866.793	21173
866.924	21173
867.055	21268
867.186	21279
867.317	21165
867.448	21108
867.579	21108
867.71	21233
867.841	21154
867.972	21176
868.103	21081
868.233	21302
868.364	21287
868.495	21256
868.625	21515
868.756	21595
868.886	21462
869.017	21370
869.147	21428
869.278	21568
869.408	21458
869.539	21450
869.669	21526
869.799	21435
869.929	21561
870.06	21504
870.19	21800
870.32	21709
870.45	21835
870.58	21747
870.71	21835
870.84	21854
870.97	21842
871.1	21880
871.23	21945
871.36	22029
871.489	21964
871.619	21960
871.749	22006
871.879	22162
872.008	22032
872.138	22032
872.267	21983
872.397	21918
872.526	21781
872.656	21751
872.785	21934
872.915	22036
873.044	22093
873.173	22055
873.303	22147
873.432	22128
873.561	22226
873.69	22135
873.819	22013
873.948	22048
874.077	21888
874.206	21994
874.335	22135
874.464	22147
874.593	22230
874.722	22280
874.851	22329
874.979	22196
875.108	22249
875.237	22158
875.365	22074
875.494	22226
875.623	22325
875.751	22226
875.88	22253
876.008	22398
876.136	22474
876.265	22694
876.393	22782
876.521	22611
876.65	22706
876.778	22630
876.906	22542
877.034	22611
877.162	22500
877.29	22630
877.418	22687
877.546	22683
877.674	22615
877.802	22584
877.93	22592
878.058	22588
878.185	22386
878.313	22459
878.441	22550
878.568	22512
878.696	22500
878.824	22592
878.951	22580
879.079	22831
879.206	22767
879.333	22717
879.461	22538
879.588	22622
879.715	22862
879.842	22885
879.97	22653
880.097	22447
880.224	22382
880.351	22462
880.478	22421
880.605	22341
880.732	22440
880.859	22588
880.986	22542
881.112	22417
881.239	22325
881.366	22135
881.493	21945
881.619	21937
881.746	22025
881.872	21964
881.999	21934
882.125	21736
882.252	22128
882.378	21876
882.505	22090
882.631	21804
882.757	21770
882.883	21751
883.01	21641
883.136	21698
883.262	21599
883.388	21515
883.514	21648
883.64	21656
883.766	21637
883.892	21431
884.018	21462
884.143	21682
884.269	21800
884.395	21412
884.52	21359
884.646	21374
884.772	21389
884.897	21344
885.023	21359
885.148	21526
885.274	21450
885.399	21481
885.524	21317
885.65	21420
885.775	21332
885.9	21245
886.025	21405
886.15	21332
886.275	21176
886.4	21173
886.525	21401
886.65	21195
886.775	21237
886.9	21447
887.025	21568
887.149	21386
887.274	21047
887.399	21161
887.523	21104
887.648	21093
887.773	20963
887.897	21135
888.021	21184
888.146	21055
888.27	21211
888.395	21218
888.519	21104
888.643	21161
888.767	21020
888.891	20986
889.015	20906
889.139	20986
889.263	20921
889.387	21005
889.511	21055
889.635	20998
889.759	20933
889.883	20876
890.006	20998
890.13	20891
890.254	20853
890.377	20777
890.501	20693
890.624	20594
890.748	20689
890.871	20503
890.995	20492
891.118	20328
891.241	20537
891.364	20484
891.488	20537
891.611	20400
891.734	20454
891.857	20609
891.98	20541
892.103	20514
892.226	20488
892.349	20446
892.471	20229
892.594	20408
892.717	20454
892.839	20355
892.962	20320
893.085	20339
893.207	20271
893.33	20214
893.452	20328
893.575	20328
893.697	20336
893.819	20575
893.941	20541
894.064	20434
894.186	20259
894.308	20320
894.43	20290
894.552	20412
894.674	20446
894.796	20237
894.918	20244
895.04	20267
895.161	20427
895.283	20393
895.405	20355
895.526	20377
895.648	20100
895.769	20377
895.891	20320
896.012	20427
896.134	20408
896.255	20366
896.376	20351
896.498	20298
896.619	20252
896.74	20328
896.861	20393
896.982	20720
897.103	20731
897.224	20568
897.345	20526
897.466	20556
897.587	20522
897.708	20712
897.828	20659
897.949	20499
898.07	20434
898.19	20537
898.311	20503
898.431	20434
898.552	20514
898.672	20518
898.792	20682
898.913	20526
899.033	20286
899.153	20396
899.273	20301
899.393	20396
899.513	20332
899.633	20290
899.753	20351
899.873	20119
899.993	20374
900.113	20248
900.232	20328
900.352	20161
900.472	20142
900.591	20012
900.711	20088
900.83	20084
900.95	20145
901.069	20180
901.189	20027
901.308	19769
901.427	19666
901.546	19647
901.665	19689
901.784	19628
901.904	19464
902.023	19411
902.141	19217
902.26	19141
902.379	19369
902.498	19107
902.617	19122
902.735	19251
902.854	19168
902.973	19019
903.091	18829
903.21	18760
903.328	18848
903.446	18768
903.565	18593
903.683	18661
903.801	18559
903.919	18593
904.038	18540
904.156	18361
904.274	18452
904.392	18304
904.51	18410
904.627	18464
904.745	18384
904.863	18486
904.981	18110
905.098	18155
905.216	18079
905.334	18019
905.451	18133
905.569	18011
905.686	17996
905.803	18064
905.921	17897
906.038	17984
906.155	17912
906.272	17794
906.389	17760
906.506	17745
906.623	17722
906.74	17577
906.857	17524
906.974	17566
907.091	17596
907.208	17695
907.324	17737
907.441	17535
907.557	17318
907.674	17353
907.79	17292
907.907	17307
908.023	17474
908.139	17455
908.256	17387
908.372	17231
908.488	17220
908.604	17075
908.72	17060
908.836	17086
908.952	16911
909.068	17105
909.184	17102
909.3	17090
909.415	17117
909.531	17045
909.647	16790
909.762	16755
909.878	16736
909.993	16828
910.108	16717
910.224	16755
910.339	16679
910.454	16599
910.57	16478
910.685	16599
910.8	16805
910.915	16580
911.03	16481
911.145	16443
911.259	16348
911.374	16352
911.489	16314
911.604	16230
911.718	16032
911.833	16173
911.947	16021
912.062	15854
912.176	16067
912.291	16017
912.405	16101
912.519	16310
912.633	16093
912.748	16040
912.862	16154
912.976	15968
913.09	15861
913.204	15838
913.318	15922
913.431	15960
913.545	15941
913.659	15937
913.772	15873
913.886	15686
914	15736
914.113	15739
914.226	15797
914.34	15804
914.453	15507
914.566	15610
914.68	15660
914.793	15561
914.906	15336
915.019	15310
915.132	15226
915.245	15317
915.358	15310
915.47	15310
915.583	15310
915.696	15283
915.809	15466
915.921	15325
916.034	15214
916.146	15184
916.259	15203
916.371	15332
916.483	15252
916.595	15135
916.708	15188
916.82	15195
916.932	15074
917.044	14994
917.156	14960
917.268	14994
917.38	14891
917.491	14887
917.603	14830
917.715	15036
917.826	14998
917.938	14815
918.049	14781
918.161	14914
918.272	15020
918.384	15058
918.495	14830
918.606	14750
918.717	14629
918.828	14716
918.939	14735
919.05	14598
919.161	14568
919.272	14427
919.383	14537
919.494	14724
919.604	14864
919.715	14689
919.826	14590
919.936	14644
920.047	14716
920.157	14746
920.267	14792
920.378	14720
920.488	14579
920.598	14800
920.708	14960
920.818	14735
920.928	14788
921.038	14921
921.148	14876
921.258	14617
921.368	14495
921.477	14412
921.587	14404
921.697	14259
921.806	14446
921.916	14187
922.025	14054
922.134	13986
922.244	13932
922.353	14039
922.462	13894
922.571	13799
922.68	13647
922.789	13582
922.898	13738
923.007	13582
923.116	13727
923.224	13647
923.333	13628
923.442	13499
923.55	13491
923.659	13499
923.767	13544
923.876	13491
923.984	13487
924.092	13453
924.201	13460
924.309	13304
924.417	13472
924.525	13297
924.633	13255
924.741	14024
924.849	13099
924.956	13240
925.064	13206
925.172	12996
925.279	13069
925.387	13034
925.494	13042
925.602	13213
925.709	13053
925.816	13084
925.924	13004
926.031	13061
926.138	12981
926.245	13080
926.352	12913
926.459	13076
926.566	13061
926.673	12878
926.779	12753
926.886	12772
926.993	12650
927.099	12658
927.206	12604
927.312	12593
927.419	12681
927.525	12646
927.631	12662
927.737	12513
927.843	12448
927.95	12281
928.056	12422
928.162	12506
928.267	12544
928.373	13114
928.479	12509
928.585	12228
928.69	12410
928.796	12445
928.901	12289
929.007	12155
929.112	12285
929.218	12243
929.323	12190
929.428	12178
929.533	12289
929.638	12068
929.743	12171
929.848	12228
929.953	12205
930.058	11984
930.163	11813
930.267	11874
930.372	11923
930.477	11805
930.581	12064
930.685	11859
930.79	11775
930.894	11775
930.998	11688
931.103	11832
931.207	11509
931.311	11490
931.415	11318
931.519	11132
931.623	11056
