Data from test_V78500241_3483.txt Node
Date: Fri Mar 25 15:34:06 CST 2022
User: usil
Spectrometer: V785-0024
Trigger mode: 0
Integration Time (sec): 4.000000E-1
Scans to average: 1
Nonlinearity correction enabled: false
Boxcar width: 0
Storing dark spectrum: false
XAxis mode: Wavelengths
Number of Pixels in Spectrum: 1024
>>>>>Begin Spectral Data<<<<<
801.071	27165
801.214	27100
801.356	26765
801.499	26636
801.641	26590
801.783	26465
801.926	26609
802.068	26693
802.211	26587
802.353	26484
802.496	26412
802.638	26385
802.78	26461
802.923	26301
803.065	26126
803.208	26278
803.35	26305
803.492	26404
803.635	26613
803.777	26393
803.919	26587
804.061	26727
804.204	26473
804.346	26389
804.488	26332
804.63	26469
804.773	26267
804.915	26381
805.057	26564
805.199	26419
805.341	26415
805.483	26488
805.626	26511
805.768	26336
805.91	26476
806.052	26594
806.194	26400
806.336	26621
806.478	26530
806.62	26446
806.762	26689
806.904	26811
807.046	27116
807.188	26990
807.33	27055
807.472	26906
807.614	26868
807.756	26918
807.898	26834
808.04	26762
808.182	26708
808.324	26819
808.465	26686
808.607	26956
808.749	27043
808.891	27093
809.033	27207
809.174	27344
809.316	27123
809.458	27032
809.6	26929
809.741	27062
809.883	27146
810.025	27416
810.166	27389
810.308	27412
810.45	27389
810.591	27245
810.733	27058
810.875	27173
811.016	27055
811.158	27127
811.299	27188
811.441	27249
811.582	27302
811.724	27211
811.865	27028
812.007	26876
812.148	26990
812.29	27173
812.431	27294
812.573	27397
812.714	27386
812.855	27553
812.997	27660
813.138	27739
813.279	27660
813.421	27679
813.562	27469
813.703	27344
813.845	27329
813.986	26990
814.127	26857
814.268	26815
814.41	26861
814.551	26667
814.692	26796
814.833	26735
814.974	26743
815.115	26743
815.256	26708
815.397	26541
815.539	26689
815.68	26461
815.821	26324
815.962	26480
816.103	26389
816.244	26400
816.385	26313
816.526	26412
816.666	26065
816.807	26073
816.948	26107
817.089	26115
817.23	26122
817.371	26027
817.512	26005
817.653	26073
817.793	26016
817.934	26016
818.075	25974
818.216	26005
818.356	26001
818.497	25928
818.638	25575
818.778	25628
818.919	25700
819.06	25826
819.2	25837
819.341	25909
819.481	25833
819.622	26161
819.762	26381
819.903	26206
820.043	26119
820.184	26142
820.324	26096
820.465	26199
820.605	26122
820.746	25955
820.886	25932
821.026	26031
821.167	25959
821.307	26107
821.447	26005
821.588	25849
821.728	25708
821.868	25734
822.008	25518
822.149	25479
822.289	25521
822.429	25141
822.569	25126
822.709	25156
822.849	25019
822.99	24962
823.13	24795
823.27	24932
823.41	24776
823.55	24787
823.69	24719
823.83	24616
823.97	24753
824.11	24525
824.25	24692
824.389	24566
824.529	24677
824.669	24547
824.809	24688
824.949	24589
825.089	24547
825.228	24642
825.368	24414
825.508	24445
825.648	24330
825.787	24460
825.927	24559
826.067	24570
826.206	24452
826.346	24601
826.485	24532
826.625	24544
826.765	24673
826.904	24551
827.044	24190
827.183	24125
827.323	24228
827.462	24216
827.601	24289
827.741	24163
827.88	24292
828.02	24072
828.159	24076
828.298	24186
828.437	24106
828.577	24095
828.716	24220
828.855	24038
828.994	23916
829.134	24041
829.273	23897
829.412	23817
829.551	23889
829.69	23836
829.829	24007
829.968	23996
830.107	23973
830.246	23817
830.385	23863
830.524	23634
830.663	23726
830.802	23585
830.941	23524
831.08	23516
831.219	23657
831.357	23531
831.496	23707
831.635	23391
831.774	23509
831.913	23337
832.051	23227
832.19	23197
832.329	23231
832.467	23246
832.606	23132
832.744	23090
832.883	23117
833.022	23162
833.16	23242
833.299	23220
833.437	23315
833.576	23197
833.714	23220
833.852	23429
833.991	23181
834.129	23368
834.267	23433
834.406	23231
834.544	23140
834.682	23246
834.821	23128
834.959	23372
835.097	23239
835.235	23391
835.373	23273
835.511	23174
835.65	23155
835.788	23181
835.926	22968
836.064	22889
836.202	23102
836.34	23090
836.478	23220
836.615	23166
836.753	23121
836.891	23200
837.029	23086
837.167	22930
837.305	22987
837.443	22923
837.58	22938
837.718	23010
837.856	23014
837.993	22866
838.131	23003
838.269	22782
838.406	22877
838.544	22847
838.681	22645
838.819	22550
838.956	22421
839.094	22344
839.231	22451
839.369	22538
839.506	22892
839.643	22683
839.781	22356
839.918	22382
840.055	22402
840.193	22500
840.33	22455
840.467	22493
840.604	22432
840.742	22630
840.879	22287
841.016	22322
841.153	22215
841.29	22436
841.427	22223
841.564	22436
841.701	22504
841.838	22337
841.975	22169
842.112	22242
842.249	22162
842.385	22211
842.522	22341
842.659	22074
842.796	22120
842.933	22150
843.069	22101
843.206	22150
843.343	22177
843.479	22086
843.616	22207
843.752	21968
843.889	21865
844.025	21991
844.162	21941
844.298	21960
844.435	21785
844.571	21854
844.708	21911
844.844	21998
844.98	22105
845.117	22074
845.253	21804
845.389	21713
845.525	21819
845.661	21869
845.798	21713
845.934	21698
846.07	21679
846.206	21690
846.342	21846
846.478	21633
846.614	21412
846.75	21363
846.886	21481
847.022	21439
847.158	21386
847.294	21431
847.429	21386
847.565	21313
847.701	21682
847.837	21077
847.972	21009
848.108	21096
848.244	21165
848.379	20960
848.515	20971
848.65	20963
848.786	20895
848.921	20956
849.057	21009
849.192	21077
849.328	21085
849.463	21005
849.598	20914
849.734	20781
849.869	20800
850.004	20712
850.14	20788
850.275	20716
850.41	20617
850.545	20651
850.68	20678
850.815	20754
850.95	20773
851.085	20918
851.22	20845
851.355	20727
851.49	20693
851.625	20731
851.76	20739
851.895	20750
852.03	20716
852.165	20845
852.299	20785
852.434	20887
852.569	20731
852.703	20697
852.838	20788
852.973	20967
853.107	20872
853.242	20587
853.376	20625
853.511	20438
853.645	20568
853.78	20682
853.914	20693
854.048	20503
854.183	20617
854.317	20484
854.451	20823
854.585	20705
854.72	20438
854.854	20727
854.988	20492
855.122	20522
855.256	20522
855.39	20583
855.524	20602
855.658	20583
855.792	20609
855.926	20712
856.06	20693
856.194	20693
856.327	20587
856.461	20431
856.595	20533
856.729	20560
856.862	20629
856.996	20568
857.13	20640
857.263	20632
857.397	20598
857.53	20530
857.664	20644
857.797	20621
857.931	20663
858.064	20537
858.197	20686
858.331	20636
858.464	20556
858.597	20579
858.731	20670
858.864	20442
858.997	20522
859.13	20625
859.263	20583
859.396	20663
859.529	20579
859.662	20431
859.795	20579
859.928	20655
860.061	20743
860.194	20701
860.327	20575
860.46	20518
860.592	20632
860.725	20731
860.858	20651
860.99	20587
861.123	20526
861.256	20446
861.388	20571
861.521	21340
861.653	20431
861.786	20396
861.918	20381
862.05	20358
862.183	20522
862.315	20526
862.447	20583
862.58	20480
862.712	20282
862.844	20256
862.976	20343
863.108	20419
863.24	20769
863.372	20229
863.504	20278
863.636	20161
863.768	20301
863.9	20286
864.032	20172
864.164	20210
864.296	20305
864.428	20446
864.559	20332
864.691	20320
864.823	20358
864.954	20206
865.086	20187
865.217	20195
865.349	20119
865.48	20138
865.612	20199
865.743	20309
865.875	20157
866.006	20092
866.137	20092
866.269	20210
866.4	20153
866.531	20237
866.662	20031
866.793	20240
866.924	20096
867.055	20084
867.186	20142
867.317	20122
867.448	20073
867.579	20134
867.71	20031
867.841	20020
867.972	20142
868.103	20138
868.233	20233
868.364	20153
868.495	20267
868.625	20404
868.756	20419
868.886	20309
869.017	20415
869.147	20473
869.278	20492
869.408	20294
869.539	20377
869.669	20336
869.799	20385
869.929	20594
870.06	20518
870.19	20629
870.32	20705
870.45	20830
870.58	20556
870.71	20876
870.84	20842
870.97	20750
871.1	20800
871.23	20864
871.36	21047
871.489	20872
871.619	20918
871.749	20971
871.879	20948
872.008	21089
872.138	20910
872.267	20899
872.397	20815
872.526	20777
872.656	20815
872.785	20796
872.915	21036
873.044	21055
873.173	20941
873.303	21142
873.432	20979
873.561	21100
873.69	21020
873.819	21070
873.948	21070
874.077	21043
874.206	20887
874.335	20891
874.464	21112
874.593	21275
874.722	21287
874.851	21249
874.979	21310
875.108	21294
875.237	21199
875.365	21100
875.494	21180
875.623	21382
875.751	21184
875.88	21332
876.008	21504
876.136	21553
876.265	21831
876.393	21751
876.521	21671
876.65	21709
876.778	21675
876.906	21686
877.034	21564
877.162	21656
877.29	21549
877.418	21682
877.546	21686
877.674	21694
877.802	21572
877.93	21633
878.058	21656
878.185	21542
878.313	21466
878.441	21599
878.568	21351
878.696	21488
878.824	21591
878.951	21644
879.079	21759
879.206	21926
879.333	21720
879.461	21629
879.588	21717
879.715	21827
879.842	21854
879.97	21667
880.097	21389
880.224	21397
880.351	21542
880.478	21329
880.605	21435
880.732	21378
880.859	21549
880.986	21435
881.112	21416
881.239	21283
881.366	21237
881.493	21077
881.619	21085
881.746	21104
881.872	21108
881.999	21058
882.125	20986
882.252	20937
882.378	20933
882.505	21066
882.631	20861
882.757	20769
882.883	20804
883.01	20701
883.136	20682
883.262	20541
883.388	20568
883.514	20762
883.64	20792
883.766	20750
883.892	20480
884.018	20560
884.143	20621
884.269	20743
884.395	20450
884.52	20393
884.646	20381
884.772	20298
884.897	20187
885.023	20400
885.148	20415
885.274	20594
885.399	20518
885.524	20438
885.65	20446
885.775	20423
885.9	20358
886.025	20488
886.15	20434
886.275	20317
886.4	20237
886.525	20415
886.65	20374
886.775	20202
886.9	20579
887.025	20530
887.149	20427
887.274	20183
887.399	20153
887.523	20100
887.648	20134
887.773	20256
887.897	20172
888.021	20164
888.146	19986
888.27	20065
888.395	20282
888.519	20164
888.643	20263
888.767	20149
888.891	19928
889.015	19909
889.139	19963
889.263	19986
889.387	20100
889.511	20199
889.635	19955
889.759	19845
889.883	20031
890.006	19894
890.13	20081
890.254	19856
890.377	19845
890.501	19696
890.624	19738
890.748	19620
890.871	19586
890.995	19491
891.118	19445
891.241	19518
891.364	19571
891.488	19616
891.611	19384
891.734	19457
891.857	19548
891.98	19552
892.103	19571
892.226	19476
892.349	19510
892.471	19362
892.594	19419
892.717	19575
892.839	19373
892.962	19483
893.085	19559
893.207	19563
893.33	19354
893.452	19362
893.575	19487
893.697	19422
893.819	19620
893.941	19708
894.064	19540
894.186	19419
894.308	19327
894.43	19449
894.552	19605
894.674	19567
894.796	19487
894.918	19510
895.04	19339
895.161	19381
895.283	19514
895.405	19506
895.526	19430
895.648	19510
895.769	19457
895.891	19403
896.012	19499
896.134	19483
896.255	19411
896.376	19487
896.498	19460
896.619	19537
896.74	19384
896.861	19674
896.982	19788
897.103	19978
897.224	19757
897.345	19795
897.466	19563
897.587	19765
897.708	19871
897.828	19791
897.949	19651
898.07	19533
898.19	19635
898.311	19605
898.431	19655
898.552	19753
898.672	19723
898.792	19780
898.913	19620
899.033	19567
899.153	19495
899.273	19346
899.393	19571
899.513	19510
899.633	19438
899.753	19411
899.873	19396
899.993	19563
900.113	19312
900.232	19392
900.352	19403
900.472	19369
900.591	19213
900.711	19285
900.83	19240
900.95	19312
901.069	19282
901.189	19194
901.308	18989
901.427	18882
901.546	18825
901.665	18867
901.784	18878
901.904	18658
902.023	18582
902.141	18448
902.26	18388
902.379	18433
902.498	18304
902.617	18235
902.735	18407
902.854	18429
902.973	18190
903.091	18064
903.21	17954
903.328	18079
903.446	17980
903.565	17908
903.683	17809
903.801	17665
903.919	17832
904.038	17794
904.156	17627
904.274	17642
904.392	17539
904.51	17532
904.627	17611
904.745	17672
904.863	17707
904.981	17452
905.098	17311
905.216	17258
905.334	17288
905.451	17280
905.569	17334
905.686	17337
905.803	17303
905.921	17045
906.038	17170
906.155	17098
906.272	16999
906.389	16987
906.506	16881
906.623	16839
906.74	16793
906.857	16721
906.974	16713
907.091	16927
907.208	17025
907.324	16771
907.441	16706
907.557	16637
907.674	16527
907.79	16500
907.907	16516
908.023	16538
908.139	16622
908.256	16432
908.372	16443
908.488	16371
908.604	16291
908.72	16287
908.836	16291
908.952	16280
909.068	16276
909.184	16432
909.3	16147
909.415	16238
909.531	16185
909.647	16124
909.762	15972
909.878	15926
909.993	15991
910.108	15987
910.224	15983
910.339	15895
910.454	15911
910.57	15698
910.685	15808
910.8	16017
910.915	16029
911.03	15747
911.145	15633
911.259	15595
911.374	15587
911.489	15587
911.604	15492
911.718	15329
911.833	15393
911.947	15291
912.062	15169
912.176	15317
912.291	15291
912.405	15344
912.519	15572
912.633	15538
912.748	15348
912.862	15325
912.976	15245
913.09	15062
913.204	15119
913.318	15150
913.431	15184
913.545	15249
913.659	15260
913.772	15226
913.886	15093
914	14967
914.113	15093
914.226	15089
914.34	15028
914.453	14929
914.566	14986
914.68	14899
914.793	14834
914.906	14663
915.019	14651
915.132	14446
915.245	14518
915.358	14598
915.47	14583
915.583	14552
915.696	14598
915.809	14636
915.921	14754
916.034	14511
916.146	14533
916.259	14396
916.371	14632
916.483	14579
916.595	14450
916.708	14450
916.82	14400
916.932	14431
917.044	14374
917.156	14332
917.268	14294
917.38	14339
917.491	14183
917.603	14320
917.715	14427
917.826	14336
917.938	14278
918.049	14096
918.161	14240
918.272	14370
918.384	14351
918.495	14210
918.606	14065
918.717	14024
918.828	14081
918.939	14126
919.05	13944
919.161	14046
919.272	13879
919.383	13826
919.494	14008
919.604	14278
919.715	14035
919.826	13849
919.936	13959
920.047	14172
920.157	14081
920.267	14180
920.378	14008
920.488	13967
920.598	14130
920.708	14324
920.818	14138
920.928	14123
921.038	14240
921.148	14233
921.258	14039
921.368	13883
921.477	13712
921.587	13753
921.697	13662
921.806	13723
921.916	13639
922.025	13483
922.134	13460
922.244	13335
922.353	13350
922.462	13247
922.571	13293
922.68	13122
922.789	13091
922.898	13065
923.007	12913
923.116	13088
923.224	13000
923.333	13023
923.442	12882
923.55	12856
923.659	12738
923.767	13034
923.876	12852
923.984	12954
924.092	12859
924.201	12810
924.309	12787
924.417	12787
924.525	12787
924.633	12688
924.741	13548
924.849	12513
924.956	12665
925.064	12513
925.172	12296
925.279	12452
925.387	12536
925.494	12544
925.602	12608
925.709	12521
925.816	12422
925.924	12448
926.031	12517
926.138	12448
926.245	12456
926.352	12380
926.459	12460
926.566	12448
926.673	12376
926.779	12281
926.886	12243
926.993	12136
927.099	12087
927.206	12011
927.312	11977
927.419	12083
927.525	12098
927.631	12114
927.737	11893
927.843	11954
927.95	11874
928.056	11832
928.162	11901
928.267	11977
928.373	12467
928.479	11920
928.585	11771
928.69	11927
928.796	11863
928.901	11786
929.007	11615
929.112	11760
929.218	11756
929.323	11695
929.428	11722
929.533	11748
929.638	11619
929.743	11699
929.848	11600
929.953	11623
930.058	11512
930.163	11360
930.267	11326
930.372	11478
930.477	11398
930.581	11600
930.685	11383
930.79	11273
930.894	11212
930.998	11273
931.103	11258
931.207	11014
931.311	10953
931.415	10904
931.519	10771
931.623	10691
