Data from test_V78500241_2970.txt Node
Date: Fri Mar 25 15:30:32 CST 2022
User: usil
Spectrometer: V785-0024
Trigger mode: 0
Integration Time (sec): 4.000000E-1
Scans to average: 1
Nonlinearity correction enabled: false
Boxcar width: 0
Storing dark spectrum: false
XAxis mode: Wavelengths
Number of Pixels in Spectrum: 1024
>>>>>Begin Spectral Data<<<<<
801.071	27066
801.214	26895
801.356	26895
801.499	26640
801.641	26537
801.783	26480
801.926	26492
802.068	26473
802.211	26587
802.353	26412
802.496	26294
802.638	26294
802.78	26237
802.923	26081
803.065	26054
803.208	26161
803.35	26096
803.492	26298
803.635	26343
803.777	26096
803.919	26225
804.061	26663
804.204	26431
804.346	26259
804.488	26187
804.63	26377
804.773	26267
804.915	26343
805.057	26423
805.199	26278
805.341	26434
805.483	26343
805.626	26488
805.768	26298
805.91	26339
806.052	26450
806.194	26400
806.336	26556
806.478	26480
806.62	26404
806.762	26476
806.904	26598
807.046	26842
807.188	26773
807.33	26815
807.472	26823
807.614	26876
807.756	26815
807.898	26777
808.04	26632
808.182	26594
808.324	26651
808.465	26781
808.607	26925
808.749	27055
808.891	27089
809.033	27131
809.174	27085
809.316	27032
809.458	27093
809.6	26857
809.741	27066
809.883	27268
810.025	27386
810.166	27233
810.308	27378
810.45	27325
810.591	27233
810.733	27036
810.875	26929
811.016	26960
811.158	26872
811.299	27077
811.441	27123
811.582	27214
811.724	27070
811.865	27176
812.007	27024
812.148	27017
812.29	26990
812.431	27036
812.573	27351
812.714	27275
812.855	27450
812.997	27610
813.138	27671
813.279	27622
813.421	27507
813.562	27408
813.703	27367
813.845	27165
813.986	26746
814.127	26823
814.268	26606
814.41	26568
814.551	26682
814.692	26686
814.833	26552
814.974	26602
815.115	26689
815.256	26503
815.397	26579
815.539	26522
815.68	26457
815.821	26461
815.962	26377
816.103	26450
816.244	26122
816.385	26149
816.526	26046
816.666	25947
816.807	25963
816.948	25951
817.089	26027
817.23	25986
817.371	25845
817.512	25890
817.653	25799
817.793	25868
817.934	25902
818.075	25750
818.216	25818
818.356	25826
818.497	25677
818.638	25674
818.778	25712
818.919	25662
819.06	25734
819.2	25875
819.341	25856
819.481	25894
819.622	26103
819.762	26164
819.903	26149
820.043	25997
820.184	25928
820.324	26073
820.465	26005
820.605	26088
820.746	25989
820.886	25807
821.026	25955
821.167	25963
821.307	26058
821.447	25913
821.588	25788
821.728	25582
821.868	25476
822.008	25415
822.149	25434
822.289	25225
822.429	25084
822.569	25004
822.709	25080
822.849	24901
822.99	24757
823.13	24833
823.27	24719
823.41	24673
823.55	24582
823.69	24658
823.83	24791
823.97	24589
824.11	24452
824.25	24509
824.389	24445
824.529	24517
824.669	24601
824.809	24551
824.949	24521
825.089	24433
825.228	24544
825.368	24304
825.508	24429
825.648	24224
825.787	24414
825.927	24323
826.067	24304
826.206	24407
826.346	24323
826.485	24407
826.625	24395
826.765	24544
826.904	24403
827.044	24091
827.183	24095
827.323	24038
827.462	24163
827.601	24045
827.741	24064
827.88	23984
828.02	23859
828.159	24038
828.298	24038
828.437	24190
828.577	24098
828.716	24038
828.855	23847
828.994	23805
829.134	23783
829.273	23794
829.412	23718
829.551	23600
829.69	23813
829.829	23760
829.968	23893
830.107	23828
830.246	23779
830.385	23608
830.524	23627
830.663	23535
830.802	23360
830.941	23334
831.08	23455
831.219	23349
831.357	23478
831.496	23547
831.635	23318
831.774	23318
831.913	23208
832.051	23143
832.19	23113
832.329	23216
832.467	23018
832.606	22946
832.744	23014
832.883	22953
833.022	22995
833.16	23098
833.299	22980
833.437	23075
833.576	23105
833.714	23071
833.852	23010
833.991	23086
834.129	23193
834.267	23166
834.406	23117
834.544	23193
834.682	23162
834.821	23117
834.959	23151
835.097	23044
835.235	23086
835.373	23067
835.511	22976
835.65	22885
835.788	22949
835.926	22755
836.064	22687
836.202	22725
836.34	22896
836.478	23052
836.615	22843
836.753	23022
836.891	23056
837.029	22976
837.167	22869
837.305	22831
837.443	22858
837.58	22687
837.718	22660
837.856	22797
837.993	22630
838.131	22645
838.269	22812
838.406	22656
838.544	22607
838.681	22306
838.819	22421
838.956	22265
839.094	22329
839.231	22181
839.369	22478
839.506	22649
839.643	22459
839.781	22291
839.918	22177
840.055	22185
840.193	22082
840.33	22139
840.467	22188
840.604	22249
840.742	22557
840.879	22021
841.016	22048
841.153	22097
841.29	22265
841.427	22051
841.564	22101
841.701	22029
841.838	22131
841.975	22105
842.112	22112
842.249	21994
842.385	22128
842.522	22154
842.659	21979
842.796	21941
842.933	21895
843.069	21823
843.206	21892
843.343	22055
843.479	21884
843.616	21930
843.752	21686
843.889	21759
844.025	21937
844.162	21736
844.298	21785
844.435	21751
844.571	21717
844.708	21778
844.844	21812
844.98	21857
845.117	21895
845.253	21538
845.389	21507
845.525	21580
845.661	21534
845.798	21542
845.934	21431
846.07	21344
846.206	21515
846.342	21564
846.478	21416
846.614	21252
846.75	21013
846.886	21275
847.022	21199
847.158	21199
847.294	21237
847.429	21302
847.565	21154
847.701	21443
847.837	20918
847.972	21017
848.108	21028
848.244	21039
848.379	20941
848.515	20819
848.65	20765
848.786	20739
848.921	20769
849.057	20902
849.192	20880
849.328	20773
849.463	20823
849.598	20773
849.734	20701
849.869	20514
850.004	20579
850.14	20533
850.275	20636
850.41	20541
850.545	20412
850.68	20583
850.815	20575
850.95	20488
851.085	20712
851.22	20613
851.355	20568
851.49	20492
851.625	20457
851.76	20606
851.895	20438
852.03	20469
852.165	20598
852.299	20632
852.434	20686
852.569	20587
852.703	20393
852.838	20617
852.973	20762
853.107	20777
853.242	20503
853.376	20385
853.511	20339
853.645	20290
853.78	20514
853.914	20328
854.048	20404
854.183	20305
854.317	20381
854.451	20602
854.585	20366
854.72	20305
854.854	20438
854.988	20389
855.122	20282
855.256	20191
855.39	20446
855.524	20434
855.658	20362
855.792	20377
855.926	20412
856.06	20484
856.194	20404
856.327	20362
856.461	20301
856.595	20267
856.729	20275
856.862	20423
856.996	20419
857.13	20336
857.263	20408
857.397	20298
857.53	20385
857.664	20355
857.797	20404
857.931	20503
858.064	20377
858.197	20438
858.331	20358
858.464	20351
858.597	20286
858.731	20454
858.864	20282
858.997	20138
859.13	20271
859.263	20381
859.396	20362
859.529	20404
859.662	20202
859.795	20256
859.928	20313
860.061	20526
860.194	20518
860.327	20393
860.46	20351
860.592	20473
860.725	20545
860.858	20480
860.99	20423
861.123	20355
861.256	20259
861.388	20434
861.521	20921
861.653	20263
861.786	20191
861.918	20119
862.05	20301
862.183	20206
862.315	20355
862.447	20248
862.58	20278
862.712	20157
862.844	19909
862.976	20233
863.108	20229
863.24	20454
863.372	20050
863.504	20225
863.636	20024
863.768	20111
863.9	20130
864.032	19860
864.164	20058
864.296	20069
864.428	20153
864.559	20050
864.691	20126
864.823	20183
864.954	20054
865.086	20134
865.217	20020
865.349	19818
865.48	19986
865.612	20035
865.743	20088
865.875	19978
866.006	19993
866.137	20008
866.269	19993
866.4	20020
866.531	20065
866.662	19738
866.793	19940
866.924	19932
867.055	20020
867.186	19898
867.317	19936
867.448	19776
867.579	19963
867.71	19837
867.841	19864
867.972	20031
868.103	19936
868.233	20001
868.364	19928
868.495	20084
868.625	20252
868.756	20187
868.886	20180
869.017	20039
869.147	20248
869.278	20229
869.408	20157
869.539	20130
869.669	20336
869.799	20206
869.929	20389
870.06	20301
870.19	20415
870.32	20514
870.45	20400
870.58	20571
870.71	20674
870.84	20735
870.97	20682
871.1	20575
871.23	20716
871.36	20746
871.489	20549
871.619	20746
871.749	20842
871.879	20815
872.008	20902
872.138	20785
872.267	20697
872.397	20632
872.526	20659
872.656	20667
872.785	20606
872.915	20811
873.044	20941
873.173	20826
873.303	20975
873.432	20838
873.561	20941
873.69	20834
873.819	20819
873.948	20842
874.077	20887
874.206	20823
874.335	20804
874.464	21036
874.593	21024
874.722	21066
874.851	21112
874.979	21123
875.108	21070
875.237	20990
875.365	21096
875.494	21020
875.623	21104
875.751	21043
875.88	21123
876.008	21214
876.136	21401
876.265	21660
876.393	21606
876.521	21496
876.65	21542
876.778	21481
876.906	21412
877.034	21279
877.162	21424
877.29	21363
877.418	21378
877.546	21504
877.674	21420
877.802	21378
877.93	21401
878.058	21313
878.185	21241
878.313	21332
878.441	21416
878.568	21268
878.696	21439
878.824	21393
878.951	21507
879.079	21629
879.206	21660
879.333	21622
879.461	21447
879.588	21622
879.715	21542
879.842	21728
879.97	21629
880.097	21287
880.224	21294
880.351	21401
880.478	21321
880.605	21203
880.732	21294
880.859	21534
880.986	21249
881.112	21340
881.239	21203
881.366	20982
881.493	20937
881.619	20979
881.746	20899
881.872	20868
881.999	20899
882.125	20659
882.252	20857
882.378	20792
882.505	20899
882.631	20834
882.757	20594
882.883	20503
883.01	20583
883.136	20590
883.262	20434
883.388	20362
883.514	20492
883.64	20583
883.766	20446
883.892	20290
884.018	20400
884.143	20499
884.269	20545
884.395	20267
884.52	20225
884.646	20218
884.772	20176
884.897	20142
885.023	20187
885.148	20358
885.274	20412
885.399	20309
885.524	20138
885.65	20183
885.775	20138
885.9	20191
886.025	20267
886.15	20244
886.275	20202
886.4	20142
886.525	20221
886.65	20161
886.775	20054
886.9	20298
887.025	20336
887.149	20199
887.274	19909
887.399	20035
887.523	19944
887.648	19951
887.773	19917
887.897	19997
888.021	19997
888.146	19944
888.27	19982
888.395	20134
888.519	19970
888.643	20077
888.767	20035
888.891	19928
889.015	19738
889.139	19928
889.263	19765
889.387	19928
889.511	19993
889.635	19989
889.759	19750
889.883	19780
890.006	19776
890.13	19898
890.254	19837
890.377	19655
890.501	19590
890.624	19537
890.748	19518
890.871	19392
890.995	19407
891.118	19396
891.241	19377
891.364	19430
891.488	19594
891.611	19422
891.734	19251
891.857	19377
891.98	19396
892.103	19449
892.226	19365
892.349	19392
892.471	19175
892.594	19274
892.717	19339
892.839	19244
892.962	19297
893.085	19320
893.207	19297
893.33	19217
893.452	19148
893.575	19350
893.697	19320
893.819	19346
893.941	19582
894.064	19403
894.186	19213
894.308	19247
894.43	19365
894.552	19419
894.674	19392
894.796	19198
894.918	19164
895.04	19274
895.161	19396
895.283	19274
895.405	19327
895.526	19259
895.648	19373
895.769	19213
895.891	19365
896.012	19415
896.134	19312
896.255	19369
896.376	19324
896.498	19346
896.619	19316
896.74	19255
896.861	19422
896.982	19616
897.103	19693
897.224	19601
897.345	19525
897.466	19502
897.587	19586
897.708	19624
897.828	19483
897.949	19495
898.07	19472
898.19	19514
898.311	19693
898.431	19521
898.552	19578
898.672	19620
898.792	19582
898.913	19677
899.033	19506
899.153	19335
899.273	19274
899.393	19335
899.513	19324
899.633	19289
899.753	19327
899.873	19308
899.993	19297
900.113	19331
900.232	19369
900.352	19270
900.472	19244
900.591	19027
900.711	19114
900.83	19065
900.95	19145
901.069	19190
901.189	19050
901.308	18817
901.427	18745
901.546	18673
901.665	18726
901.784	18760
901.904	18559
902.023	18452
902.141	18243
902.26	18216
902.379	18296
902.498	18319
902.617	18228
902.735	18346
902.854	18159
902.973	18152
903.091	17942
903.21	17980
903.328	17882
903.446	17805
903.565	17703
903.683	17802
903.801	17581
903.919	17600
904.038	17649
904.156	17444
904.274	17604
904.392	17482
904.51	17360
904.627	17387
904.745	17528
904.863	17452
904.981	17311
905.098	17250
905.216	17208
905.334	17178
905.451	17159
905.569	17132
905.686	17204
905.803	17124
905.921	16984
906.038	17113
906.155	16965
906.272	16839
906.389	16820
906.506	16698
906.623	16763
906.74	16752
906.857	16573
906.974	16573
907.091	16767
907.208	16740
907.324	16664
907.441	16641
907.557	16443
907.674	16455
907.79	16333
907.907	16360
908.023	16402
908.139	16405
908.256	16333
908.372	16367
908.488	16322
908.604	16310
908.72	16097
908.836	16219
908.952	16101
909.068	16215
909.184	16276
909.3	16238
909.415	16147
909.531	16169
909.647	15979
909.762	15869
909.878	15800
909.993	15941
910.108	15915
910.224	15800
910.339	15850
910.454	15671
910.57	15652
910.685	15652
910.8	15804
910.915	15823
911.03	15652
911.145	15511
911.259	15405
911.374	15408
911.489	15420
911.604	15317
911.718	15161
911.833	15260
911.947	15207
912.062	15119
912.176	15237
912.291	15325
912.405	15313
912.519	15374
912.633	15469
912.748	15344
912.862	15294
912.976	15100
913.09	14891
913.204	15028
913.318	15005
913.431	15192
913.545	15127
913.659	15100
913.772	14967
913.886	14941
914	14853
914.113	14834
914.226	15013
914.34	14864
914.453	14754
914.566	14830
914.68	14781
914.793	14674
914.906	14575
915.019	14419
915.132	14358
915.245	14465
915.358	14396
915.47	14530
915.583	14518
915.696	14469
915.809	14556
915.921	14697
916.034	14442
916.146	14412
916.259	14450
916.371	14427
916.483	14465
916.595	14336
916.708	14305
916.82	14351
916.932	14233
917.044	14214
917.156	14309
917.268	14115
917.38	14115
917.491	14123
917.603	14115
917.715	14206
917.826	14210
917.938	14058
918.049	14012
918.161	14123
918.272	14305
918.384	14180
918.495	14035
918.606	14020
918.717	13803
918.828	13860
918.939	13978
919.05	13856
919.161	13921
919.272	13723
919.383	13791
919.494	13963
919.604	14062
919.715	13871
919.826	13780
919.936	13898
920.047	14020
920.157	13951
920.267	14069
920.378	13887
920.488	13826
920.598	14012
920.708	14210
920.818	14027
920.928	14001
921.038	14107
921.148	14092
921.258	13887
921.368	13769
921.477	13791
921.587	13693
921.697	13521
921.806	13723
921.916	13487
922.025	13297
922.134	13308
922.244	13282
922.353	13388
922.462	13221
922.571	13084
922.68	13019
922.789	13031
922.898	13004
923.007	12920
923.116	12924
923.224	12935
923.333	12954
923.442	12848
923.55	12745
923.659	12871
923.767	12859
923.876	12749
923.984	12833
924.092	12757
924.201	12791
924.309	12779
924.417	12760
924.525	12772
924.633	12665
924.741	13381
924.849	12452
924.956	12574
925.064	12448
925.172	12410
925.279	12437
925.387	12429
925.494	12471
925.602	12513
925.709	12483
925.816	12327
925.924	12380
926.031	12319
926.138	12346
926.245	12372
926.352	12296
926.459	12479
926.566	12490
926.673	12281
926.779	12197
926.886	12163
926.993	12026
927.099	11958
927.206	11992
927.312	11920
927.419	11950
927.525	11958
927.631	12049
927.737	11889
927.843	11870
927.95	11752
928.056	11805
928.162	11790
928.267	11817
928.373	12509
928.479	11889
928.585	11646
928.69	11882
928.796	11745
928.901	11619
929.007	11623
929.112	11745
929.218	11570
929.323	11516
929.428	11589
929.533	11726
929.638	11429
929.743	11512
929.848	11581
929.953	11486
930.058	11402
930.163	11204
930.267	11269
930.372	11444
930.477	11151
930.581	11505
930.685	11307
930.79	11140
930.894	11170
930.998	11121
931.103	11315
931.207	10949
931.311	10820
931.415	10759
931.519	10542
931.623	10558
