Data from test_V78500241_148.txt Node
Date: Fri Mar 25 15:10:53 CST 2022
User: usil
Spectrometer: V785-0024
Trigger mode: 0
Integration Time (sec): 4.000000E-1
Scans to average: 1
Nonlinearity correction enabled: false
Boxcar width: 0
Storing dark spectrum: false
XAxis mode: Wavelengths
Number of Pixels in Spectrum: 1024
>>>>>Begin Spectral Data<<<<<
801.071	28090
801.214	28070
801.356	27789
801.499	27869
801.641	27671
801.783	27572
801.926	27564
802.068	27500
802.211	27416
802.353	27454
802.496	27245
802.638	27249
802.78	27146
802.923	27188
803.065	27161
803.208	27154
803.35	27119
803.492	27176
803.635	27386
803.777	27272
803.919	27325
804.061	27519
804.204	27207
804.346	27195
804.488	27028
804.63	27256
804.773	27142
804.915	27218
805.057	27294
805.199	27351
805.341	27146
805.483	27306
805.626	27260
805.768	27245
805.91	27389
806.052	27397
806.194	27298
806.336	27408
806.478	27317
806.62	27405
806.762	27466
806.904	27538
807.046	27762
807.188	27671
807.33	27614
807.472	27751
807.614	27675
807.756	27481
807.898	27374
808.04	27618
808.182	27450
808.324	27511
808.465	27496
808.607	27660
808.749	27804
808.891	27979
809.033	28044
809.174	27880
809.316	27895
809.458	27755
809.6	27698
809.741	27880
809.883	27827
810.025	28059
810.166	28025
810.308	28135
810.45	27960
810.591	27873
810.733	27816
810.875	27766
811.016	27759
811.158	27739
811.299	27819
811.441	27922
811.582	27861
811.724	27869
811.865	27736
812.007	27686
812.148	27705
812.29	27751
812.431	27926
812.573	28105
812.714	28207
812.855	28173
812.997	28295
813.138	28447
813.279	28367
813.421	28211
813.562	28192
813.703	28177
813.845	27994
813.986	27739
814.127	27523
814.268	27477
814.41	27363
814.551	27492
814.692	27431
814.833	27393
814.974	27408
815.115	27363
815.256	27291
815.397	27195
815.539	27211
815.68	27096
815.821	27104
815.962	27154
816.103	27176
816.244	27032
816.385	26933
816.526	26925
816.666	26667
816.807	26480
816.948	26674
817.089	26735
817.23	26705
817.371	26556
817.512	26518
817.653	26590
817.793	26499
817.934	26419
818.075	26480
818.216	26453
818.356	26347
818.497	26343
818.638	26100
818.778	26294
818.919	26320
819.06	26248
819.2	26324
819.341	26518
819.481	26370
819.622	26541
819.762	26727
819.903	26731
820.043	26686
820.184	26636
820.324	26541
820.465	26541
820.605	26545
820.746	26590
820.886	26393
821.026	26598
821.167	26351
821.307	26537
821.447	26495
821.588	26351
821.728	26199
821.868	26100
822.008	26005
822.149	25833
822.289	25890
822.429	25655
822.569	25521
822.709	25548
822.849	25510
822.99	25419
823.13	25316
823.27	25213
823.41	25232
823.55	25084
823.69	25122
823.83	25221
823.97	25152
824.11	24981
824.25	24901
824.389	24958
824.529	25080
824.669	25023
824.809	25091
824.949	24932
825.089	25012
825.228	24958
825.368	24875
825.508	24726
825.648	24863
825.787	24768
825.927	24882
826.067	24604
826.206	24745
826.346	24753
826.485	24779
826.625	24715
826.765	24943
826.904	24821
827.044	24521
827.183	24521
827.323	24384
827.462	24448
827.601	24467
827.741	24330
827.88	24551
828.02	24399
828.159	24346
828.298	24346
828.437	24372
828.577	24414
828.716	24437
828.855	24509
828.994	24144
829.134	24091
829.273	24201
829.412	24098
829.551	23939
829.69	24041
829.829	24216
829.968	24194
830.107	24209
830.246	24064
830.385	23973
830.524	23996
830.663	23961
830.802	23794
830.941	23699
831.08	23665
831.219	23737
831.357	23695
831.496	23840
831.635	23604
831.774	23710
831.913	23562
832.051	23490
832.19	23573
832.329	23512
832.467	23284
832.606	23181
832.744	23296
832.883	23269
833.022	23398
833.16	23303
833.299	23303
833.437	23284
833.576	23402
833.714	23395
833.852	23474
833.991	23436
834.129	23505
834.267	23326
834.406	23410
834.544	23349
834.682	23471
834.821	23326
834.959	23486
835.097	23277
835.235	23341
835.373	23398
835.511	23239
835.65	23083
835.788	23189
835.926	23174
836.064	22934
836.202	23151
836.34	23280
836.478	23311
836.615	23166
836.753	23166
836.891	23242
837.029	23311
837.167	23029
837.305	23067
837.443	23117
837.58	22968
837.718	22961
837.856	23083
837.993	22949
838.131	23056
838.269	22877
838.406	22984
838.544	22668
838.681	22668
838.819	22611
838.956	22577
839.094	22417
839.231	22440
839.369	22569
839.506	22801
839.643	22637
839.781	22367
839.918	22440
840.055	22436
840.193	22535
840.33	22284
840.467	22356
840.604	22402
840.742	22478
840.879	22230
841.016	22291
841.153	22223
841.29	22428
841.427	22428
841.564	22303
841.701	22322
841.838	22306
841.975	22139
842.112	22265
842.249	22109
842.385	22105
842.522	22272
842.659	22135
842.796	22124
842.933	22093
843.069	22013
843.206	22074
843.343	22109
843.479	22029
843.616	22059
843.752	21888
843.889	21865
844.025	22021
844.162	21865
844.298	22017
844.435	21873
844.571	21770
844.708	21698
844.844	21960
844.98	21922
845.117	21793
845.253	21739
845.389	21778
845.525	21694
845.661	21572
845.798	21504
845.934	21542
846.07	21492
846.206	21614
846.342	21766
846.478	21458
846.614	21359
846.75	21192
846.886	21325
847.022	21287
847.158	21184
847.294	21203
847.429	21218
847.565	21294
847.701	21496
847.837	21013
847.972	20975
848.108	21146
848.244	21077
848.379	20887
848.515	20826
848.65	20777
848.786	20883
848.921	20861
849.057	20842
849.192	20857
849.328	20872
849.463	20819
849.598	20849
849.734	20697
849.869	20712
850.004	20682
850.14	20648
850.275	20731
850.41	20488
850.545	20469
850.68	20419
850.815	20594
850.95	20545
851.085	20720
851.22	20651
851.355	20549
851.49	20533
851.625	20530
851.76	20705
851.895	20267
852.03	20556
852.165	20465
852.299	20549
852.434	20609
852.569	20579
852.703	20446
852.838	20640
852.973	20697
853.107	20693
853.242	20495
853.376	20473
853.511	20282
853.645	20305
853.78	20492
853.914	20434
854.048	20298
854.183	20377
854.317	20389
854.451	20522
854.585	20358
854.72	20240
854.854	20366
854.988	20400
855.122	20434
855.256	20267
855.39	20244
855.524	20434
855.658	20313
855.792	20408
855.926	20415
856.06	20355
856.194	20514
856.327	20404
856.461	20134
856.595	20298
856.729	20400
856.862	20370
856.996	20465
857.13	20438
857.263	20396
857.397	20393
857.53	20259
857.664	20377
857.797	20412
857.931	20461
858.064	20339
858.197	20412
858.331	20396
858.464	20298
858.597	20221
858.731	20377
858.864	20336
858.997	20240
859.13	20294
859.263	20362
859.396	20324
859.529	20343
859.662	20218
859.795	20237
859.928	20332
860.061	20545
860.194	20454
860.327	20313
860.46	20237
860.592	20370
860.725	20469
860.858	20374
860.99	20358
861.123	20100
861.256	20275
861.388	20476
861.521	20998
861.653	20259
861.786	20084
861.918	20290
862.05	20309
862.183	20286
862.315	20336
862.447	20412
862.58	20275
862.712	20134
862.844	20046
862.976	20168
863.108	20077
863.24	20404
863.372	19887
863.504	20088
863.636	20081
863.768	20122
863.9	20065
864.032	19932
864.164	19974
864.296	19970
864.428	20050
864.559	20001
864.691	20161
864.823	20119
864.954	19986
865.086	20005
865.217	19928
865.349	19871
865.48	19921
865.612	19864
865.743	20138
865.875	19921
866.006	19947
866.137	19917
866.269	19826
866.4	19936
866.531	19868
866.662	19833
866.793	19864
866.924	19917
867.055	19864
867.186	19830
867.317	19814
867.448	19788
867.579	19799
867.71	19765
867.841	19757
867.972	19822
868.103	19791
868.233	19822
868.364	19860
868.495	19986
868.625	20081
868.756	20202
868.886	19932
869.017	20138
869.147	20138
869.278	20191
869.408	20046
869.539	20157
869.669	20073
869.799	20100
869.929	20138
870.06	20233
870.19	20469
870.32	20317
870.45	20343
870.58	20560
870.71	20644
870.84	20571
870.97	20476
871.1	20473
871.23	20674
871.36	20659
871.489	20594
871.619	20609
871.749	20629
871.879	20708
872.008	20754
872.138	20746
872.267	20590
872.397	20602
872.526	20495
872.656	20492
872.785	20469
872.915	20712
873.044	20769
873.173	20689
873.303	20686
873.432	20754
873.561	20853
873.69	20705
873.819	20754
873.948	20762
874.077	20708
874.206	20670
874.335	20727
874.464	20857
874.593	20910
874.722	20887
874.851	21009
874.979	20914
875.108	20956
875.237	20842
875.365	20815
875.494	20921
875.623	20944
875.751	20986
875.88	21039
876.008	21154
876.136	21230
876.265	21351
876.393	21504
876.521	21401
876.65	21386
876.778	21359
876.906	21211
877.034	21321
877.162	21264
877.29	21279
877.418	21291
877.546	21222
877.674	21245
877.802	21332
877.93	21272
878.058	21214
878.185	21218
878.313	21393
878.441	21241
878.568	21123
878.696	21195
878.824	21351
878.951	21538
879.079	21458
879.206	21644
879.333	21450
879.461	21386
879.588	21344
879.715	21625
879.842	21614
879.97	21439
880.097	21184
880.224	21058
880.351	21085
880.478	21142
880.605	21123
880.732	21184
880.859	21332
880.986	21195
881.112	21039
881.239	21146
881.366	20788
881.493	20823
881.619	20716
881.746	20765
881.872	20727
881.999	20743
882.125	20598
882.252	20796
882.378	20739
882.505	20823
882.631	20636
882.757	20526
882.883	20568
883.01	20396
883.136	20541
883.262	20233
883.388	20324
883.514	20377
883.64	20579
883.766	20454
883.892	20290
884.018	20278
884.143	20530
884.269	20571
884.395	20275
884.52	20084
884.646	20092
884.772	20081
884.897	20005
885.023	20183
885.148	20142
885.274	20305
885.399	20161
885.524	20069
885.65	20187
885.775	20161
885.9	20043
886.025	20138
886.15	20282
886.275	19993
886.4	19974
886.525	20115
886.65	20001
886.775	20024
886.9	20210
887.025	20195
887.149	20050
887.274	19887
887.399	19845
887.523	19894
887.648	19799
887.773	19731
887.897	19887
888.021	19917
888.146	19689
888.27	20077
888.395	19967
888.519	19887
888.643	19879
888.767	19879
888.891	19742
889.015	19643
889.139	19635
889.263	19548
889.387	19788
889.511	19936
889.635	19750
889.759	19548
889.883	19563
890.006	19685
890.13	19769
890.254	19712
890.377	19514
890.501	19384
890.624	19362
890.748	19419
890.871	19324
890.995	19209
891.118	19240
891.241	19285
891.364	19228
891.488	19365
891.611	19148
891.734	19209
891.857	19304
891.98	19293
892.103	19194
892.226	19301
892.349	19160
892.471	19183
892.594	19091
892.717	19141
892.839	19103
892.962	19122
893.085	19304
893.207	19137
893.33	19080
893.452	19034
893.575	19187
893.697	19190
893.819	19316
893.941	19316
894.064	19343
894.186	19084
894.308	19171
894.43	19198
894.552	19293
894.674	19190
894.796	19015
894.918	19232
895.04	19057
895.161	19312
895.283	19190
895.405	19129
895.526	19175
895.648	19091
895.769	19274
895.891	19209
896.012	19346
896.134	19213
896.255	19282
896.376	19259
896.498	19202
896.619	19255
896.74	19175
896.861	19308
896.982	19613
897.103	19609
897.224	19578
897.345	19430
897.466	19251
897.587	19369
897.708	19506
897.828	19415
897.949	19476
898.07	19304
898.19	19400
898.311	19445
898.431	19236
898.552	19457
898.672	19457
898.792	19457
898.913	19377
899.033	19327
899.153	19148
899.273	19057
899.393	19141
899.513	19247
899.633	19263
899.753	19228
899.873	19072
899.993	19118
900.113	19080
900.232	19072
900.352	19061
900.472	19038
900.591	18996
900.711	18924
900.83	19080
900.95	19042
901.069	19084
901.189	18920
901.308	18631
901.427	18479
901.546	18551
901.665	18623
901.784	18551
901.904	18407
902.023	18361
902.141	18140
902.26	18102
902.379	18182
902.498	18125
902.617	18041
902.735	17977
902.854	18007
902.973	17980
903.091	17783
903.21	17684
903.328	17691
903.446	17596
903.565	17509
903.683	17627
903.801	17383
903.919	17440
904.038	17573
904.156	17322
904.274	17387
904.392	17265
904.51	17242
904.627	17261
904.745	17395
904.863	17341
904.981	17136
905.098	17060
905.216	16965
905.334	16961
905.451	16911
905.569	16972
905.686	16953
905.803	17109
905.921	16664
906.038	16934
906.155	16778
906.272	16664
906.389	16649
906.506	16554
906.623	16504
906.74	16512
906.857	16390
906.974	16432
907.091	16603
907.208	16607
907.324	16584
907.441	16386
907.557	16280
907.674	16215
907.79	16177
907.907	16200
908.023	16097
908.139	16303
908.256	16101
908.372	16131
908.488	16055
908.604	15987
908.72	15861
908.836	15960
908.952	15960
909.068	15934
909.184	16097
909.3	15979
909.415	16040
909.531	15892
909.647	15652
909.762	15561
909.878	15599
909.993	15603
910.108	15663
910.224	15648
910.339	15656
910.454	15492
910.57	15401
910.685	15302
910.8	15591
910.915	15576
911.03	15511
911.145	15157
911.259	15313
911.374	15203
911.489	15192
911.604	15100
911.718	14990
911.833	15009
911.947	14861
912.062	14693
912.176	14906
912.291	14895
912.405	14956
912.519	15169
912.633	15154
912.748	15036
912.862	14998
912.976	14735
913.09	14693
913.204	14716
913.318	14697
913.431	14792
913.545	14834
913.659	14864
913.772	14720
913.886	14606
914	14636
914.113	14670
914.226	14708
914.34	14632
914.453	14503
914.566	14610
914.68	14564
914.793	14537
914.906	14294
915.019	14294
915.132	14225
915.245	14180
915.358	14290
915.47	14183
915.583	14305
915.696	14275
915.809	14408
915.921	14374
916.034	14218
916.146	14191
916.259	14157
916.371	14199
916.483	14263
916.595	14092
916.708	14199
916.82	14092
916.932	14012
917.044	14115
917.156	13974
917.268	13944
917.38	13955
917.491	13921
917.603	13879
917.715	14164
917.826	13993
917.938	13811
918.049	13788
918.161	13925
918.272	14008
918.384	14043
918.495	13849
918.606	13734
918.717	13590
918.828	13731
918.939	13712
919.05	13613
919.161	13613
919.272	13468
919.383	13567
919.494	13746
919.604	13856
919.715	13662
919.826	13472
919.936	13578
920.047	13727
920.157	13689
920.267	13830
920.378	13643
920.488	13567
920.598	13833
920.708	13986
920.818	13719
920.928	13803
921.038	13902
921.148	13887
921.258	13544
921.368	13597
921.477	13403
921.587	13422
921.697	13240
921.806	13297
921.916	13259
922.025	13133
922.134	12985
922.244	13057
922.353	13114
922.462	12901
922.571	12833
922.68	12768
922.789	12719
922.898	12734
923.007	12669
923.116	12764
923.224	12715
923.333	12662
923.442	12547
923.55	12467
923.659	12448
923.767	12631
923.876	12433
923.984	12604
924.092	12448
924.201	12498
924.309	12502
924.417	12559
924.525	12418
924.633	12384
924.741	13175
924.849	12186
924.956	12327
925.064	12159
925.172	12140
925.279	12079
925.387	12228
925.494	12140
925.602	12311
925.709	12262
925.816	12079
925.924	12045
926.031	12292
926.138	12060
926.245	12201
926.352	11996
926.459	12155
926.566	12083
926.673	12072
926.779	11946
926.886	11912
926.993	11775
927.099	11821
927.206	11699
927.312	11653
927.419	11821
927.525	11802
927.631	11764
927.737	11665
927.843	11577
927.95	11455
928.056	11516
928.162	11630
928.267	11577
928.373	12110
928.479	11680
928.585	11444
928.69	11516
928.796	11581
928.901	11501
929.007	11326
929.112	11322
929.218	11440
929.323	11360
929.428	11330
929.533	11436
929.638	11242
929.743	11250
929.848	11307
929.953	11265
930.058	11201
930.163	10976
930.267	11018
930.372	11201
930.477	10995
930.581	11140
930.685	11113
930.79	10869
930.894	10999
930.998	10915
931.103	11071
931.207	10660
931.311	10649
931.415	10504
931.519	10409
931.623	10249
