Data from test_V78500241_2529.txt Node
Date: Fri Mar 25 15:27:28 CST 2022
User: usil
Spectrometer: V785-0024
Trigger mode: 0
Integration Time (sec): 4.000000E-1
Scans to average: 1
Nonlinearity correction enabled: false
Boxcar width: 0
Storing dark spectrum: false
XAxis mode: Wavelengths
Number of Pixels in Spectrum: 1024
>>>>>Begin Spectral Data<<<<<
801.071	27211
801.214	27066
801.356	26842
801.499	26815
801.641	26724
801.783	26526
801.926	26697
802.068	26655
802.211	26537
802.353	26636
802.496	26328
802.638	26248
802.78	26275
802.923	26328
803.065	26191
803.208	26202
803.35	26278
803.492	26362
803.635	26499
803.777	26275
803.919	26469
804.061	26804
804.204	26640
804.346	26461
804.488	26377
804.63	26370
804.773	26419
804.915	26317
805.057	26511
805.199	26396
805.341	26434
805.483	26492
805.626	26716
805.768	26317
805.91	26533
806.052	26625
806.194	26533
806.336	26659
806.478	26625
806.62	26746
806.762	26674
806.904	26800
807.046	27142
807.188	26994
807.33	27009
807.472	27020
807.614	26804
807.756	26804
807.898	26811
808.04	26750
808.182	26823
808.324	26925
808.465	26868
808.607	27096
808.749	27188
808.891	27317
809.033	27272
809.174	27332
809.316	27146
809.458	27207
809.6	27108
809.741	27272
809.883	27218
810.025	27492
810.166	27462
810.308	27462
810.45	27416
810.591	27344
810.733	27165
810.875	27226
811.016	26971
811.158	27062
811.299	27264
811.441	27332
811.582	27306
811.724	27173
811.865	27173
812.007	27116
812.148	27062
812.29	27089
812.431	27420
812.573	27382
812.714	27519
812.855	27660
812.997	27705
813.138	27812
813.279	27701
813.421	27717
813.562	27492
813.703	27249
813.845	27389
813.986	27020
814.127	26906
814.268	26754
814.41	26811
814.551	26826
814.692	26891
814.833	26674
814.974	26773
815.115	26864
815.256	26705
815.397	26819
815.539	26579
815.68	26590
815.821	26541
815.962	26556
816.103	26594
816.244	26351
816.385	26320
816.526	26271
816.666	26122
816.807	26084
816.948	26065
817.089	26157
817.23	26248
817.371	26024
817.512	25986
817.653	25989
817.793	25997
817.934	25951
818.075	26069
818.216	26001
818.356	26050
818.497	25993
818.638	25685
818.778	25761
818.919	25909
819.06	25845
819.2	25856
819.341	26073
819.481	26031
819.622	26122
819.762	26461
819.903	26157
820.043	26187
820.184	26290
820.324	26008
820.465	26263
820.605	26191
820.746	26157
820.886	26096
821.026	26122
821.167	26058
821.307	26126
821.447	26039
821.588	26134
821.728	25928
821.868	25681
822.008	25635
822.149	25605
822.289	25609
822.429	25377
822.569	25251
822.709	25171
822.849	24947
822.99	25015
823.13	25004
823.27	25012
823.41	24878
823.55	24772
823.69	24779
823.83	24776
823.97	24776
824.11	24658
824.25	24661
824.389	24639
824.529	24802
824.669	24696
824.809	24753
824.949	24787
825.089	24760
825.228	24779
825.368	24582
825.508	24437
825.648	24517
825.787	24646
825.927	24623
826.067	24570
826.206	24563
826.346	24608
826.485	24654
826.625	24479
826.765	24696
826.904	24604
827.044	24308
827.183	24232
827.323	24262
827.462	24365
827.601	24262
827.741	24323
827.88	24281
828.02	24194
828.159	24220
828.298	24243
828.437	24395
828.577	24095
828.716	24369
828.855	24311
828.994	24038
829.134	23977
829.273	23969
829.412	23977
829.551	23954
829.69	24022
829.829	24045
829.968	24098
830.107	23961
830.246	23992
830.385	23904
830.524	23817
830.663	23802
830.802	23741
830.941	23661
831.08	23581
831.219	23733
831.357	23665
831.496	23813
831.635	23627
831.774	23634
831.913	23756
832.051	23303
832.19	23356
832.329	23497
832.467	23318
832.606	23197
832.744	23132
832.883	23307
833.022	23220
833.16	23239
833.299	23337
833.437	23307
833.576	23376
833.714	23364
833.852	23497
833.991	23356
834.129	23505
834.267	23410
834.406	23254
834.544	23315
834.682	23337
834.821	23463
834.959	23391
835.097	23162
835.235	23417
835.373	23246
835.511	23136
835.65	23277
835.788	23292
835.926	22972
836.064	22934
836.202	23079
836.34	23235
836.478	23379
836.615	23208
836.753	23200
836.891	23261
837.029	23265
837.167	23208
837.305	23090
837.443	23033
837.58	22991
837.718	23132
837.856	23075
837.993	22915
838.131	22938
838.269	22946
838.406	23018
838.544	22908
838.681	22687
838.819	22694
838.956	22527
839.094	22546
839.231	22668
839.369	22744
839.506	22934
839.643	22759
839.781	22523
839.918	22535
840.055	22474
840.193	22447
840.33	22306
840.467	22447
840.604	22436
840.742	22778
840.879	22352
841.016	22398
841.153	22276
841.29	22577
841.427	22424
841.564	22512
841.701	22500
841.838	22417
841.975	22318
842.112	22531
842.249	22394
842.385	22280
842.522	22531
842.659	22284
842.796	22181
842.933	22154
843.069	22284
843.206	22070
843.343	22413
843.479	22223
843.616	22253
843.752	22067
843.889	22032
844.025	22131
844.162	21987
844.298	22044
844.435	22070
844.571	22025
844.708	21907
844.844	22246
844.98	22143
845.117	22010
845.253	21941
845.389	21903
845.525	22036
845.661	21774
845.798	21690
845.934	21720
846.07	21671
846.206	21804
846.342	21747
846.478	21724
846.614	21477
846.75	21523
846.886	21477
847.022	21614
847.158	21488
847.294	21397
847.429	21496
847.565	21477
847.701	21667
847.837	21241
847.972	21157
848.108	21241
848.244	21367
848.379	21157
848.515	21028
848.65	21051
848.786	21173
848.921	21013
849.057	21207
849.192	21119
849.328	21089
849.463	21119
849.598	21017
849.734	21036
849.869	20952
850.004	20895
850.14	20895
850.275	20868
850.41	20845
850.545	20811
850.68	20746
850.815	20823
850.95	20796
851.085	20998
851.22	20902
851.355	20872
851.49	20750
851.625	20796
851.76	20872
851.895	20758
852.03	20754
852.165	20857
852.299	20823
852.434	20807
852.569	20864
852.703	20895
852.838	20918
852.973	21005
853.107	20979
853.242	20785
853.376	20689
853.511	20629
853.645	20678
853.78	20899
853.914	20716
854.048	20674
854.183	20507
854.317	20720
854.451	20804
854.585	20743
854.72	20731
854.854	20773
854.988	20590
855.122	20712
855.256	20617
855.39	20746
855.524	20655
855.658	20655
855.792	20720
855.926	20750
856.06	20720
856.194	20834
856.327	20678
856.461	20697
856.595	20552
856.729	20571
856.862	20731
856.996	20625
857.13	20731
857.263	20792
857.397	20811
857.53	20632
857.664	20686
857.797	20632
857.931	20781
858.064	20632
858.197	20785
858.331	20735
858.464	20602
858.597	20571
858.731	20746
858.864	20655
858.997	20571
859.13	20743
859.263	20575
859.396	20693
859.529	20541
859.662	20549
859.795	20568
859.928	20769
860.061	20826
860.194	20883
860.327	20663
860.46	20701
860.592	20769
860.725	20823
860.858	20887
860.99	20708
861.123	20617
861.256	20575
861.388	20636
861.521	21519
861.653	20423
861.786	20438
861.918	20450
862.05	20579
862.183	20640
862.315	20636
862.447	20697
862.58	20587
862.712	20298
862.844	20332
862.976	20495
863.108	20442
863.24	20887
863.372	20305
863.504	20317
863.636	20278
863.768	20351
863.9	20275
864.032	20343
864.164	20408
864.296	20389
864.428	20362
864.559	20442
864.691	20438
864.823	20469
864.954	20374
865.086	20423
865.217	20218
865.349	20138
865.48	20351
865.612	20313
865.743	20324
865.875	20336
866.006	20377
866.137	20351
866.269	20355
866.4	20415
866.531	20290
866.662	20187
866.793	20210
866.924	20229
867.055	20301
867.186	20233
867.317	20290
867.448	20119
867.579	20191
867.71	20172
867.841	20145
867.972	20324
868.103	20347
868.233	20294
868.364	20252
868.495	20309
868.625	20377
868.756	20556
868.886	20347
869.017	20476
869.147	20575
869.278	20609
869.408	20571
869.539	20484
869.669	20503
869.799	20499
869.929	20609
870.06	20484
870.19	20712
870.32	20769
870.45	20815
870.58	20876
870.71	21001
870.84	20986
870.97	20868
871.1	20868
871.23	20986
871.36	21222
871.489	21055
871.619	20971
871.749	20982
871.879	21165
872.008	21146
872.138	21169
872.267	21043
872.397	21036
872.526	21001
872.656	20921
872.785	20941
872.915	21127
873.044	21180
873.173	21096
873.303	21176
873.432	21085
873.561	21226
873.69	21081
873.819	21096
873.948	21287
874.077	21024
874.206	21066
874.335	21062
874.464	21150
874.593	21401
874.722	21272
874.851	21329
874.979	21264
875.108	21397
875.237	21313
875.365	21249
875.494	21336
875.623	21420
875.751	21272
875.88	21382
876.008	21485
876.136	21530
876.265	21728
876.393	21895
876.521	21838
876.65	21743
876.778	21660
876.906	21705
877.034	21599
877.162	21599
877.29	21633
877.418	21899
877.546	21743
877.674	21614
877.802	21606
877.93	21599
878.058	21804
878.185	21682
878.313	21580
878.441	21743
878.568	21534
878.696	21629
878.824	21778
878.951	21751
879.079	21751
879.206	21945
879.333	21850
879.461	21694
879.588	21793
879.715	21812
879.842	21960
879.97	21778
880.097	21500
880.224	21485
880.351	21473
880.478	21618
880.605	21519
880.732	21428
880.859	21812
880.986	21549
881.112	21530
881.239	21386
881.366	21260
881.493	21214
881.619	21081
881.746	21123
881.872	21127
881.999	21093
882.125	21085
882.252	21039
882.378	21013
882.505	21123
882.631	20975
882.757	20914
882.883	20826
883.01	20990
883.136	20785
883.262	20701
883.388	20724
883.514	20845
883.64	20819
883.766	20705
883.892	20499
884.018	20667
884.143	20659
884.269	20891
884.395	20606
884.52	20454
884.646	20476
884.772	20412
884.897	20427
885.023	20377
885.148	20583
885.274	20522
885.399	20571
885.524	20423
885.65	20602
885.775	20556
885.9	20446
886.025	20484
886.15	20575
886.275	20351
886.4	20328
886.525	20434
886.65	20347
886.775	20381
886.9	20621
887.025	20682
887.149	20408
887.274	20145
887.399	20248
887.523	20259
887.648	20191
887.773	20134
887.897	20400
888.021	20183
888.146	20172
888.27	20294
888.395	20393
888.519	20210
888.643	20168
888.767	20286
888.891	20233
889.015	20062
889.139	20081
889.263	19997
889.387	20142
889.511	20180
889.635	20115
889.759	20012
889.883	20008
890.006	19894
890.13	19997
890.254	19807
890.377	19925
890.501	19845
890.624	19776
890.748	19845
890.871	19788
890.995	19628
891.118	19601
891.241	19537
891.364	19582
891.488	19658
891.611	19674
891.734	19624
891.857	19639
891.98	19632
892.103	19689
892.226	19601
892.349	19624
892.471	19487
892.594	19533
892.717	19537
892.839	19441
892.962	19620
893.085	19582
893.207	19464
893.33	19480
893.452	19575
893.575	19556
893.697	19407
893.819	19685
893.941	19719
894.064	19712
894.186	19552
894.308	19434
894.43	19666
894.552	19666
894.674	19753
894.796	19480
894.918	19521
895.04	19499
895.161	19571
895.283	19616
895.405	19495
895.526	19430
895.648	19537
895.769	19582
895.891	19643
896.012	19605
896.134	19693
896.255	19597
896.376	19567
896.498	19635
896.619	19567
896.74	19605
896.861	19666
896.982	19967
897.103	20020
897.224	19845
897.345	19852
897.466	19864
897.587	19780
897.708	20062
897.828	19746
897.949	19772
898.07	19613
898.19	19765
898.311	19852
898.431	19715
898.552	19738
898.672	19902
898.792	19921
898.913	19875
899.033	19662
899.153	19582
899.273	19453
899.393	19575
899.513	19518
899.633	19407
899.753	19548
899.873	19597
899.993	19548
900.113	19537
900.232	19502
900.352	19529
900.472	19369
900.591	19270
900.711	19434
900.83	19270
900.95	19343
901.069	19327
901.189	19209
901.308	19008
901.427	18996
901.546	18954
901.665	18920
901.784	18920
901.904	18848
902.023	18734
902.141	18448
902.26	18540
902.379	18517
902.498	18445
902.617	18593
902.735	18429
902.854	18346
902.973	18429
903.091	18125
903.21	18106
903.328	18117
903.446	18079
903.565	17923
903.683	17935
903.801	17912
903.919	17847
904.038	17855
904.156	17771
904.274	17790
904.392	17623
904.51	17699
904.627	17615
904.745	17726
904.863	17748
904.981	17448
905.098	17376
905.216	17387
905.334	17391
905.451	17318
905.569	17261
905.686	17360
905.803	17471
905.921	17170
906.038	17288
906.155	17155
906.272	17033
906.389	17056
906.506	16911
906.623	16930
906.74	16953
906.857	16828
906.974	16847
907.091	16976
907.208	17041
907.324	16965
907.441	16896
907.557	16645
907.674	16694
907.79	16489
907.907	16504
908.023	16618
908.139	16660
908.256	16618
908.372	16580
908.488	16558
908.604	16447
908.72	16379
908.836	16344
908.952	16276
909.068	16375
909.184	16569
909.3	16306
909.415	16428
909.531	16481
909.647	16284
909.762	16131
909.878	16048
909.993	16139
910.108	16074
910.224	16055
910.339	16029
910.454	15956
910.57	15945
910.685	15861
910.8	16051
910.915	15907
911.03	15865
911.145	15747
911.259	15698
911.374	15732
911.489	15644
911.604	15606
911.718	15405
911.833	15526
911.947	15405
912.062	15454
912.176	15435
912.291	15561
912.405	15511
912.519	15736
912.633	15629
912.748	15466
912.862	15447
912.976	15294
913.09	15161
913.204	15268
913.318	15359
913.431	15336
913.545	15340
913.659	15389
913.772	15214
913.886	15043
914	15051
914.113	15020
914.226	15100
914.34	15032
914.453	14944
914.566	15116
914.68	15001
914.793	14921
914.906	14792
915.019	14682
915.132	14693
915.245	14727
915.358	14613
915.47	14686
915.583	14610
915.696	14610
915.809	14807
915.921	14754
916.034	14629
916.146	14571
916.259	14598
916.371	14670
916.483	14640
916.595	14541
916.708	14473
916.82	14568
916.932	14537
917.044	14469
917.156	14507
917.268	14419
917.38	14286
917.491	14267
917.603	14358
917.715	14393
917.826	14438
917.938	14328
918.049	14130
918.161	14252
918.272	14423
918.384	14381
918.495	14313
918.606	14130
918.717	14065
918.828	14115
918.939	14103
919.05	13989
919.161	14111
919.272	13932
919.383	13974
919.494	14237
919.604	14358
919.715	14149
919.826	14062
919.936	14134
920.047	14164
920.157	14138
920.267	14347
920.378	14142
920.488	14138
920.598	14286
920.708	14419
920.818	14233
920.928	14214
921.038	14294
921.148	14370
921.258	14020
921.368	13894
921.477	13841
921.587	13845
921.697	13643
921.806	13845
921.916	13727
922.025	13499
922.134	13483
922.244	13392
922.353	13529
922.462	13365
922.571	13285
922.68	13179
922.789	13247
922.898	13145
923.007	13114
923.116	13160
923.224	13107
923.333	13084
923.442	13034
923.55	12989
923.659	12996
923.767	13038
923.876	12947
923.984	12989
924.092	12878
924.201	12932
924.309	12935
924.417	12852
924.525	12837
924.633	12745
924.741	13772
924.849	12658
924.956	12749
925.064	12650
925.172	12544
925.279	12536
925.387	12642
925.494	12513
925.602	12741
925.709	12597
925.816	12494
925.924	12604
926.031	12616
926.138	12521
926.245	12559
926.352	12494
926.459	12483
926.566	12540
926.673	12422
926.779	12407
926.886	12372
926.993	12232
927.099	12159
927.206	12140
927.312	12125
927.419	12197
927.525	12140
927.631	12167
927.737	12083
927.843	11992
927.95	11817
928.056	11965
928.162	12117
928.267	11961
928.373	12540
928.479	12095
928.585	11851
928.69	11950
928.796	11954
928.901	11847
929.007	11710
929.112	11824
929.218	11783
929.323	11783
929.428	11752
929.533	11859
929.638	11684
929.743	11688
929.848	11741
929.953	11665
930.058	11547
930.163	11383
930.267	11414
930.372	11535
930.477	11391
930.581	11600
930.685	11448
930.79	11360
930.894	11292
930.998	11322
931.103	11467
931.207	11060
931.311	11041
931.415	10915
931.519	10717
931.623	10774
