Data from test_V78500241_3295.txt Node
Date: Fri Mar 25 15:32:48 CST 2022
User: usil
Spectrometer: V785-0024
Trigger mode: 0
Integration Time (sec): 4.000000E-1
Scans to average: 1
Nonlinearity correction enabled: false
Boxcar width: 0
Storing dark spectrum: false
XAxis mode: Wavelengths
Number of Pixels in Spectrum: 1024
>>>>>Begin Spectral Data<<<<<
801.071	27332
801.214	27279
801.356	27131
801.499	27100
801.641	26804
801.783	26933
801.926	26857
802.068	26788
802.211	26857
802.353	26651
802.496	26533
802.638	26465
802.78	26560
802.923	26499
803.065	26400
803.208	26396
803.35	26579
803.492	26568
803.635	26724
803.777	26526
803.919	26754
804.061	26937
804.204	26632
804.346	26636
804.488	26648
804.63	26564
804.773	26686
804.915	26663
805.057	26765
805.199	26686
805.341	26792
805.483	26914
805.626	26743
805.768	26735
805.91	26887
806.052	26773
806.194	26636
806.336	26807
806.478	26842
806.62	26746
806.762	26838
806.904	26845
807.046	27226
807.188	27283
807.33	27218
807.472	27412
807.614	27100
807.756	27169
807.898	26883
808.04	26921
808.182	26906
808.324	27096
808.465	27154
808.607	27226
808.749	27256
808.891	27511
809.033	27507
809.174	27447
809.316	27378
809.458	27424
809.6	27272
809.741	27633
809.883	27530
810.025	27667
810.166	27610
810.308	27762
810.45	27656
810.591	27614
810.733	27424
810.875	27420
811.016	27275
811.158	27287
811.299	27511
811.441	27644
811.582	27519
811.724	27386
811.865	27363
812.007	27283
812.148	27477
812.29	27374
812.431	27507
812.573	27606
812.714	27728
812.855	27934
812.997	27903
813.138	28139
813.279	28101
813.421	27895
813.562	27736
813.703	27739
813.845	27488
813.986	27313
814.127	27150
814.268	27161
814.41	26998
814.551	26960
814.692	27058
814.833	27184
814.974	27032
815.115	27055
815.256	26914
815.397	26956
815.539	26883
815.68	26868
815.821	26750
815.962	26994
816.103	26739
816.244	26674
816.385	26617
816.526	26579
816.666	26396
816.807	26267
816.948	26404
817.089	26492
817.23	26328
817.371	26267
817.512	26377
817.653	26229
817.793	26172
817.934	26396
818.075	26313
818.216	26324
818.356	26347
818.497	26187
818.638	26111
818.778	26031
818.919	26043
819.06	26164
819.2	26062
819.341	26161
819.481	26328
819.622	26381
819.762	26552
819.903	26549
820.043	26389
820.184	26351
820.324	26393
820.465	26419
820.605	26377
820.746	26377
820.886	26278
821.026	26339
821.167	26324
821.307	26294
821.447	26286
821.588	26252
821.728	26096
821.868	25833
822.008	25791
822.149	25818
822.289	25784
822.429	25594
822.569	25460
822.709	25426
822.849	25171
822.99	25247
823.13	25263
823.27	25152
823.41	25141
823.55	24916
823.69	25141
823.83	25221
823.97	25080
824.11	24932
824.25	24928
824.389	24992
824.529	25038
824.669	24943
824.809	24973
824.949	24951
825.089	24970
825.228	24954
825.368	24798
825.508	24783
825.648	24795
825.787	24817
825.927	24909
826.067	24604
826.206	24726
826.346	24677
826.485	24947
826.625	24795
826.765	24901
826.904	24939
827.044	24608
827.183	24631
827.323	24395
827.462	24612
827.601	24620
827.741	24342
827.88	24456
828.02	24285
828.159	24502
828.298	24521
828.437	24673
828.577	24357
828.716	24528
828.855	24391
828.994	24178
829.134	24216
829.273	24239
829.412	24125
829.551	24167
829.69	24102
829.829	24281
829.968	24296
830.107	24273
830.246	24205
830.385	24239
830.524	24060
830.663	24041
830.802	24053
830.941	23779
831.08	23824
831.219	23828
831.357	23935
831.496	23973
831.635	23859
831.774	23718
831.913	23760
832.051	23535
832.19	23619
832.329	23573
832.467	23311
832.606	23566
832.744	23459
832.883	23459
833.022	23353
833.16	23551
833.299	23623
833.437	23429
833.576	23722
833.714	23452
833.852	23642
833.991	23608
834.129	23558
834.267	23649
834.406	23627
834.544	23638
834.682	23657
834.821	23646
834.959	23752
835.097	23531
835.235	23539
835.373	23444
835.511	23646
835.65	23505
835.788	23497
835.926	23288
836.064	23258
836.202	23273
836.34	23372
836.478	23455
836.615	23322
836.753	23471
836.891	23596
837.029	23356
837.167	23242
837.305	23406
837.443	23330
837.58	23307
837.718	23239
837.856	23258
837.993	23235
838.131	23303
838.269	23071
838.406	23147
838.544	23136
838.681	23083
838.819	22896
838.956	22767
839.094	22812
839.231	22866
839.369	22927
839.506	23220
839.643	23079
839.781	22710
839.918	22782
840.055	22809
840.193	22668
840.33	22557
840.467	22744
840.604	22828
840.742	22976
840.879	22622
841.016	22634
841.153	22615
841.29	22885
841.427	22755
841.564	22660
841.701	22691
841.838	22538
841.975	22504
842.112	22618
842.249	22592
842.385	22588
842.522	22626
842.659	22512
842.796	22344
842.933	22459
843.069	22436
843.206	22344
843.343	22508
843.479	22580
843.616	22322
843.752	22204
843.889	22253
844.025	22356
844.162	22329
844.298	22356
844.435	22226
844.571	22318
844.708	22272
844.844	22295
844.98	22268
845.117	22230
845.253	22158
845.389	22120
845.525	22150
845.661	22067
845.798	21968
845.934	21994
846.07	21945
846.206	21918
846.342	22139
846.478	21998
846.614	21812
846.75	21629
846.886	21663
847.022	21861
847.158	21838
847.294	21625
847.429	21759
847.565	21713
847.701	21907
847.837	21504
847.972	21351
848.108	21458
848.244	21568
848.379	21302
848.515	21233
848.65	21195
848.786	21154
848.921	21279
849.057	21374
849.192	21363
849.328	21241
849.463	21169
849.598	21230
849.734	21157
849.869	21100
850.004	21157
850.14	21108
850.275	21119
850.41	20944
850.545	20960
850.68	20948
850.815	21146
850.95	21070
851.085	21336
851.22	21165
851.355	21116
851.49	21043
851.625	21077
851.76	21131
851.895	20842
852.03	20990
852.165	21093
852.299	21108
852.434	21169
852.569	21127
852.703	21112
852.838	21123
852.973	21207
853.107	21131
853.242	21116
853.376	20899
853.511	20815
853.645	20895
853.78	21055
853.914	20967
854.048	20902
854.183	20838
854.317	20902
854.451	21135
854.585	20762
854.72	20887
854.854	20891
854.988	20743
855.122	20902
855.256	20758
855.39	20857
855.524	20975
855.658	20933
855.792	20921
855.926	21089
856.06	20937
856.194	20952
856.327	20921
856.461	20819
856.595	20849
856.729	20906
856.862	20845
856.996	20826
857.13	20967
857.263	20823
857.397	20956
857.53	20838
857.664	20918
857.797	20956
857.931	21005
858.064	20887
858.197	21024
858.331	20899
858.464	20864
858.597	20830
858.731	20902
858.864	20826
858.997	20937
859.13	20842
859.263	20899
859.396	20948
859.529	20952
859.662	20800
859.795	20853
859.928	20937
860.061	21096
860.194	21070
860.327	20998
860.46	20937
860.592	21020
860.725	21074
860.858	20941
860.99	20929
861.123	20815
861.256	20853
861.388	20861
861.521	21568
861.653	20834
861.786	20674
861.918	20674
862.05	20838
862.183	20819
862.315	20937
862.447	20880
862.58	20750
862.712	20598
862.844	20568
862.976	20746
863.108	20754
863.24	21028
863.372	20514
863.504	20697
863.636	20617
863.768	20724
863.9	20606
864.032	20606
864.164	20492
864.296	20564
864.428	20693
864.559	20629
864.691	20663
864.823	20651
864.954	20689
865.086	20644
865.217	20533
865.349	20511
865.48	20476
865.612	20450
865.743	20545
865.875	20469
866.006	20393
866.137	20583
866.269	20530
866.4	20492
866.531	20431
866.662	20438
866.793	20355
866.924	20366
867.055	20408
867.186	20423
867.317	20389
867.448	20461
867.579	20480
867.71	20419
867.841	20423
867.972	20511
868.103	20427
868.233	20492
868.364	20419
868.495	20537
868.625	20708
868.756	20819
868.886	20549
869.017	20568
869.147	20693
869.278	20826
869.408	20754
869.539	20678
869.669	20716
869.799	20659
869.929	20800
870.06	20857
870.19	21093
870.32	21047
870.45	21077
870.58	21074
870.71	21207
870.84	21321
870.97	21013
871.1	21226
871.23	21241
871.36	21268
871.489	21211
871.619	21203
871.749	21283
871.879	21218
872.008	21458
872.138	21412
872.267	21203
872.397	21195
872.526	21112
872.656	21150
872.785	21085
872.915	21310
873.044	21336
873.173	21298
873.303	21374
873.432	21363
873.561	21424
873.69	21348
873.819	21237
873.948	21359
874.077	21298
874.206	21195
874.335	21218
874.464	21469
874.593	21580
874.722	21477
874.851	21618
874.979	21633
875.108	21625
875.237	21572
875.365	21424
875.494	21485
875.623	21675
875.751	21386
875.88	21549
876.008	21701
876.136	21724
876.265	21854
876.393	22029
876.521	22055
876.65	21983
876.778	21960
876.906	22002
877.034	21922
877.162	22002
877.29	21808
877.418	21842
877.546	21979
877.674	21953
877.802	21888
877.93	21808
878.058	21884
878.185	21755
878.313	21850
878.441	21884
878.568	21789
878.696	21854
878.824	21960
878.951	21998
879.079	22090
879.206	22204
879.333	22131
879.461	21850
879.588	21979
879.715	22135
879.842	22196
879.97	22002
880.097	21762
880.224	21789
880.351	21857
880.478	21679
880.605	21728
880.732	21652
880.859	21994
880.986	21622
881.112	21690
881.239	21572
881.366	21447
881.493	21382
881.619	21344
881.746	21355
881.872	21203
881.999	21135
882.125	21226
882.252	21382
882.378	21359
882.505	21378
882.631	21218
882.757	21089
882.883	21093
883.01	21055
883.136	20876
883.262	20830
883.388	20807
883.514	21020
883.64	21043
883.766	20952
883.892	20769
884.018	20811
884.143	20941
884.269	21085
884.395	20842
884.52	20727
884.646	20602
884.772	20579
884.897	20537
885.023	20754
885.148	20815
885.274	20781
885.399	20853
885.524	20701
885.65	20674
885.775	20697
885.9	20617
886.025	20724
886.15	20845
886.275	20598
886.4	20602
886.525	20560
886.65	20568
886.775	20480
886.9	20849
887.025	20883
887.149	20613
887.274	20503
887.399	20419
887.523	20370
887.648	20457
887.773	20256
887.897	20503
888.021	20469
888.146	20393
888.27	20526
888.395	20598
888.519	20442
888.643	20457
888.767	20514
888.891	20237
889.015	20298
889.139	20218
889.263	20111
889.387	20309
889.511	20484
889.635	20275
889.759	20202
889.883	20161
890.006	20210
890.13	20404
890.254	20058
890.377	19986
890.501	19955
890.624	19967
890.748	20024
890.871	19784
890.995	19772
891.118	19647
891.241	19803
891.364	19822
891.488	20050
891.611	19811
891.734	19963
891.857	19955
891.98	19849
892.103	19837
892.226	19776
892.349	19712
892.471	19563
892.594	19704
892.717	19727
892.839	19666
892.962	19723
893.085	19753
893.207	19696
893.33	19567
893.452	19681
893.575	19761
893.697	19666
893.819	19928
893.941	19947
894.064	19963
894.186	19647
894.308	19719
894.43	19845
894.552	19769
894.674	19822
894.796	19559
894.918	19715
895.04	19674
895.161	19761
895.283	19753
895.405	19651
895.526	19780
895.648	19731
895.769	19696
895.891	19784
896.012	19826
896.134	19811
896.255	19685
896.376	19624
896.498	19746
896.619	19681
896.74	19689
896.861	19712
896.982	20172
897.103	20191
897.224	20050
897.345	19902
897.466	19917
897.587	19951
897.708	20058
897.828	19932
897.949	19921
898.07	19837
898.19	19818
898.311	19955
898.431	19868
898.552	19913
898.672	20012
898.792	20073
898.913	19947
899.033	19814
899.153	19662
899.273	19738
899.393	19769
899.513	19780
899.633	19727
899.753	19719
899.873	19639
899.993	19685
900.113	19571
900.232	19655
900.352	19658
900.472	19529
900.591	19487
900.711	19613
900.83	19540
900.95	19506
901.069	19403
901.189	19343
901.308	19171
901.427	18954
901.546	19118
901.665	19099
901.784	19080
901.904	18943
902.023	18890
902.141	18757
902.26	18620
902.379	18612
902.498	18620
902.617	18547
902.735	18616
902.854	18521
902.973	18460
903.091	18289
903.21	18186
903.328	18369
903.446	18281
903.565	18083
903.683	18076
903.801	18007
903.919	18034
904.038	17992
904.156	17863
904.274	17950
904.392	17863
904.51	17794
904.627	17843
904.745	17904
904.863	17958
904.981	17649
905.098	17379
905.216	17444
905.334	17642
905.451	17516
905.569	17501
905.686	17478
905.803	17501
905.921	17398
906.038	17478
906.155	17273
906.272	17242
906.389	17185
906.506	17010
906.623	17140
906.74	17071
906.857	16946
906.974	16957
907.091	17128
907.208	17162
907.324	16987
907.441	16949
907.557	16786
907.674	16854
907.79	16717
907.907	16767
908.023	16809
908.139	16725
908.256	16729
908.372	16637
908.488	16649
908.604	16538
908.72	16436
908.836	16508
908.952	16466
909.068	16542
909.184	16607
909.3	16459
909.415	16550
909.531	16508
909.647	16314
909.762	16211
909.878	16196
909.993	16150
910.108	16162
910.224	16234
910.339	16173
910.454	16090
910.57	16029
910.685	16032
910.8	16204
910.915	16215
911.03	15945
911.145	15899
911.259	15869
911.374	15861
911.489	15724
911.604	15682
911.718	15656
911.833	15614
911.947	15469
912.062	15466
912.176	15553
912.291	15663
912.405	15564
912.519	15781
912.633	15850
912.748	15698
912.862	15443
912.976	15329
913.09	15359
913.204	15348
913.318	15412
913.431	15466
913.545	15412
913.659	15492
913.772	15260
913.886	15287
914	15195
914.113	15268
914.226	15306
914.34	15256
914.453	15070
914.566	15256
914.68	15036
914.793	15043
914.906	14910
915.019	14868
915.132	14682
915.245	14758
915.358	14914
915.47	14948
915.583	14864
915.696	14743
915.809	14819
915.921	14944
916.034	14720
916.146	14754
916.259	14648
916.371	14777
916.483	14800
916.595	14640
916.708	14613
916.82	14606
916.932	14552
917.044	14640
917.156	14587
917.268	14545
917.38	14518
917.491	14446
917.603	14473
917.715	14484
917.826	14495
917.938	14381
918.049	14339
918.161	14389
918.272	14575
918.384	14434
918.495	14431
918.606	14278
918.717	14157
918.828	14164
918.939	14199
919.05	14202
919.161	14210
919.272	14001
919.383	14107
919.494	14282
919.604	14488
919.715	14210
919.826	14210
919.936	14221
920.047	14248
920.157	14259
920.267	14431
920.378	14210
920.488	14062
920.598	14389
920.708	14511
920.818	14336
920.928	14237
921.038	14457
921.148	14488
921.258	14210
921.368	14069
921.477	13944
921.587	13906
921.697	13784
921.806	13852
921.916	13822
922.025	13597
922.134	13643
922.244	13552
922.353	13582
922.462	13365
922.571	13396
922.68	13297
922.789	13232
922.898	13217
923.007	13202
923.116	13263
923.224	13225
923.333	13171
923.442	13050
923.55	13057
923.659	13114
923.767	13118
923.876	12993
923.984	13053
924.092	12993
924.201	12973
924.309	13038
924.417	12970
924.525	12878
924.633	12909
924.741	13887
924.849	12806
924.956	12882
925.064	12662
925.172	12700
925.279	12608
925.387	12779
925.494	12745
925.602	12844
925.709	12768
925.816	12544
925.924	12601
926.031	12757
926.138	12719
926.245	12658
926.352	12566
926.459	12658
926.566	12700
926.673	12540
926.779	12422
926.886	12445
926.993	12342
927.099	12304
927.206	12235
927.312	12285
927.419	12361
927.525	12190
927.631	12296
927.737	12216
927.843	12140
927.95	12045
928.056	12140
928.162	12125
928.267	12106
928.373	12749
928.479	12194
928.585	11920
928.69	12167
928.796	12003
928.901	11992
929.007	11824
929.112	12003
929.218	12030
929.323	11958
929.428	11870
929.533	12045
929.638	11805
929.743	11847
929.848	11885
929.953	11798
930.058	11676
930.163	11440
930.267	11524
930.372	11714
930.477	11444
930.581	11733
930.685	11634
930.79	11383
930.894	11471
930.998	11349
931.103	11539
931.207	11227
931.311	11178
931.415	11014
931.519	10885
931.623	10858
