Data from test_V78500241_3435.txt Node
Date: Fri Mar 25 15:33:46 CST 2022
User: usil
Spectrometer: V785-0024
Trigger mode: 0
Integration Time (sec): 4.000000E-1
Scans to average: 1
Nonlinearity correction enabled: false
Boxcar width: 0
Storing dark spectrum: false
XAxis mode: Wavelengths
Number of Pixels in Spectrum: 1024
>>>>>Begin Spectral Data<<<<<
801.071	27154
801.214	27138
801.356	26914
801.499	26895
801.641	26659
801.783	26842
801.926	26796
802.068	26693
802.211	26636
802.353	26689
802.496	26465
802.638	26427
802.78	26450
802.923	26442
803.065	26248
803.208	26294
803.35	26313
803.492	26758
803.635	26602
803.777	26499
803.919	26708
804.061	26895
804.204	26594
804.346	26461
804.488	26625
804.63	26492
804.773	26602
804.915	26404
805.057	26602
805.199	26503
805.341	26541
805.483	26560
805.626	26705
805.768	26640
805.91	26568
806.052	26705
806.194	26488
806.336	26842
806.478	26644
806.62	26727
806.762	26788
806.904	26853
807.046	27085
807.188	27180
807.33	27161
807.472	27161
807.614	27047
807.756	27017
807.898	26899
808.04	26925
808.182	26765
808.324	26998
808.465	26876
808.607	27218
808.749	27245
808.891	27275
809.033	27359
809.174	27351
809.316	27298
809.458	27252
809.6	27321
809.741	27302
809.883	27348
810.025	27587
810.166	27507
810.308	27511
810.45	27534
810.591	27450
810.733	27211
810.875	27093
811.016	27100
811.158	27108
811.299	27306
811.441	27469
811.582	27393
811.724	27283
811.865	27157
812.007	27313
812.148	27256
812.29	27188
812.431	27443
812.573	27530
812.714	27732
812.855	27819
812.997	27739
813.138	27956
813.279	27816
813.421	27819
813.562	27648
813.703	27648
813.845	27549
813.986	26994
814.127	26929
814.268	26899
814.41	27043
814.551	26963
814.692	27036
814.833	26975
814.974	26910
815.115	26883
815.256	26830
815.397	26830
815.539	26842
815.68	26758
815.821	26640
815.962	26682
816.103	26594
816.244	26556
816.385	26556
816.526	26484
816.666	26362
816.807	26237
816.948	26259
817.089	26202
817.23	26206
817.371	26225
817.512	26214
817.653	26240
817.793	26202
817.934	26244
818.075	26183
818.216	26259
818.356	26161
818.497	26050
818.638	25909
818.778	25906
818.919	25970
819.06	25944
819.2	26081
819.341	26176
819.481	26103
819.622	26248
819.762	26526
819.903	26298
820.043	26328
820.184	26256
820.324	26431
820.465	26381
820.605	26290
820.746	26305
820.886	26088
821.026	26168
821.167	26210
821.307	26396
821.447	26065
821.588	25993
821.728	25864
821.868	25712
822.008	25647
822.149	25662
822.289	25537
822.429	25407
822.569	25259
822.709	25377
822.849	25190
822.99	25156
823.13	25137
823.27	25148
823.41	24966
823.55	24924
823.69	24989
823.83	24977
823.97	24875
824.11	24703
824.25	24806
824.389	24726
824.529	24787
824.669	24825
824.809	24859
824.949	24909
825.089	24909
825.228	24844
825.368	24673
825.508	24665
825.648	24654
825.787	24760
825.927	24627
826.067	24707
826.206	24540
826.346	24688
826.485	24802
826.625	24711
826.765	24745
826.904	24711
827.044	24452
827.183	24399
827.323	24270
827.462	24384
827.601	24422
827.741	24388
827.88	24296
828.02	24296
828.159	24350
828.298	24452
828.437	24422
828.577	24296
828.716	24445
828.855	24327
828.994	24011
829.134	24095
829.273	24178
829.412	24034
829.551	24087
829.69	24133
829.829	24083
829.968	24243
830.107	24129
830.246	24098
830.385	23893
830.524	23969
830.663	23882
830.802	23760
830.941	23714
831.08	23646
831.219	23821
831.357	23813
831.496	23973
831.635	23665
831.774	23646
831.913	23665
832.051	23547
832.19	23547
832.329	23627
832.467	23391
832.606	23368
832.744	23349
832.883	23311
833.022	23299
833.16	23429
833.299	23516
833.437	23368
833.576	23440
833.714	23444
833.852	23611
833.991	23505
834.129	23592
834.267	23505
834.406	23493
834.544	23604
834.682	23467
834.821	23429
834.959	23562
835.097	23493
835.235	23577
835.373	23436
835.511	23490
835.65	23387
835.788	23459
835.926	23242
836.064	23090
836.202	23174
836.34	23440
836.478	23387
836.615	23387
836.753	23299
836.891	23372
837.029	23318
837.167	23151
837.305	23322
837.443	23185
837.58	23162
837.718	23231
837.856	23181
837.993	23193
838.131	23227
838.269	23018
838.406	23269
838.544	23075
838.681	22877
838.819	22752
838.956	22577
839.094	22672
839.231	22729
839.369	22881
839.506	23090
839.643	22915
839.781	22679
839.918	22618
840.055	22573
840.193	22550
840.33	22626
840.467	22721
840.604	22584
840.742	22858
840.879	22436
841.016	22531
841.153	22470
841.29	22698
841.427	22588
841.564	22694
841.701	22500
841.838	22569
841.975	22500
842.112	22535
842.249	22512
842.385	22402
842.522	22409
842.659	22344
842.796	22375
842.933	22360
843.069	22413
843.206	22257
843.343	22455
843.479	22421
843.616	22443
843.752	22200
843.889	22154
844.025	22234
844.162	22128
844.298	22173
844.435	22128
844.571	22166
844.708	22238
844.844	22287
844.98	22367
845.117	22280
845.253	22002
845.389	22010
845.525	21991
845.661	22101
845.798	21998
845.934	21964
846.07	21789
846.206	21865
846.342	22086
846.478	21804
846.614	21759
846.75	21591
846.886	21542
847.022	21736
847.158	21599
847.294	21511
847.429	21633
847.565	21606
847.701	21854
847.837	21382
847.972	21306
848.108	21416
848.244	21488
848.379	21291
848.515	21157
848.65	21203
848.786	21176
848.921	21173
849.057	21344
849.192	21211
849.328	21260
849.463	21237
849.598	21336
849.734	21146
849.869	21089
850.004	21108
850.14	21005
850.275	20998
850.41	21017
850.545	20933
850.68	20842
850.815	21047
850.95	20883
851.085	21150
851.22	20994
851.355	20975
851.49	20895
851.625	20952
851.76	20956
851.895	21013
852.03	20872
852.165	20975
852.299	21020
852.434	21028
852.569	20963
852.703	20994
852.838	21066
852.973	21184
853.107	21131
853.242	20921
853.376	20845
853.511	20754
853.645	20739
853.78	20982
853.914	20773
854.048	20853
854.183	20769
854.317	20773
854.451	20963
854.585	20750
854.72	20834
854.854	20975
854.988	20731
855.122	20838
855.256	20701
855.39	20868
855.524	20921
855.658	20868
855.792	20834
855.926	20838
856.06	20925
856.194	20838
856.327	20743
856.461	20602
856.595	20621
856.729	20693
856.862	20906
856.996	20880
857.13	20842
857.263	20895
857.397	20933
857.53	20807
857.664	20807
857.797	20796
857.931	20872
858.064	20849
858.197	20853
858.331	20823
858.464	20845
858.597	20613
858.731	20823
858.864	20754
858.997	20777
859.13	20758
859.263	20849
859.396	20845
859.529	20804
859.662	20769
859.795	20689
859.928	20731
860.061	20845
860.194	20868
860.327	20838
860.46	20773
860.592	20956
860.725	20933
860.858	20872
860.99	20864
861.123	20724
861.256	20670
861.388	20834
861.521	21511
861.653	20708
861.786	20507
861.918	20590
862.05	20613
862.183	20758
862.315	20762
862.447	20948
862.58	20689
862.712	20651
862.844	20545
862.976	20606
863.108	20568
863.24	20963
863.372	20473
863.504	20526
863.636	20480
863.768	20465
863.9	20560
864.032	20366
864.164	20541
864.296	20522
864.428	20568
864.559	20549
864.691	20522
864.823	20598
864.954	20533
865.086	20427
865.217	20522
865.349	20442
865.48	20400
865.612	20400
865.743	20492
865.875	20450
866.006	20415
866.137	20427
866.269	20355
866.4	20423
866.531	20237
866.662	20320
866.793	20320
866.924	20343
867.055	20480
867.186	20415
867.317	20389
867.448	20313
867.579	20415
867.71	20084
867.841	20271
867.972	20328
868.103	20282
868.233	20347
868.364	20400
868.495	20427
868.625	20564
868.756	20720
868.886	20564
869.017	20602
869.147	20826
869.278	20743
869.408	20549
869.539	20629
869.669	20754
869.799	20674
869.929	20724
870.06	20686
870.19	20963
870.32	20937
870.45	20876
870.58	21036
870.71	21066
870.84	21127
870.97	20910
871.1	20937
871.23	21188
871.36	21260
871.489	21089
871.619	21233
871.749	21230
871.879	21302
872.008	21302
872.138	21222
872.267	21119
872.397	21112
872.526	20979
872.656	21032
872.785	21001
872.915	21275
873.044	21268
873.173	21260
873.303	21310
873.432	21207
873.561	21393
873.69	21214
873.819	21226
873.948	21401
874.077	21203
874.206	21207
874.335	21245
874.464	21401
874.593	21454
874.722	21462
874.851	21507
874.979	21496
875.108	21564
875.237	21332
875.365	21477
875.494	21526
875.623	21431
875.751	21488
875.88	21572
876.008	21504
876.136	21656
876.265	21884
876.393	21953
876.521	21888
876.65	21865
876.778	21922
876.906	21838
877.034	21759
877.162	21831
877.29	21797
877.418	21941
877.546	21804
877.674	21789
877.802	21854
877.93	21739
878.058	21789
878.185	21751
878.313	21705
878.441	21835
878.568	21622
878.696	21812
878.824	21880
878.951	21945
879.079	22021
879.206	22128
879.333	22059
879.461	22002
879.588	21918
879.715	22074
879.842	22036
879.97	21884
880.097	21629
880.224	21644
880.351	21671
880.478	21652
880.605	21629
880.732	21542
880.859	21994
880.986	21671
881.112	21671
881.239	21515
881.366	21363
881.493	21279
881.619	21222
881.746	21287
881.872	21195
881.999	21222
882.125	21154
882.252	21150
882.378	21146
882.505	21317
882.631	21096
882.757	20887
882.883	20971
883.01	20971
883.136	20819
883.262	20727
883.388	20781
883.514	20944
883.64	20845
883.766	20864
883.892	20655
884.018	20739
884.143	20807
884.269	20956
884.395	20720
884.52	20613
884.646	20556
884.772	20492
884.897	20480
885.023	20587
885.148	20659
885.274	20758
885.399	20731
885.524	20564
885.65	20640
885.775	20750
885.9	20587
886.025	20693
886.15	20621
886.275	20480
886.4	20495
886.525	20625
886.65	20514
886.775	20495
886.9	20674
887.025	20933
887.149	20511
887.274	20450
887.399	20347
887.523	20431
887.648	20324
887.773	20252
887.897	20347
888.021	20351
888.146	20290
888.27	20366
888.395	20415
888.519	20305
888.643	20286
888.767	20362
888.891	20317
889.015	20180
889.139	20145
889.263	20119
889.387	20111
889.511	20355
889.635	20301
889.759	20073
889.883	20168
890.006	20248
890.13	20263
890.254	20024
890.377	20111
890.501	19909
890.624	19967
890.748	20024
890.871	19784
890.995	19658
891.118	19738
891.241	19712
891.364	19685
891.488	19951
891.611	19708
891.734	19643
891.857	19753
891.98	19780
892.103	19833
892.226	19875
892.349	19674
892.471	19510
892.594	19548
892.717	19628
892.839	19556
892.962	19628
893.085	19632
893.207	19708
893.33	19571
893.452	19628
893.575	19635
893.697	19628
893.819	19757
893.941	19738
894.064	19883
894.186	19666
894.308	19670
894.43	19605
894.552	19746
894.674	19799
894.796	19540
894.918	19704
895.04	19609
895.161	19624
895.283	19666
895.405	19556
895.526	19712
895.648	19643
895.769	19628
895.891	19544
896.012	19658
896.134	19670
896.255	19677
896.376	19647
896.498	19681
896.619	19658
896.74	19643
896.861	19753
896.982	19967
897.103	20191
897.224	19849
897.345	19959
897.466	19719
897.587	19833
897.708	20046
897.828	19879
897.949	19803
898.07	19788
898.19	19776
898.311	19921
898.431	19784
898.552	20016
898.672	19951
898.792	19925
898.913	19890
899.033	19753
899.153	19632
899.273	19597
899.393	19556
899.513	19651
899.633	19624
899.753	19582
899.873	19655
899.993	19620
900.113	19537
900.232	19533
900.352	19411
900.472	19430
900.591	19430
900.711	19419
900.83	19228
900.95	19506
901.069	19590
901.189	19175
901.308	19110
901.427	19015
901.546	18989
901.665	18954
901.784	18962
901.904	18970
902.023	18749
902.141	18521
902.26	18627
902.379	18536
902.498	18479
902.617	18456
902.735	18578
902.854	18528
902.973	18544
903.091	18266
903.21	18194
903.328	18232
903.446	18076
903.565	17931
903.683	18022
903.801	17855
903.919	18011
904.038	18011
904.156	17824
904.274	17931
904.392	17695
904.51	17680
904.627	17832
904.745	17779
904.863	17836
904.981	17623
905.098	17433
905.216	17467
905.334	17539
905.451	17402
905.569	17387
905.686	17562
905.803	17448
905.921	17246
906.038	17349
906.155	17136
906.272	17147
906.389	17185
906.506	16995
906.623	17025
906.74	17006
906.857	16873
906.974	16820
907.091	17052
907.208	17079
907.324	17018
907.441	16881
907.557	16748
907.674	16733
907.79	16641
907.907	16778
908.023	16702
908.139	16634
908.256	16660
908.372	16626
908.488	16550
908.604	16516
908.72	16462
908.836	16470
908.952	16436
909.068	16413
909.184	16542
909.3	16531
909.415	16436
909.531	16436
909.647	16261
909.762	16063
909.878	16090
909.993	16192
910.108	16021
910.224	16010
910.339	16013
910.454	15975
910.57	16055
910.685	15876
910.8	16143
910.915	16173
911.03	15979
911.145	15831
911.259	15804
911.374	15762
911.489	15686
911.604	15667
911.718	15530
911.833	15557
911.947	15538
912.062	15370
912.176	15454
912.291	15545
912.405	15507
912.519	15705
912.633	15599
912.748	15485
912.862	15412
912.976	15329
913.09	15157
913.204	15310
913.318	15355
913.431	15458
913.545	15279
913.659	15363
913.772	15237
913.886	15066
914	15089
914.113	15195
914.226	15184
914.34	15180
914.453	14975
914.566	15226
914.68	15058
914.793	15024
914.906	14899
915.019	14735
915.132	14613
915.245	14739
915.358	14788
915.47	14632
915.583	14716
915.696	14849
915.809	14876
915.921	14823
916.034	14697
916.146	14648
916.259	14655
916.371	14769
916.483	14648
916.595	14545
916.708	14606
916.82	14541
916.932	14503
917.044	14514
917.156	14514
917.268	14438
917.38	14457
917.491	14374
917.603	14438
917.715	14465
917.826	14503
917.938	14374
918.049	14187
918.161	14320
918.272	14492
918.384	14377
918.495	14256
918.606	14221
918.717	14043
918.828	14183
918.939	14187
919.05	14084
919.161	14191
919.272	13925
919.383	14077
919.494	14256
919.604	14347
919.715	14176
919.826	14073
919.936	14206
920.047	14210
920.157	14210
920.267	14290
920.378	14126
920.488	14107
920.598	14248
920.708	14347
920.818	14301
920.928	14282
921.038	14518
921.148	14469
921.258	14130
921.368	14031
921.477	13890
921.587	13795
921.697	13761
921.806	13879
921.916	13799
922.025	13662
922.134	13575
922.244	13480
922.353	13632
922.462	13449
922.571	13327
922.68	13232
922.789	13217
922.898	13255
923.007	13095
923.116	13194
923.224	13247
923.333	13152
923.442	13069
923.55	13031
923.659	13110
923.767	13053
923.876	12993
923.984	13065
924.092	12901
924.201	12920
924.309	12932
924.417	12958
924.525	12856
924.633	12859
924.741	13814
924.849	12658
924.956	12829
925.064	12658
925.172	12639
925.279	12665
925.387	12604
925.494	12719
925.602	12753
925.709	12593
925.816	12521
925.924	12574
926.031	12658
926.138	12597
926.245	12681
926.352	12525
926.459	12639
926.566	12658
926.673	12456
926.779	12410
926.886	12414
926.993	12296
927.099	12136
927.206	12155
927.312	12247
927.419	12171
927.525	12148
927.631	12171
927.737	12125
927.843	12098
927.95	11843
928.056	12026
928.162	11996
928.267	12083
928.373	12612
928.479	12060
928.585	11851
928.69	11984
928.796	12091
928.901	11855
929.007	11733
929.112	11885
929.218	11840
929.323	11783
929.428	11745
929.533	11897
929.638	11748
929.743	11741
929.848	11764
929.953	11608
930.058	11646
930.163	11395
930.267	11478
930.372	11566
930.477	11482
930.581	11558
930.685	11440
930.79	11307
930.894	11376
930.998	11326
931.103	11429
931.207	11109
931.311	11006
931.415	10946
931.519	10755
931.623	10717
