Data from test_V78500241_1294.txt Node
Date: Fri Mar 25 15:18:51 CST 2022
User: usil
Spectrometer: V785-0024
Trigger mode: 0
Integration Time (sec): 4.000000E-1
Scans to average: 1
Nonlinearity correction enabled: false
Boxcar width: 0
Storing dark spectrum: false
XAxis mode: Wavelengths
Number of Pixels in Spectrum: 1024
>>>>>Begin Spectral Data<<<<<
801.071	28284
801.214	28234
801.356	27983
801.499	27823
801.641	27751
801.783	27633
801.926	27682
802.068	27660
802.211	27523
802.353	27530
802.496	27458
802.638	27458
802.78	27287
802.923	27386
803.065	27252
803.208	27317
803.35	27412
803.492	27488
803.635	27500
803.777	27485
803.919	27564
804.061	27827
804.204	27720
804.346	27492
804.488	27412
804.63	27572
804.773	27553
804.915	27576
805.057	27698
805.199	27644
805.341	27720
805.483	27846
805.626	27778
805.768	27435
805.91	27690
806.052	27656
806.194	27663
806.336	27914
806.478	27713
806.62	27686
806.762	27778
806.904	27983
807.046	28204
807.188	28246
807.33	28166
807.472	28215
807.614	28116
807.756	28226
807.898	28105
808.04	27922
808.182	27941
808.324	28010
808.465	27994
808.607	28238
808.749	28280
808.891	28443
809.033	28519
809.174	28523
809.316	28417
809.458	28546
809.6	28424
809.741	28504
809.883	28653
810.025	28649
810.166	28588
810.308	28675
810.45	28596
810.591	28664
810.733	28451
810.875	28352
811.016	28162
811.158	28268
811.299	28618
811.441	28599
811.582	28550
811.724	28329
811.865	28382
812.007	28238
812.148	28284
812.29	28356
812.431	28580
812.573	28717
812.714	28892
812.855	28908
812.997	29098
813.138	29132
813.279	29174
813.421	29029
813.562	28877
813.703	28843
813.845	28466
813.986	28287
814.127	28325
814.268	28139
814.41	28074
814.551	28093
814.692	28211
814.833	28128
814.974	27991
815.115	28093
815.256	27991
815.397	27987
815.539	28040
815.68	27812
815.821	27812
815.962	27941
816.103	27914
816.244	27789
816.385	27667
816.526	27656
816.666	27473
816.807	27534
816.948	27572
817.089	27583
817.23	27473
817.371	27348
817.512	27378
817.653	27412
817.793	27462
817.934	27443
818.075	27348
818.216	27481
818.356	27572
818.497	27447
818.638	27173
818.778	27195
818.919	26944
819.06	27222
819.2	27313
819.341	27389
819.481	27389
819.622	27523
819.762	27633
819.903	27709
820.043	27454
820.184	27496
820.324	27500
820.465	27686
820.605	27538
820.746	27507
820.886	27424
821.026	27534
821.167	27595
821.307	27500
821.447	27401
821.588	27279
821.728	27089
821.868	27173
822.008	27005
822.149	26887
822.289	26906
822.429	26693
822.569	26511
822.709	26651
822.849	26423
822.99	26560
823.13	26453
823.27	26423
823.41	26237
823.55	26221
823.69	26259
823.83	26149
823.97	26145
824.11	26115
824.25	25909
824.389	25974
824.529	26122
824.669	25917
824.809	26164
824.949	26077
825.089	26218
825.228	26164
825.368	25883
825.508	25822
825.648	26024
825.787	26016
825.927	26016
826.067	25944
826.206	25902
826.346	25928
826.485	26081
826.625	25970
826.765	25940
826.904	25959
827.044	25715
827.183	25632
827.323	25521
827.462	25708
827.601	25674
827.741	25578
827.88	25708
828.02	25426
828.159	25651
828.298	25712
828.437	25712
828.577	25609
828.716	25693
828.855	25662
828.994	25449
829.134	25278
829.273	25495
829.412	25274
829.551	25327
829.69	25259
829.829	25483
829.968	25506
830.107	25331
830.246	25381
830.385	25232
830.524	25209
830.663	25027
830.802	25107
830.941	24932
831.08	24943
831.219	25008
831.357	25038
831.496	25206
831.635	24981
831.774	24981
831.913	24924
832.051	24745
832.19	24779
832.329	24920
832.467	24711
832.606	24612
832.744	24490
832.883	24673
833.022	24513
833.16	24616
833.299	24753
833.437	24700
833.576	24711
833.714	24658
833.852	24768
833.991	24711
834.129	24795
834.267	24833
834.406	24707
834.544	24787
834.682	24806
834.821	24593
834.959	24768
835.097	24688
835.235	24707
835.373	24692
835.511	24620
835.65	24566
835.788	24635
835.926	24437
836.064	24315
836.202	24334
836.34	24631
836.478	24475
836.615	24414
836.753	24563
836.891	24597
837.029	24585
837.167	24437
837.305	24467
837.443	24456
837.58	24273
837.718	24426
837.856	24369
837.993	24407
838.131	24296
838.269	24224
838.406	24304
838.544	24258
838.681	23935
838.819	24041
838.956	23817
839.094	23760
839.231	23889
839.369	24129
839.506	24270
839.643	24060
839.781	23733
839.918	23745
840.055	23824
840.193	23870
840.33	23756
840.467	23904
840.604	23767
840.742	24102
840.879	23710
841.016	23649
841.153	23684
841.29	23710
841.427	23722
841.564	23813
841.701	23824
841.838	23786
841.975	23786
842.112	23535
842.249	23520
842.385	23452
842.522	23687
842.659	23558
842.796	23505
842.933	23482
843.069	23444
843.206	23433
843.343	23490
843.479	23543
843.616	23440
843.752	23364
843.889	23288
844.025	23417
844.162	23231
844.298	23417
844.435	23261
844.571	23174
844.708	23315
844.844	23551
844.98	23490
845.117	23425
845.253	23292
845.389	23048
845.525	23071
845.661	23025
845.798	22915
845.934	23003
846.07	22987
846.206	23109
846.342	23155
846.478	22904
846.614	22847
846.75	22599
846.886	22618
847.022	22873
847.158	22702
847.294	22710
847.429	22664
847.565	22721
847.701	23018
847.837	22413
847.972	22557
848.108	22500
848.244	22455
848.379	22432
848.515	22451
848.65	22382
848.786	22367
848.921	22226
849.057	22417
849.192	22287
849.328	22276
849.463	22284
849.598	22318
849.734	22276
849.869	22280
850.004	22048
850.14	22044
850.275	22200
850.41	22048
850.545	22059
850.68	22029
850.815	22158
850.95	22150
851.085	22360
851.22	22150
851.355	22055
851.49	22078
851.625	22116
851.76	22135
851.895	22048
852.03	21994
852.165	22101
852.299	22185
852.434	22097
852.569	22090
852.703	22070
852.838	22215
852.973	22249
853.107	22242
853.242	22078
853.376	21972
853.511	21816
853.645	21819
853.78	22017
853.914	21998
854.048	21926
854.183	21884
854.317	21911
854.451	22090
854.585	21960
854.72	21876
854.854	22029
854.988	21835
855.122	21854
855.256	21816
855.39	21861
855.524	21838
855.658	21922
855.792	21972
855.926	21850
856.06	21880
856.194	22040
856.327	21823
856.461	21823
856.595	21884
856.729	21994
856.862	22063
856.996	21903
857.13	21949
857.263	21991
857.397	21998
857.53	21846
857.664	21979
857.797	22006
857.931	22101
858.064	21937
858.197	22147
858.331	21994
858.464	21694
858.597	21888
858.731	21892
858.864	21873
858.997	21793
859.13	21934
859.263	21827
859.396	21941
859.529	21892
859.662	21842
859.795	21747
859.928	21899
860.061	22051
860.194	22162
860.327	21941
860.46	21895
860.592	22013
860.725	22086
860.858	21907
860.99	21979
861.123	21831
861.256	21934
861.388	21880
861.521	22493
861.653	21732
861.786	21743
861.918	21739
862.05	21770
862.183	21857
862.315	21701
862.447	21937
862.58	21838
862.712	21603
862.844	21523
862.976	21743
863.108	21660
863.24	21918
863.372	21545
863.504	21545
863.636	21504
863.768	21496
863.9	21641
864.032	21603
864.164	21545
864.296	21739
864.428	21690
864.559	21625
864.691	21629
864.823	21679
864.954	21625
865.086	21675
865.217	21530
865.349	21428
865.48	21435
865.612	21507
865.743	21530
865.875	21523
866.006	21488
866.137	21496
866.269	21412
866.4	21473
866.531	21405
866.662	21454
866.793	21439
866.924	21355
867.055	21553
867.186	21435
867.317	21458
867.448	21336
867.579	21313
867.71	21363
867.841	21268
867.972	21370
868.103	21420
868.233	21435
868.364	21492
868.495	21572
868.625	21705
868.756	21804
868.886	21648
869.017	21587
869.147	21743
869.278	21785
869.408	21610
869.539	21595
869.669	21739
869.799	21637
869.929	21816
870.06	21759
870.19	21899
870.32	22021
870.45	22048
870.58	21991
870.71	21998
870.84	22067
870.97	22086
871.1	22147
871.23	22265
871.36	22280
871.489	22116
871.619	22284
871.749	22322
871.879	22299
872.008	22314
872.138	22211
872.267	22276
872.397	22078
872.526	22006
872.656	22082
872.785	22147
872.915	22246
873.044	22360
873.173	22257
873.303	22337
873.432	22272
873.561	22352
873.69	22291
873.819	22390
873.948	22223
874.077	22276
874.206	22253
874.335	22185
874.464	22303
874.593	22451
874.722	22398
874.851	22554
874.979	22455
875.108	22561
875.237	22527
875.365	22405
875.494	22561
875.623	22569
875.751	22455
875.88	22531
876.008	22660
876.136	22584
876.265	22691
876.393	22972
876.521	22866
876.65	22885
876.778	22847
876.906	22980
877.034	22889
877.162	22889
877.29	22767
877.418	22774
877.546	22911
877.674	22915
877.802	22900
877.93	22881
878.058	22843
878.185	22774
878.313	22767
878.441	22805
878.568	22660
878.696	22816
878.824	22892
878.951	22889
879.079	23003
879.206	23094
879.333	23010
879.461	22854
879.588	22881
879.715	22965
879.842	23162
879.97	22881
880.097	22656
880.224	22691
880.351	22672
880.478	22706
880.605	22653
880.732	22626
880.859	22873
880.986	22637
881.112	22679
881.239	22500
881.366	22428
881.493	22207
881.619	22181
881.746	22257
881.872	22169
881.999	22204
882.125	22192
882.252	22188
882.378	22169
882.505	22265
882.631	22074
882.757	21869
882.883	22036
883.01	21880
883.136	21915
883.262	21819
883.388	21686
883.514	21911
883.64	22036
883.766	21804
883.892	21618
884.018	21690
884.143	21937
884.269	21926
884.395	21667
884.52	21412
884.646	21663
884.772	21564
884.897	21420
885.023	21492
885.148	21679
885.274	21766
885.399	21690
885.524	21542
885.65	21515
885.775	21595
885.9	21481
886.025	21568
886.15	21641
886.275	21469
886.4	21481
886.525	21370
886.65	21545
886.775	21485
886.9	21561
887.025	21618
887.149	21523
887.274	21435
887.399	21279
887.523	21340
887.648	21283
887.773	21222
887.897	21462
888.021	21382
888.146	21249
888.27	21306
888.395	21336
888.519	21317
888.643	21294
888.767	21359
888.891	21176
889.015	21108
889.139	21074
889.263	21146
889.387	21298
889.511	21214
889.635	21272
889.759	21089
889.883	21013
890.006	21192
890.13	21199
890.254	20960
890.377	20994
890.501	20857
890.624	20849
890.748	20899
890.871	20697
890.995	20705
891.118	20682
891.241	20663
891.364	20636
891.488	20758
891.611	20659
891.734	20708
891.857	20590
891.98	20629
892.103	20720
892.226	20556
892.349	20697
892.471	20465
892.594	20495
892.717	20648
892.839	20522
892.962	20511
893.085	20632
893.207	20530
893.33	20507
893.452	20499
893.575	20659
893.697	20507
893.819	20697
893.941	20811
894.064	20640
894.186	20507
894.308	20537
894.43	20663
894.552	20579
894.674	20629
894.796	20530
894.918	20594
895.04	20415
895.161	20613
895.283	20537
895.405	20541
895.526	20499
895.648	20564
895.769	20560
895.891	20594
896.012	20602
896.134	20609
896.255	20571
896.376	20499
896.498	20533
896.619	20560
896.74	20568
896.861	20590
896.982	20872
897.103	20941
897.224	20708
897.345	20750
897.466	20701
897.587	20765
897.708	20921
897.828	20785
897.949	20720
898.07	20564
898.19	20724
898.311	20845
898.431	20667
898.552	20838
898.672	20777
898.792	20796
898.913	20693
899.033	20716
899.153	20549
899.273	20404
899.393	20522
899.513	20476
899.633	20594
899.753	20476
899.873	20385
899.993	20408
900.113	20431
900.232	20400
900.352	20377
900.472	20404
900.591	20149
900.711	20347
900.83	20210
900.95	20320
901.069	20336
901.189	20199
901.308	20005
901.427	19761
901.546	19734
901.665	19894
901.784	19795
901.904	19632
902.023	19628
902.141	19480
902.26	19373
902.379	19506
902.498	19365
902.617	19460
902.735	19293
902.854	19396
902.973	19293
903.091	19069
903.21	18916
903.328	18958
903.446	18935
903.565	18985
903.683	18810
903.801	18646
903.919	18715
904.038	18719
904.156	18646
904.274	18661
904.392	18578
904.51	18544
904.627	18620
904.745	18563
904.863	18715
904.981	18273
905.098	18239
905.216	18277
905.334	18388
905.451	18224
905.569	18205
905.686	18311
905.803	18243
905.921	18068
906.038	18152
906.155	18098
906.272	17908
906.389	17977
906.506	17836
906.623	17813
906.74	17779
906.857	17665
906.974	17687
907.091	17764
907.208	17912
907.324	17718
907.441	17585
907.557	17547
907.674	17425
907.79	17490
907.907	17433
908.023	17562
908.139	17379
908.256	17414
908.372	17364
908.488	17349
908.604	17231
908.72	17254
908.836	17250
908.952	17216
909.068	17311
909.184	17356
909.3	17223
909.415	17330
909.531	17170
909.647	16957
909.762	16896
909.878	16911
909.993	16885
910.108	16927
910.224	16843
910.339	16900
910.454	16774
910.57	16717
910.685	16668
910.8	16934
910.915	16908
911.03	16683
911.145	16516
911.259	16497
911.374	16504
911.489	16474
911.604	16219
911.718	16386
911.833	16143
911.947	16143
912.062	16032
912.176	16219
912.291	16196
912.405	16253
912.519	16379
912.633	16371
912.748	16276
912.862	16268
912.976	16090
913.09	15987
913.204	15994
913.318	16059
913.431	16112
913.545	16215
913.659	16211
913.772	16006
913.886	15797
914	15876
914.113	15861
914.226	15953
914.34	15865
914.453	15656
914.566	15838
914.68	15739
914.793	15663
914.906	15488
915.019	15549
915.132	15416
915.245	15420
915.358	15637
915.47	15397
915.583	15538
915.696	15492
915.809	15534
915.921	15557
916.034	15408
916.146	15294
916.259	15287
916.371	15405
916.483	15378
916.595	15306
916.708	15199
916.82	15199
916.932	15272
917.044	15195
917.156	15268
917.268	15146
917.38	15138
917.491	15032
917.603	15150
917.715	15173
917.826	15173
917.938	15009
918.049	14979
918.161	15028
918.272	15230
918.384	15123
918.495	15001
918.606	14933
918.717	14819
918.828	14842
918.939	14853
919.05	14777
919.161	14762
919.272	14693
919.383	14651
919.494	14788
919.604	15051
919.715	14807
919.826	14712
919.936	14746
920.047	14773
920.157	14648
920.267	14960
920.378	14800
920.488	14720
920.598	15051
920.708	15097
920.818	14960
920.928	14853
921.038	15062
921.148	14941
921.258	14891
921.368	14705
921.477	14461
921.587	14564
921.697	14434
921.806	14590
921.916	14434
922.025	14259
922.134	14153
922.244	14180
922.353	14259
922.462	14020
922.571	14088
922.68	13883
922.789	13799
922.898	13822
923.007	13902
923.116	13784
923.224	13757
923.333	13738
923.442	13723
923.55	13601
923.659	13571
923.767	13734
923.876	13594
923.984	13719
924.092	13613
924.201	13502
924.309	13643
924.417	13472
924.525	13483
924.633	13472
924.741	14370
924.849	13240
924.956	13388
925.064	13213
925.172	13221
925.279	13194
925.387	13213
925.494	13225
925.602	13259
925.709	13240
925.816	13099
925.924	13175
926.031	13107
926.138	13095
926.245	13145
926.352	13133
926.459	13202
926.566	13251
926.673	13091
926.779	12886
926.886	12958
926.993	12787
927.099	12757
927.206	12738
927.312	12707
927.419	12795
927.525	12783
927.631	12772
927.737	12658
927.843	12578
927.95	12601
928.056	12604
928.162	12620
928.267	12540
928.373	13244
928.479	12677
928.585	12456
928.69	12525
928.796	12593
928.901	12441
929.007	12296
929.112	12388
929.218	12391
929.323	12353
929.428	12346
929.533	12448
929.638	12216
929.743	12155
929.848	12247
929.953	12228
930.058	12129
930.163	11965
930.267	11904
930.372	12121
930.477	11927
930.581	12175
930.685	12011
930.79	11832
930.894	11882
930.998	11889
931.103	11984
931.207	11676
931.311	11558
931.415	11467
931.519	11280
931.623	11121
