Data from test_V78500241_1575.txt Node
Date: Fri Mar 25 15:20:49 CST 2022
User: usil
Spectrometer: V785-0024
Trigger mode: 0
Integration Time (sec): 4.000000E-1
Scans to average: 1
Nonlinearity correction enabled: false
Boxcar width: 0
Storing dark spectrum: false
XAxis mode: Wavelengths
Number of Pixels in Spectrum: 1024
>>>>>Begin Spectral Data<<<<<
801.071	27819
801.214	27816
801.356	27576
801.499	27439
801.641	27424
801.783	27393
801.926	27519
802.068	27492
802.211	27249
802.353	27165
802.496	27070
802.638	27135
802.78	27127
802.923	27028
803.065	27009
803.208	26883
803.35	27135
803.492	27199
803.635	27401
803.777	27195
803.919	27233
804.061	27538
804.204	27329
804.346	27226
804.488	27161
804.63	27268
804.773	27180
804.915	27245
805.057	27420
805.199	27287
805.341	27359
805.483	27462
805.626	27260
805.768	27256
805.91	27355
806.052	27401
806.194	27249
806.336	27572
806.478	27481
806.62	27538
806.762	27507
806.904	27603
807.046	27968
807.188	27747
807.33	27823
807.472	27819
807.614	27861
807.756	27857
807.898	27755
808.04	27694
808.182	27781
808.324	27785
808.465	27797
808.607	27682
808.749	28036
808.891	27991
809.033	28017
809.174	28124
809.316	27930
809.458	28006
809.6	28025
809.741	28086
809.883	28219
810.025	28265
810.166	28417
810.308	28382
810.45	28226
810.591	28318
810.733	28048
810.875	28116
811.016	27785
811.158	27835
811.299	28051
811.441	28207
811.582	28181
811.724	28044
811.865	27899
812.007	28051
812.148	28032
812.29	28017
812.431	28188
812.573	28440
812.714	28478
812.855	28599
812.997	28660
813.138	28706
813.279	28584
813.421	28664
813.562	28519
813.703	28348
813.845	28230
813.986	28017
814.127	27804
814.268	27724
814.41	27701
814.551	27629
814.692	27922
814.833	27644
814.974	27701
815.115	27698
815.256	27576
815.397	27675
815.539	27568
815.68	27526
815.821	27462
815.962	27454
816.103	27507
816.244	27450
816.385	27233
816.526	27230
816.666	27043
816.807	26971
816.948	27104
817.089	27001
817.23	27062
817.371	27074
817.512	27135
817.653	27062
817.793	26918
817.934	26979
818.075	26990
818.216	26921
818.356	27020
818.497	26883
818.638	26727
818.778	26792
818.919	26804
819.06	26815
819.2	26796
819.341	26998
819.481	26960
819.622	27283
819.762	27256
819.903	27203
820.043	27180
820.184	27291
820.324	27104
820.465	27104
820.605	27184
820.746	27157
820.886	27024
821.026	27074
821.167	27222
821.307	27188
821.447	26937
821.588	26845
821.728	26845
821.868	26629
822.008	26686
822.149	26408
822.289	26484
822.429	26115
822.569	26001
822.709	26084
822.849	25947
822.99	26069
823.13	26065
823.27	25936
823.41	25845
823.55	25712
823.69	25925
823.83	25738
823.97	25780
824.11	25696
824.25	25559
824.389	25586
824.529	25723
824.669	25620
824.809	25689
824.949	25677
825.089	25681
825.228	25658
825.368	25506
825.508	25396
825.648	25415
825.787	25655
825.927	25563
826.067	25529
826.206	25468
826.346	25578
826.485	25422
826.625	25419
826.765	25639
826.904	25559
827.044	25331
827.183	25274
827.323	25084
827.462	25278
827.601	25160
827.741	25217
827.88	25289
828.02	25145
828.159	25133
828.298	25236
828.437	25126
828.577	25088
828.716	25270
828.855	25148
828.994	25004
829.134	25012
829.273	24932
829.412	24932
829.551	24909
829.69	24958
829.829	24985
829.968	24981
830.107	25156
830.246	24962
830.385	24867
830.524	24954
830.663	24738
830.802	24658
830.941	24608
831.08	24585
831.219	24730
831.357	24555
831.496	24730
831.635	24494
831.774	24551
831.913	24502
832.051	24300
832.19	24289
832.329	24456
832.467	24213
832.606	24270
832.744	24152
832.883	24159
833.022	24194
833.16	24224
833.299	24258
833.437	24243
833.576	24319
833.714	24235
833.852	24300
833.991	24148
834.129	24422
834.267	24281
834.406	24239
834.544	24327
834.682	24125
834.821	24270
834.959	24528
835.097	24068
835.235	24426
835.373	24159
835.511	24247
835.65	24129
835.788	24148
835.926	24038
836.064	23965
836.202	23969
836.34	24076
836.478	24072
836.615	24129
836.753	24057
836.891	24171
837.029	24095
837.167	24011
837.305	24114
837.443	23832
837.58	23912
837.718	24125
837.856	23939
837.993	23950
838.131	23783
838.269	23779
838.406	23859
838.544	23843
838.681	23486
838.819	23581
838.956	23474
839.094	23493
839.231	23364
839.369	23710
839.506	23748
839.643	23642
839.781	23463
839.918	23239
840.055	23433
840.193	23512
840.33	23356
840.467	23372
840.604	23307
840.742	23604
840.879	23071
841.016	23280
841.153	23239
841.29	23288
841.427	23227
841.564	23379
841.701	23227
841.838	23212
841.975	23223
842.112	23239
842.249	23174
842.385	23018
842.522	23330
842.659	23117
842.796	23151
842.933	23105
843.069	23102
843.206	23121
843.343	23052
843.479	23086
843.616	23090
843.752	22736
843.889	22862
844.025	22987
844.162	22820
844.298	22991
844.435	22873
844.571	22748
844.708	22881
844.844	23033
844.98	22919
845.117	23067
845.253	22934
845.389	22466
845.525	22740
845.661	22812
845.798	22626
845.934	22615
846.07	22584
846.206	22580
846.342	22561
846.478	22497
846.614	22409
846.75	22272
846.886	22276
847.022	22284
847.158	22337
847.294	22325
847.429	22348
847.565	22169
847.701	22557
847.837	22147
847.972	22032
848.108	22143
848.244	22135
848.379	21854
848.515	21922
848.65	21873
848.786	21873
848.921	21907
849.057	22021
849.192	21979
849.328	21915
849.463	21903
849.598	21800
849.734	21652
849.869	21747
850.004	21717
850.14	21724
850.275	21694
850.41	21656
850.545	21534
850.68	21561
850.815	21686
850.95	21622
851.085	21793
851.22	21751
851.355	21701
851.49	21595
851.625	21603
851.76	21614
851.895	21652
852.03	21492
852.165	21534
852.299	21781
852.434	21800
852.569	21686
852.703	21724
852.838	21656
852.973	21759
853.107	21720
853.242	21622
853.376	21576
853.511	21450
853.645	21412
853.78	21553
853.914	21477
854.048	21431
854.183	21477
854.317	21431
854.451	21671
854.585	21488
854.72	21515
854.854	21519
854.988	21340
855.122	21443
855.256	21279
855.39	21496
855.524	21564
855.658	21557
855.792	21610
855.926	21492
856.06	21454
856.194	21591
856.327	21496
856.461	21420
856.595	21386
856.729	21473
856.862	21576
856.996	21530
857.13	21386
857.263	21610
857.397	21606
857.53	21458
857.664	21599
857.797	21500
857.931	21500
858.064	21370
858.197	21747
858.331	21447
858.464	21321
858.597	21332
858.731	21538
858.864	21348
858.997	21397
859.13	21424
859.263	21462
859.396	21625
859.529	21424
859.662	21382
859.795	21443
859.928	21412
860.061	21561
860.194	21644
860.327	21534
860.46	21435
860.592	21591
860.725	21641
860.858	21580
860.99	21477
861.123	21443
861.256	21420
861.388	21496
861.521	22086
861.653	21329
861.786	21325
861.918	21332
862.05	21336
862.183	21340
862.315	21329
862.447	21435
862.58	21313
862.712	21131
862.844	21135
862.976	21264
863.108	21279
863.24	21568
863.372	20986
863.504	21222
863.636	21047
863.768	21283
863.9	21192
864.032	21173
864.164	21017
864.296	21074
864.428	21211
864.559	21260
864.691	21260
864.823	21294
864.954	21233
865.086	21070
865.217	21089
865.349	21066
865.48	21116
865.612	21150
865.743	21252
865.875	21028
866.006	21013
866.137	20979
866.269	20998
866.4	20960
866.531	21036
866.662	20937
866.793	20986
866.924	21085
867.055	21013
867.186	20998
867.317	21001
867.448	20929
867.579	20975
867.71	20952
867.841	20880
867.972	20944
868.103	20975
868.233	20967
868.364	21119
868.495	21104
868.625	21135
868.756	21344
868.886	21154
869.017	21127
869.147	21355
869.278	21268
869.408	21283
869.539	21264
869.669	21340
869.799	21291
869.929	21351
870.06	21340
870.19	21663
870.32	21530
870.45	21564
870.58	21625
870.71	21838
870.84	21762
870.97	21652
871.1	21599
871.23	21774
871.36	21873
871.489	21739
871.619	21823
871.749	21739
871.879	21759
872.008	21937
872.138	21888
872.267	21774
872.397	21698
872.526	21633
872.656	21599
872.785	21739
872.915	21736
873.044	22006
873.173	21899
873.303	21907
873.432	22002
873.561	21907
873.69	21827
873.819	21812
873.948	21972
874.077	21808
874.206	21751
874.335	21857
874.464	21960
874.593	21956
874.722	21930
874.851	22086
874.979	22070
875.108	22025
875.237	22040
875.365	21998
875.494	22017
875.623	21998
875.751	22044
875.88	22059
876.008	22207
876.136	22265
876.265	22550
876.393	22523
876.521	22512
876.65	22508
876.778	22565
876.906	22314
877.034	22455
877.162	22356
877.29	22432
877.418	22436
877.546	22382
877.674	22329
877.802	22265
877.93	22440
878.058	22363
878.185	22421
878.313	22470
878.441	22325
878.568	22291
878.696	22436
878.824	22470
878.951	22493
879.079	22580
879.206	22694
879.333	22622
879.461	22367
879.588	22447
879.715	22577
879.842	22622
879.97	22565
880.097	22112
880.224	22204
880.351	22246
880.478	22325
880.605	22261
880.732	22363
880.859	22527
880.986	22265
881.112	22185
881.239	22124
881.366	21956
881.493	21850
881.619	21793
881.746	21953
881.872	21804
881.999	21816
882.125	21679
882.252	21819
882.378	21827
882.505	21895
882.631	21583
882.757	21572
882.883	21496
883.01	21454
883.136	21450
883.262	21374
883.388	21412
883.514	21599
883.64	21591
883.766	21336
883.892	21351
884.018	21157
884.143	21496
884.269	21549
884.395	21184
884.52	21093
884.646	21138
884.772	21081
884.897	21074
885.023	21093
885.148	21207
885.274	21294
885.399	21313
885.524	21184
885.65	21085
885.775	21199
885.9	21260
886.025	21249
886.15	21154
886.275	21116
886.4	20952
886.525	21138
886.65	21176
886.775	21184
886.9	21222
887.025	21272
887.149	21089
887.274	20880
887.399	20910
887.523	20796
887.648	20849
887.773	20891
887.897	21017
888.021	20960
888.146	20899
888.27	21001
888.395	21032
888.519	20944
888.643	21028
888.767	21039
888.891	20906
889.015	20693
889.139	20804
889.263	20686
889.387	20792
889.511	20967
889.635	20845
889.759	20750
889.883	20819
890.006	20629
890.13	20807
890.254	20670
890.377	20648
890.501	20537
890.624	20362
890.748	20541
890.871	20339
890.995	20225
891.118	20202
891.241	20161
891.364	20244
891.488	20457
891.611	20252
891.734	20191
891.857	20237
891.98	20385
892.103	20263
892.226	20290
892.349	20195
892.471	20142
892.594	20115
892.717	20259
892.839	20088
892.962	20191
893.085	20343
893.207	20202
893.33	20107
893.452	20119
893.575	20206
893.697	20073
893.819	20180
893.941	20389
894.064	20355
894.186	20168
894.308	20126
894.43	20275
894.552	20343
894.674	20271
894.796	20054
894.918	20161
895.04	20043
895.161	20370
895.283	20157
895.405	20172
895.526	20168
895.648	20221
895.769	20263
895.891	20294
896.012	20244
896.134	20347
896.255	20237
896.376	20195
896.498	20096
896.619	20183
896.74	20176
896.861	20130
896.982	20560
897.103	20617
897.224	20473
897.345	20377
897.466	20355
897.587	20427
897.708	20495
897.828	20454
897.949	20275
898.07	20252
898.19	20267
898.311	20336
898.431	20400
898.552	20332
898.672	20362
898.792	20351
898.913	20347
899.033	20332
899.153	20202
899.273	20122
899.393	20111
899.513	20043
899.633	20081
899.753	20054
899.873	20103
899.993	20183
900.113	20088
900.232	20134
900.352	20088
900.472	20012
900.591	19875
900.711	19913
900.83	19951
900.95	19993
901.069	20012
901.189	19894
901.308	19674
901.427	19472
901.546	19559
901.665	19559
901.784	19476
901.904	19518
902.023	19278
902.141	19103
902.26	19027
902.379	19122
902.498	18985
902.617	18951
902.735	19004
902.854	19042
902.973	18817
903.091	18726
903.21	18612
903.328	18749
903.446	18437
903.565	18486
903.683	18479
903.801	18422
903.919	18559
904.038	18372
904.156	18262
904.274	18353
904.392	18334
904.51	18285
904.627	18338
904.745	18334
904.863	18266
904.981	18011
905.098	17904
905.216	17939
905.334	17901
905.451	17912
905.569	17977
905.686	17904
905.803	17920
905.921	17733
906.038	17783
906.155	17794
906.272	17627
906.389	17646
906.506	17474
906.623	17623
906.74	17482
906.857	17433
906.974	17379
907.091	17600
907.208	17581
907.324	17406
907.441	17296
907.557	17315
907.674	17170
907.79	17162
907.907	17208
908.023	17147
908.139	17231
908.256	17185
908.372	16976
908.488	17022
908.604	17048
908.72	16809
908.836	16881
908.952	16748
909.068	16869
909.184	16923
909.3	16923
909.415	16896
909.531	16980
909.647	16596
909.762	16565
909.878	16584
909.993	16592
910.108	16584
910.224	16535
910.339	16466
910.454	16542
910.57	16295
910.685	16432
910.8	16653
910.915	16546
911.03	16386
911.145	16173
911.259	16097
911.374	16200
911.489	16116
911.604	16006
911.718	15953
911.833	15998
911.947	15785
912.062	15812
912.176	15835
912.291	15941
912.405	15873
912.519	16166
912.633	16093
912.748	15941
912.862	15956
912.976	15762
913.09	15614
913.204	15667
913.318	15785
913.431	15945
913.545	15747
913.659	15831
913.772	15770
913.886	15656
914	15458
914.113	15667
914.226	15606
914.34	15603
914.453	15439
914.566	15564
914.68	15462
914.793	15348
914.906	15233
915.019	15157
915.132	15047
915.245	15192
915.358	15203
915.47	15112
915.583	15169
915.696	15085
915.809	15230
915.921	15283
916.034	15097
916.146	15039
916.259	15089
916.371	15123
916.483	15043
916.595	14975
916.708	14994
916.82	14990
916.932	14921
917.044	15005
917.156	14941
917.268	14811
917.38	14861
917.491	14758
917.603	14823
917.715	14883
917.826	14880
917.938	14788
918.049	14644
918.161	14708
918.272	14830
918.384	14899
918.495	14708
918.606	14613
918.717	14598
918.828	14629
918.939	14598
919.05	14465
919.161	14541
919.272	14419
919.383	14351
919.494	14629
919.604	14796
919.715	14594
919.826	14454
919.936	14549
920.047	14552
920.157	14579
920.267	14670
920.378	14511
920.488	14507
920.598	14689
920.708	14891
920.818	14564
920.928	14686
921.038	14785
921.148	14716
921.258	14499
921.368	14339
921.477	14374
921.587	14294
921.697	14195
921.806	14282
921.916	14024
922.025	13955
922.134	13967
922.244	13898
922.353	13883
922.462	13818
922.571	13651
922.68	13491
922.789	13552
922.898	13601
923.007	13426
923.116	13601
923.224	13563
923.333	13556
923.442	13403
923.55	13365
923.659	13392
923.767	13480
923.876	13343
923.984	13312
924.092	13152
924.201	13320
924.309	13236
924.417	13354
924.525	13129
924.633	13171
924.741	13951
924.849	13000
924.956	13137
925.064	13012
925.172	12913
925.279	12981
925.387	12996
925.494	12928
925.602	13076
925.709	12993
925.816	12829
925.924	12897
926.031	12939
926.138	12856
926.245	12913
926.352	12787
926.459	12871
926.566	12977
926.673	12894
926.779	12764
926.886	12719
926.993	12525
927.099	12490
927.206	12544
927.312	12456
927.419	12464
927.525	12483
927.631	12559
927.737	12494
927.843	12414
927.95	12228
928.056	12281
928.162	12395
928.267	12407
928.373	13015
928.479	12429
928.585	12102
928.69	12388
928.796	12296
928.901	12167
929.007	12057
929.112	12186
929.218	12110
929.323	12114
929.428	12011
929.533	12190
929.638	12064
929.743	12007
929.848	12095
929.953	12053
930.058	11885
930.163	11752
930.267	11752
930.372	11878
930.477	11733
930.581	11783
930.685	11748
930.79	11688
930.894	11695
930.998	11623
931.103	11783
931.207	11356
931.311	11341
931.415	11235
931.519	11045
931.623	10949
