Data from test_V78500241_678.txt Node
Date: Fri Mar 25 15:14:34 CST 2022
User: usil
Spectrometer: V785-0024
Trigger mode: 0
Integration Time (sec): 4.000000E-1
Scans to average: 1
Nonlinearity correction enabled: false
Boxcar width: 0
Storing dark spectrum: false
XAxis mode: Wavelengths
Number of Pixels in Spectrum: 1024
>>>>>Begin Spectral Data<<<<<
801.071	28143
801.214	28109
801.356	27663
801.499	27766
801.641	27660
801.783	27534
801.926	27800
802.068	27576
802.211	27492
802.353	27427
802.496	27272
802.638	27367
802.78	27249
802.923	27275
803.065	27272
803.208	27157
803.35	27310
803.492	27329
803.635	27397
803.777	27268
803.919	27447
804.061	27759
804.204	27500
804.346	27408
804.488	27283
804.63	27272
804.773	27348
804.915	27427
805.057	27466
805.199	27488
805.341	27644
805.483	27572
805.626	27583
805.768	27454
805.91	27553
806.052	27553
806.194	27466
806.336	27827
806.478	27622
806.62	27583
806.762	27728
806.904	27987
807.046	28162
807.188	27987
807.33	28021
807.472	28021
807.614	27918
807.756	28029
807.898	27835
808.04	27766
808.182	27876
808.324	27873
808.465	27838
808.607	28029
808.749	28207
808.891	28230
809.033	28306
809.174	28428
809.316	28287
809.458	28169
809.6	28390
809.741	28268
809.883	28382
810.025	28455
810.166	28607
810.308	28596
810.45	28588
810.591	28523
810.733	28314
810.875	28162
811.016	28147
811.158	28314
811.299	28253
811.441	28462
811.582	28356
811.724	28249
811.865	28192
812.007	28242
812.148	28272
812.29	28246
812.431	28417
812.573	28596
812.714	28778
812.855	28888
812.997	28961
813.138	29178
813.279	29121
813.421	28957
813.562	28828
813.703	28641
813.845	28622
813.986	28287
814.127	28147
814.268	28044
814.41	27831
814.551	27937
814.692	27979
814.833	27968
814.974	27945
815.115	28021
815.256	27934
815.397	27861
815.539	27926
815.68	27842
815.821	27747
815.962	27892
816.103	27873
816.244	27720
816.385	27641
816.526	27561
816.666	27424
816.807	27435
816.948	27348
817.089	27351
817.23	27405
817.371	27488
817.512	27249
817.653	27378
817.793	27245
817.934	27310
818.075	27146
818.216	27150
818.356	27389
818.497	27112
818.638	27001
818.778	27066
818.919	27138
819.06	27085
819.2	27233
819.341	27249
819.481	27291
819.622	27412
819.762	27572
819.903	27485
820.043	27564
820.184	27435
820.324	27344
820.465	27538
820.605	27408
820.746	27412
820.886	27386
821.026	27363
821.167	27317
821.307	27458
821.447	27397
821.588	27222
821.728	27127
821.868	26944
822.008	26720
822.149	26864
822.289	26750
822.429	26427
822.569	26412
822.709	26465
822.849	26385
822.99	26305
823.13	26202
823.27	26142
823.41	26237
823.55	26001
823.69	26145
823.83	26058
823.97	26039
824.11	25803
824.25	25883
824.389	25803
824.529	26035
824.669	25875
824.809	25966
824.949	25940
825.089	26027
825.228	26024
825.368	25776
825.508	25807
825.648	25909
825.787	25757
825.927	25837
826.067	25833
826.206	25799
826.346	25868
826.485	25849
826.625	25814
826.765	26012
826.904	25769
827.044	25445
827.183	25552
827.323	25510
827.462	25411
827.601	25518
827.741	25384
827.88	25594
828.02	25259
828.159	25426
828.298	25518
828.437	25540
828.577	25400
828.716	25590
828.855	25335
828.994	25282
829.134	25221
829.273	25206
829.412	25152
829.551	25232
829.69	25183
829.829	25266
829.968	25278
830.107	25282
830.246	25190
830.385	25072
830.524	25164
830.663	24977
830.802	24875
830.941	24840
831.08	24749
831.219	24894
831.357	24947
831.496	25008
831.635	24848
831.774	24787
831.913	24768
832.051	24627
832.19	24574
832.329	24612
832.467	24525
832.606	24399
832.744	24407
832.883	24422
833.022	24464
833.16	24566
833.299	24467
833.437	24445
833.576	24563
833.714	24570
833.852	24601
833.991	24620
834.129	24566
834.267	24669
834.406	24437
834.544	24528
834.682	24597
834.821	24426
834.959	24547
835.097	24498
835.235	24551
835.373	24555
835.511	24604
835.65	24407
835.788	24357
835.926	24342
836.064	24251
836.202	24232
836.34	24418
836.478	24418
836.615	24494
836.753	24361
836.891	24369
837.029	24407
837.167	24251
837.305	24213
837.443	24300
837.58	24144
837.718	24281
837.856	24182
837.993	24083
838.131	24174
838.269	24060
838.406	24163
838.544	23980
838.681	23908
838.819	23707
838.956	23646
839.094	23779
839.231	23802
839.369	23859
839.506	24007
839.643	23958
839.781	23760
839.918	23653
840.055	23649
840.193	23634
840.33	23611
840.467	23577
840.604	23615
840.742	23882
840.879	23402
841.016	23509
841.153	23505
841.29	23615
841.427	23486
841.564	23512
841.701	23589
841.838	23535
841.975	23539
842.112	23493
842.249	23383
842.385	23315
842.522	23566
842.659	23410
842.796	23482
842.933	23482
843.069	23364
843.206	23391
843.343	23444
843.479	23330
843.616	23402
843.752	23033
843.889	23239
844.025	23159
844.162	23143
844.298	23227
844.435	23052
844.571	23155
844.708	23140
844.844	23189
844.98	23330
845.117	23246
845.253	23022
845.389	22949
845.525	23010
845.661	23041
845.798	22866
845.934	23003
846.07	22816
846.206	22862
846.342	22854
846.478	22915
846.614	22599
846.75	22516
846.886	22508
847.022	22557
847.158	22611
847.294	22653
847.429	22698
847.565	22580
847.701	22839
847.837	22291
847.972	22253
848.108	22360
848.244	22306
848.379	22249
848.515	22325
848.65	22154
848.786	22238
848.921	22169
849.057	22276
849.192	22310
849.328	22230
849.463	22093
849.598	22025
849.734	22017
849.869	22169
850.004	21983
850.14	22025
850.275	21987
850.41	21903
850.545	21903
850.68	21922
850.815	21979
850.95	21991
851.085	22051
851.22	22013
851.355	21987
851.49	21998
851.625	21884
851.76	22006
851.895	21800
852.03	21888
852.165	21903
852.299	21926
852.434	22044
852.569	21983
852.703	21918
852.838	22013
852.973	22116
853.107	22017
853.242	21922
853.376	21785
853.511	21663
853.645	21785
853.78	21934
853.914	21850
854.048	21652
854.183	21633
854.317	21766
854.451	21998
854.585	21873
854.72	21736
854.854	21869
854.988	21595
855.122	21838
855.256	21625
855.39	21622
855.524	21842
855.658	21762
855.792	21831
855.926	21854
856.06	21911
856.194	21819
856.327	21785
856.461	21663
856.595	21762
856.729	21728
856.862	21846
856.996	21679
857.13	21762
857.263	21941
857.397	21934
857.53	21743
857.664	21812
857.797	21797
857.931	21873
858.064	21785
858.197	21823
858.331	21736
858.464	21739
858.597	21637
858.731	21770
858.864	21648
858.997	21622
859.13	21789
859.263	21804
859.396	21819
859.529	21755
859.662	21595
859.795	21728
859.928	21747
860.061	21899
860.194	21949
860.327	21785
860.46	21728
860.592	21857
860.725	21857
860.858	21838
860.99	21709
861.123	21720
861.256	21694
861.388	21842
861.521	22519
861.653	21682
861.786	21542
861.918	21603
862.05	21622
862.183	21724
862.315	21656
862.447	21762
862.58	21732
862.712	21443
862.844	21416
862.976	21553
863.108	21481
863.24	21857
863.372	21359
863.504	21435
863.636	21545
863.768	21454
863.9	21386
864.032	21294
864.164	21378
864.296	21374
864.428	21530
864.559	21523
864.691	21564
864.823	21469
864.954	21488
865.086	21367
865.217	21313
865.349	21230
865.48	21287
865.612	21310
865.743	21412
865.875	21340
866.006	21268
866.137	21256
866.269	21279
866.4	21351
866.531	21332
866.662	21294
866.793	21233
866.924	21199
867.055	21142
867.186	21294
867.317	21256
867.448	21195
867.579	21195
867.71	21135
867.841	21188
867.972	21226
868.103	21180
868.233	21173
868.364	21329
868.495	21408
868.625	21374
868.756	21557
868.886	21454
869.017	21447
869.147	21557
869.278	21610
869.408	21542
869.539	21473
869.669	21538
869.799	21648
869.929	21652
870.06	21663
870.19	21842
870.32	21603
870.45	21876
870.58	21895
870.71	22010
870.84	21987
870.97	21831
871.1	21873
871.23	22055
871.36	22135
871.489	21907
871.619	21934
871.749	22051
871.879	22249
872.008	22272
872.138	22154
872.267	22147
872.397	21930
872.526	21956
872.656	21888
872.785	21892
872.915	22166
873.044	22200
873.173	22147
873.303	22147
873.432	22246
873.561	22219
873.69	22154
873.819	22090
873.948	22196
874.077	22128
874.206	22013
874.335	22101
874.464	22226
874.593	22413
874.722	22234
874.851	22405
874.979	22417
875.108	22417
875.237	22318
875.365	22253
875.494	22360
875.623	22440
875.751	22287
875.88	22409
876.008	22470
876.136	22577
876.265	22774
876.393	22831
876.521	22763
876.65	22740
876.778	22839
876.906	22706
877.034	22634
877.162	22630
877.29	22698
877.418	22615
877.546	22675
877.674	22588
877.802	22702
877.93	22634
878.058	22607
878.185	22561
878.313	22637
878.441	22721
878.568	22504
878.696	22637
878.824	22740
878.951	22771
879.079	22782
879.206	22915
879.333	22767
879.461	22733
879.588	22771
879.715	22904
879.842	22934
879.97	22824
880.097	22455
880.224	22375
880.351	22535
880.478	22481
880.605	22538
880.732	22367
880.859	22725
880.986	22489
881.112	22512
881.239	22382
881.366	22204
881.493	22090
881.619	22082
881.746	22086
881.872	22051
881.999	21975
882.125	21934
882.252	22124
882.378	22082
882.505	22051
882.631	21907
882.757	21770
882.883	21888
883.01	21682
883.136	21698
883.262	21736
883.388	21576
883.514	21854
883.64	21770
883.766	21671
883.892	21511
884.018	21610
884.143	21743
884.269	21797
884.395	21488
884.52	21412
884.646	21370
884.772	21351
884.897	21382
885.023	21389
885.148	21561
885.274	21515
885.399	21462
885.524	21428
885.65	21367
885.775	21469
885.9	21348
886.025	21515
886.15	21530
886.275	21439
886.4	21233
886.525	21264
886.65	21306
886.775	21298
886.9	21447
887.025	21504
887.149	21241
887.274	21123
887.399	21192
887.523	21108
887.648	21108
887.773	21108
887.897	21150
888.021	21192
888.146	21066
888.27	21279
888.395	21188
888.519	21157
888.643	21241
888.767	21096
888.891	21096
889.015	20902
889.139	20895
889.263	20990
889.387	20963
889.511	21157
889.635	21207
889.759	20948
889.883	20956
890.006	20925
890.13	21119
890.254	20895
890.377	20861
890.501	20758
890.624	20609
890.748	20788
890.871	20594
890.995	20537
891.118	20484
891.241	20495
891.364	20480
891.488	20621
891.611	20568
891.734	20518
891.857	20644
891.98	20549
892.103	20495
892.226	20457
892.349	20480
892.471	20415
892.594	20431
892.717	20461
892.839	20389
892.962	20480
893.085	20461
893.207	20431
893.33	20358
893.452	20419
893.575	20484
893.697	20404
893.819	20640
893.941	20499
894.064	20518
894.186	20370
894.308	20336
894.43	20533
894.552	20518
894.674	20621
894.796	20248
894.918	20305
895.04	20305
895.161	20442
895.283	20396
895.405	20286
895.526	20454
895.648	20343
895.769	20408
895.891	20427
896.012	20598
896.134	20351
896.255	20461
896.376	20362
896.498	20393
896.619	20564
896.74	20385
896.861	20355
896.982	20667
897.103	20845
897.224	20629
897.345	20655
897.466	20533
897.587	20625
897.708	20724
897.828	20678
897.949	20495
898.07	20415
898.19	20465
898.311	20659
898.431	20590
898.552	20651
898.672	20708
898.792	20648
898.913	20697
899.033	20518
899.153	20450
899.273	20366
899.393	20328
899.513	20503
899.633	20412
899.753	20408
899.873	20084
899.993	20336
900.113	20233
900.232	20374
900.352	20214
900.472	20221
900.591	20138
900.711	20199
900.83	20008
900.95	20221
901.069	20275
901.189	20058
901.308	19894
901.427	19700
901.546	19719
901.665	19795
901.784	19655
901.904	19590
902.023	19499
902.141	19236
902.26	19225
902.379	19247
902.498	19213
902.617	19160
902.735	19187
902.854	19179
902.973	19099
903.091	18973
903.21	18916
903.328	18817
903.446	18734
903.565	18665
903.683	18738
903.801	18589
903.919	18601
904.038	18635
904.156	18448
904.274	18525
904.392	18483
904.51	18407
904.627	18422
904.745	18517
904.863	18642
904.981	18247
905.098	18034
905.216	18091
905.334	18186
905.451	18167
905.569	18171
905.686	18152
905.803	18083
905.921	17901
906.038	18007
906.155	17984
906.272	17821
906.389	17802
906.506	17726
906.623	17695
906.74	17680
906.857	17535
906.974	17661
907.091	17668
907.208	17760
907.324	17653
907.441	17600
907.557	17486
907.674	17318
907.79	17307
907.907	17303
908.023	17455
908.139	17322
908.256	17360
908.372	17376
908.488	17250
908.604	17113
908.72	17033
908.836	17045
908.952	17170
909.068	17064
909.184	17128
909.3	17113
909.415	17083
909.531	16957
909.647	16862
909.762	16828
909.878	16786
909.993	16869
910.108	16812
910.224	16649
910.339	16801
910.454	16702
910.57	16558
910.685	16554
910.8	16755
910.915	16774
911.03	16687
911.145	16440
911.259	16341
911.374	16432
911.489	16356
911.604	16268
911.718	16055
911.833	16162
911.947	16029
912.062	15975
912.176	16128
912.291	16071
912.405	16105
912.519	16325
912.633	16299
912.748	16124
912.862	16040
912.976	15930
913.09	15846
913.204	15918
913.318	15975
913.431	16059
913.545	15953
913.659	15975
913.772	15895
913.886	15770
914	15743
914.113	15850
914.226	15804
914.34	15823
914.453	15675
914.566	15774
914.68	15580
914.793	15584
914.906	15321
915.019	15298
915.132	15298
915.245	15298
915.358	15355
915.47	15310
915.583	15393
915.696	15393
915.809	15481
915.921	15447
916.034	15203
916.146	15249
916.259	15195
916.371	15313
916.483	15199
916.595	15252
916.708	15150
916.82	15127
916.932	15146
917.044	15017
917.156	15146
917.268	14979
917.38	14975
917.491	15005
917.603	14986
917.715	15017
917.826	15074
917.938	14948
918.049	14842
918.161	14876
918.272	15013
918.384	15009
918.495	14918
918.606	14697
918.717	14701
918.828	14754
918.939	14746
919.05	14727
919.161	14739
919.272	14522
919.383	14564
919.494	14842
919.604	14998
919.715	14796
919.826	14632
919.936	14644
920.047	14830
920.157	14712
920.267	14868
920.378	14720
920.488	14746
920.598	14921
920.708	14857
920.818	14819
920.928	14777
921.038	14941
921.148	14948
921.258	14617
921.368	14602
921.477	14465
921.587	14309
921.697	14298
921.806	14457
921.916	14252
922.025	14123
922.134	14088
922.244	14020
922.353	14149
922.462	13932
922.571	13826
922.68	13715
922.789	13655
922.898	13731
923.007	13670
923.116	13738
923.224	13681
923.333	13658
923.442	13643
923.55	13472
923.659	13472
923.767	13651
923.876	13403
923.984	13563
924.092	13381
924.201	13491
924.309	13422
924.417	13426
924.525	13419
924.633	13422
924.741	14256
924.849	13194
924.956	13251
925.064	13164
925.172	13015
925.279	13095
925.387	13137
925.494	13141
925.602	13240
925.709	13069
925.816	13038
925.924	13091
926.031	13175
926.138	13072
926.245	13129
926.352	12871
926.459	13095
926.566	13107
926.673	13031
926.779	12844
926.886	12772
926.993	12745
927.099	12719
927.206	12551
927.312	12639
927.419	12734
927.525	12616
927.631	12639
927.737	12540
927.843	12517
927.95	12502
928.056	12498
928.162	12494
928.267	12566
928.373	13156
928.479	12490
928.585	12266
928.69	12429
928.796	12460
928.901	12342
929.007	12133
929.112	12285
929.218	12327
929.323	12273
929.428	12216
929.533	12399
929.638	12129
929.743	12079
929.848	12247
929.953	12224
930.058	12114
930.163	11836
930.267	11897
930.372	12030
930.477	11813
930.581	12003
930.685	11984
930.79	11764
930.894	11809
930.998	11767
931.103	11961
931.207	11577
931.311	11482
931.415	11417
931.519	11193
931.623	11197
