Data from test_V78500241_1215.txt Node
Date: Fri Mar 25 15:18:18 CST 2022
User: usil
Spectrometer: V785-0024
Trigger mode: 0
Integration Time (sec): 4.000000E-1
Scans to average: 1
Nonlinearity correction enabled: false
Boxcar width: 0
Storing dark spectrum: false
XAxis mode: Wavelengths
Number of Pixels in Spectrum: 1024
>>>>>Begin Spectral Data<<<<<
801.071	28257
801.214	28150
801.356	27907
801.499	27857
801.641	27705
801.783	27739
801.926	27797
802.068	27785
802.211	27648
802.353	27682
802.496	27485
802.638	27454
802.78	27336
802.923	27340
803.065	27382
803.208	27252
803.35	27367
803.492	27492
803.635	27694
803.777	27526
803.919	27583
804.061	27903
804.204	27606
804.346	27637
804.488	27469
804.63	27576
804.773	27606
804.915	27671
805.057	27686
805.199	27675
805.341	27557
805.483	27751
805.626	27720
805.768	27698
805.91	27728
806.052	27759
806.194	27743
806.336	27854
806.478	27850
806.62	27804
806.762	27797
806.904	28082
807.046	28265
807.188	28139
807.33	28200
807.472	28063
807.614	28181
807.756	28131
807.898	27979
808.04	28010
808.182	27994
808.324	28029
808.465	28002
808.607	28242
808.749	28341
808.891	28561
809.033	28710
809.174	28451
809.316	28329
809.458	28268
809.6	28299
809.741	28497
809.883	28497
810.025	28584
810.166	28649
810.308	28706
810.45	28653
810.591	28607
810.733	28424
810.875	28493
811.016	28341
811.158	28242
811.299	28557
811.441	28569
811.582	28531
811.724	28485
811.865	28390
812.007	28447
812.148	28341
812.29	28440
812.431	28656
812.573	28866
812.714	28858
812.855	29022
812.997	28999
813.138	29094
813.279	29067
813.421	28904
813.562	28984
813.703	28793
813.845	28767
813.986	28390
814.127	28249
814.268	28124
814.41	28055
814.551	28116
814.692	28032
814.833	28131
814.974	27994
815.115	28070
815.256	28021
815.397	28036
815.539	28044
815.68	27857
815.821	27869
815.962	28067
816.103	27892
816.244	27831
816.385	27717
816.526	27603
816.666	27637
816.807	27397
816.948	27370
817.089	27507
817.23	27351
817.371	27595
817.512	27462
817.653	27370
817.793	27466
817.934	27492
818.075	27405
818.216	27466
818.356	27412
818.497	27313
818.638	27135
818.778	27340
818.919	27188
819.06	27363
819.2	27420
819.341	27496
819.481	27439
819.622	27648
819.762	27743
819.903	27759
820.043	27736
820.184	27511
820.324	27526
820.465	27599
820.605	27523
820.746	27603
820.886	27580
821.026	27526
821.167	27454
821.307	27572
821.447	27485
821.588	27420
821.728	27291
821.868	27096
822.008	27039
822.149	26891
822.289	26929
822.429	26606
822.569	26617
822.709	26712
822.849	26450
822.99	26453
823.13	26412
823.27	26336
823.41	26267
823.55	26111
823.69	26218
823.83	26218
823.97	26218
824.11	26119
824.25	26005
824.389	26111
824.529	26229
824.669	26172
824.809	26218
824.949	26309
825.089	26221
825.228	26237
825.368	25887
825.508	25993
825.648	25993
825.787	26024
825.927	26031
826.067	25986
826.206	25951
826.346	26020
826.485	26039
826.625	25989
826.765	26024
826.904	26035
827.044	25655
827.183	25803
827.323	25700
827.462	25693
827.601	25734
827.741	25635
827.88	25693
828.02	25620
828.159	25586
828.298	25693
828.437	25765
828.577	25601
828.716	25700
828.855	25685
828.994	25377
829.134	25392
829.273	25502
829.412	25373
829.551	25400
829.69	25327
829.829	25373
829.968	25468
830.107	25533
830.246	25388
830.385	25324
830.524	25377
830.663	25217
830.802	25183
830.941	24943
831.08	24989
831.219	25012
831.357	25050
831.496	25183
831.635	24932
831.774	24863
831.913	24856
832.051	24817
832.19	24897
832.329	24867
832.467	24833
832.606	24719
832.744	24745
832.883	24707
833.022	24658
833.16	24715
833.299	24623
833.437	24734
833.576	24696
833.714	24772
833.852	24791
833.991	24730
834.129	24852
834.267	24901
834.406	24696
834.544	24821
834.682	24760
834.821	24776
834.959	24939
835.097	24867
835.235	24814
835.373	24684
835.511	24772
835.65	24604
835.788	24585
835.926	24551
836.064	24403
836.202	24494
836.34	24498
836.478	24631
836.615	24532
836.753	24513
836.891	24650
837.029	24479
837.167	24532
837.305	24441
837.443	24578
837.58	24422
837.718	24555
837.856	24437
837.993	24479
838.131	24399
838.269	24232
838.406	24342
838.544	24186
838.681	24087
838.819	24098
838.956	24018
839.094	23885
839.231	24026
839.369	24129
839.506	24167
839.643	24095
839.781	23927
839.918	23870
840.055	23935
840.193	23863
840.33	23809
840.467	23802
840.604	23874
840.742	24106
840.879	23726
841.016	23707
841.153	23733
841.29	23851
841.427	23745
841.564	23866
841.701	23821
841.838	23714
841.975	23661
842.112	23680
842.249	23615
842.385	23539
842.522	23771
842.659	23596
842.796	23547
842.933	23547
843.069	23520
843.206	23551
843.343	23741
843.479	23619
843.616	23509
843.752	23395
843.889	23421
844.025	23524
844.162	23330
844.298	23478
844.435	23410
844.571	23326
844.708	23368
844.844	23528
844.98	23452
845.117	23398
845.253	23250
845.389	23216
845.525	23143
845.661	23216
845.798	23044
845.934	23155
846.07	23098
846.206	23128
846.342	23079
846.478	23044
846.614	22889
846.75	22778
846.886	22717
847.022	22858
847.158	22809
847.294	22824
847.429	22816
847.565	22778
847.701	23052
847.837	22615
847.972	22481
848.108	22763
848.244	22679
848.379	22443
848.515	22360
848.65	22333
848.786	22386
848.921	22512
849.057	22493
849.192	22470
849.328	22455
849.463	22470
849.598	22280
849.734	22382
849.869	22219
850.004	22181
850.14	22246
850.275	22249
850.41	22021
850.545	22048
850.68	22120
850.815	22261
850.95	22158
851.085	22394
851.22	22249
851.355	22272
851.49	22196
851.625	22192
851.76	22105
851.895	22215
852.03	22150
852.165	22139
852.299	22249
852.434	22272
852.569	22192
852.703	22192
852.838	22246
852.973	22284
853.107	22398
853.242	22063
853.376	21968
853.511	21979
853.645	22055
853.78	22070
853.914	22051
854.048	21998
854.183	21941
854.317	22090
854.451	22238
854.585	21937
854.72	21956
854.854	22044
854.988	21808
855.122	21956
855.256	21846
855.39	22105
855.524	22090
855.658	22063
855.792	21994
855.926	22044
856.06	22010
856.194	22128
856.327	21987
856.461	21842
856.595	21934
856.729	22017
856.862	22162
856.996	22063
857.13	22086
857.263	22128
857.397	22059
857.53	22013
857.664	22086
857.797	22105
857.931	22097
858.064	22044
858.197	22154
858.331	22078
858.464	21884
858.597	21895
858.731	21972
858.864	21937
858.997	21994
859.13	22010
859.263	21972
859.396	22109
859.529	21964
859.662	21934
859.795	21941
859.928	22070
860.061	22124
860.194	22109
860.327	22051
860.46	21972
860.592	22078
860.725	22158
860.858	22116
860.99	22032
861.123	21899
861.256	21937
861.388	22051
861.521	22797
861.653	21949
861.786	21762
861.918	21850
862.05	21892
862.183	21903
862.315	21972
862.447	21979
862.58	21755
862.712	21694
862.844	21747
862.976	21736
863.108	21698
863.24	22044
863.372	21667
863.504	21663
863.636	21686
863.768	21808
863.9	21728
864.032	21580
864.164	21713
864.296	21705
864.428	21747
864.559	21800
864.691	21819
864.823	21663
864.954	21675
865.086	21724
865.217	21583
865.349	21542
865.48	21591
865.612	21500
865.743	21675
865.875	21694
866.006	21599
866.137	21599
866.269	21576
866.4	21542
866.531	21545
866.662	21507
866.793	21473
866.924	21492
867.055	21291
867.186	21504
867.317	21462
867.448	21389
867.579	21542
867.71	21435
867.841	21435
867.972	21568
868.103	21374
868.233	21504
868.364	21473
868.495	21679
868.625	21789
868.756	21865
868.886	21759
869.017	21751
869.147	21873
869.278	21751
869.408	21747
869.539	21713
869.669	21979
869.799	21842
869.929	21934
870.06	21903
870.19	22044
870.32	22112
870.45	22188
870.58	21987
870.71	22166
870.84	22318
870.97	22154
871.1	22139
871.23	22207
871.36	22318
871.489	22200
871.619	22337
871.749	22436
871.879	22310
872.008	22405
872.138	22295
872.267	22291
872.397	22154
872.526	22192
872.656	22211
872.785	22158
872.915	22314
873.044	22504
873.173	22390
873.303	22329
873.432	22417
873.561	22413
873.69	22440
873.819	22333
873.948	22455
874.077	22360
874.206	22421
874.335	22276
874.464	22447
874.593	22660
874.722	22557
874.851	22569
874.979	22584
875.108	22630
875.237	22565
875.365	22527
875.494	22561
875.623	22725
875.751	22531
875.88	22580
876.008	22683
876.136	22793
876.265	22824
876.393	23075
876.521	22965
876.65	22980
876.778	23022
876.906	22923
877.034	22835
877.162	22934
877.29	22961
877.418	22824
877.546	22854
877.674	22976
877.802	22877
877.93	22927
878.058	22889
878.185	22767
878.313	22858
878.441	22896
878.568	22752
878.696	23006
878.824	22968
878.951	23064
879.079	23060
879.206	23212
879.333	23067
879.461	22968
879.588	23147
879.715	23071
879.842	23147
879.97	22949
880.097	22744
880.224	22729
880.351	22771
880.478	22759
880.605	22637
880.732	22687
880.859	22957
880.986	22721
881.112	22790
881.239	22622
881.366	22542
881.493	22443
881.619	22329
881.746	22352
881.872	22375
881.999	22268
882.125	22344
882.252	22322
882.378	22287
882.505	22379
882.631	22185
882.757	22120
882.883	22067
883.01	22048
883.136	21968
883.262	21876
883.388	21956
883.514	21968
883.64	22211
883.766	22021
883.892	21717
884.018	21831
884.143	21884
884.269	22101
884.395	21732
884.52	21698
884.646	21701
884.772	21622
884.897	21500
885.023	21610
885.148	21739
885.274	21831
885.399	21606
885.524	21583
885.65	21671
885.775	21603
885.9	21572
886.025	21618
886.15	21747
886.275	21599
886.4	21519
886.525	21633
886.65	21534
886.775	21614
886.9	21724
887.025	21892
887.149	21576
887.274	21378
887.399	21348
887.523	21393
887.648	21382
887.773	21298
887.897	21439
888.021	21523
888.146	21268
888.27	21454
888.395	21561
888.519	21325
888.643	21462
888.767	21416
888.891	21180
889.015	21222
889.139	21192
889.263	21161
889.387	21241
889.511	21355
889.635	21443
889.759	21184
889.883	21214
890.006	21287
890.13	21492
890.254	21093
890.377	21184
890.501	21043
890.624	20895
890.748	20956
890.871	20933
890.995	20667
891.118	20724
891.241	20815
891.364	20727
891.488	20944
891.611	20750
891.734	20731
891.857	20800
891.98	20842
892.103	20762
892.226	20724
892.349	20674
892.471	20530
892.594	20735
892.717	20495
892.839	20644
892.962	20811
893.085	20659
893.207	20602
893.33	20552
893.452	20522
893.575	20697
893.697	20598
893.819	20682
893.941	20746
894.064	20705
894.186	20640
894.308	20594
894.43	20720
894.552	20792
894.674	20735
894.796	20526
894.918	20609
895.04	20731
895.161	20598
895.283	20602
895.405	20526
895.526	20594
895.648	20648
895.769	20511
895.891	20644
896.012	20648
896.134	20640
896.255	20644
896.376	20644
896.498	20594
896.619	20720
896.74	20651
896.861	20602
896.982	21043
897.103	20998
897.224	20895
897.345	20880
897.466	20819
897.587	20804
897.708	20838
897.828	20765
897.949	20739
898.07	20556
898.19	20743
898.311	20872
898.431	20720
898.552	20887
898.672	20819
898.792	20807
898.913	20811
899.033	20777
899.153	20590
899.273	20545
899.393	20518
899.513	20495
899.633	20640
899.753	20533
899.873	20537
899.993	20621
900.113	20537
900.232	20552
900.352	20450
900.472	20362
900.591	20267
900.711	20434
900.83	20343
900.95	20324
901.069	20446
901.189	20282
901.308	20050
901.427	19967
901.546	19887
901.665	19928
901.784	19909
901.904	19795
902.023	19715
902.141	19483
902.26	19419
902.379	19514
902.498	19449
902.617	19441
902.735	19335
902.854	19312
902.973	19289
903.091	19031
903.21	19190
903.328	19015
903.446	18993
903.565	19080
903.683	18878
903.801	18665
903.919	18829
904.038	18875
904.156	18776
904.274	18696
904.392	18604
904.51	18658
904.627	18639
904.745	18757
904.863	18650
904.981	18418
905.098	18308
905.216	18311
905.334	18338
905.451	18384
905.569	18311
905.686	18407
905.803	18300
905.921	18159
906.038	18194
906.155	18182
906.272	18060
906.389	18015
906.506	17942
906.623	17923
906.74	17927
906.857	17619
906.974	17843
907.091	17878
907.208	17931
907.324	17779
907.441	17775
907.557	17532
907.674	17623
907.79	17452
907.907	17611
908.023	17581
908.139	17566
908.256	17547
908.372	17410
908.488	17532
908.604	17360
908.72	17170
908.836	17246
908.952	17284
909.068	17360
909.184	17322
909.3	17265
909.415	17296
909.531	17353
909.647	17075
909.762	17041
909.878	16904
909.993	16987
910.108	16850
910.224	16839
910.339	17025
910.454	16774
910.57	16725
910.685	16622
910.8	16949
910.915	16877
911.03	16824
911.145	16660
911.259	16489
911.374	16592
911.489	16462
911.604	16489
911.718	16356
911.833	16310
911.947	16177
912.062	16192
912.176	16314
912.291	16215
912.405	16325
912.519	16508
912.633	16500
912.748	16348
912.862	16253
912.976	16200
913.09	16002
913.204	16067
913.318	16128
913.431	16158
913.545	16173
913.659	16230
913.772	16074
913.886	15979
914	15819
914.113	15953
914.226	16006
914.34	15926
914.453	15865
914.566	15922
914.68	15800
914.793	15781
914.906	15595
915.019	15481
915.132	15408
915.245	15481
915.358	15519
915.47	15507
915.583	15477
915.696	15443
915.809	15591
915.921	15576
916.034	15507
916.146	15428
916.259	15424
916.371	15447
916.483	15439
916.595	15359
916.708	15306
916.82	15363
916.932	15351
917.044	15348
917.156	15226
917.268	15203
917.38	15150
917.491	15119
917.603	15199
917.715	15287
917.826	15287
917.938	15142
918.049	15081
918.161	15097
918.272	15192
918.384	15207
918.495	15081
918.606	14887
918.717	14921
918.828	14960
918.939	15028
919.05	14781
919.161	14944
919.272	14815
919.383	14788
919.494	14960
919.604	15119
919.715	14830
919.826	14845
919.936	14925
920.047	14963
920.157	14899
920.267	15077
920.378	14849
920.488	14819
920.598	14982
920.708	15237
920.818	14963
920.928	15058
921.038	15150
921.148	15203
921.258	14842
921.368	14682
921.477	14549
921.587	14621
921.697	14507
921.806	14636
921.916	14454
922.025	14358
922.134	14351
922.244	14161
922.353	14180
922.462	14153
922.571	14046
922.68	13982
922.789	13875
922.898	13974
923.007	13864
923.116	13890
923.224	13811
923.333	13856
923.442	13700
923.55	13719
923.659	13670
923.767	13822
923.876	13624
923.984	13677
924.092	13548
924.201	13620
924.309	13662
924.417	13571
924.525	13563
924.633	13556
924.741	14294
924.849	13339
924.956	13411
925.064	13362
925.172	13198
925.279	13304
925.387	13369
925.494	13293
925.602	13384
925.709	13335
925.816	13118
925.924	13209
926.031	13331
926.138	13183
926.245	13289
926.352	13179
926.459	13240
926.566	13263
926.673	13141
926.779	12985
926.886	13061
926.993	12897
927.099	12886
927.206	12776
927.312	12802
927.419	12924
927.525	12859
927.631	12852
927.737	12817
927.843	12639
927.95	12555
928.056	12692
928.162	12783
928.267	12703
928.373	13198
928.479	12726
928.585	12403
928.69	12612
928.796	12730
928.901	12570
929.007	12384
929.112	12479
929.218	12380
929.323	12323
929.428	12342
929.533	12464
929.638	12304
929.743	12311
929.848	12334
929.953	12285
930.058	12175
930.163	12053
930.267	12117
930.372	12175
930.477	12015
930.581	12319
930.685	12087
930.79	11923
930.894	11923
930.998	11939
931.103	11996
931.207	11676
931.311	11630
931.415	11478
931.519	11288
931.623	11292
