Data from test_V78500241_3042.txt Node
Date: Fri Mar 25 15:31:02 CST 2022
User: usil
Spectrometer: V785-0024
Trigger mode: 0
Integration Time (sec): 4.000000E-1
Scans to average: 1
Nonlinearity correction enabled: false
Boxcar width: 0
Storing dark spectrum: false
XAxis mode: Wavelengths
Number of Pixels in Spectrum: 1024
>>>>>Begin Spectral Data<<<<<
801.071	27287
801.214	27211
801.356	26933
801.499	26929
801.641	26781
801.783	26773
801.926	26792
802.068	26746
802.211	26739
802.353	26617
802.496	26461
802.638	26423
802.78	26286
802.923	26442
803.065	26244
803.208	26278
803.35	26324
803.492	26457
803.635	26511
803.777	26446
803.919	26423
804.061	26872
804.204	26644
804.346	26408
804.488	26434
804.63	26541
804.773	26377
804.915	26488
805.057	26541
805.199	26564
805.341	26560
805.483	26651
805.626	26549
805.768	26469
805.91	26689
806.052	26674
806.194	26484
806.336	26758
806.478	26705
806.62	26564
806.762	26678
806.904	26868
807.046	27203
807.188	27024
807.33	27032
807.472	27020
807.614	27081
807.756	27127
807.898	26845
808.04	26792
808.182	26906
808.324	26933
808.465	26937
808.607	27112
808.749	27116
808.891	27351
809.033	27534
809.174	27256
809.316	27138
809.458	27279
809.6	27195
809.741	27405
809.883	27355
810.025	27462
810.166	27496
810.308	27641
810.45	27344
810.591	27427
810.733	27298
810.875	27233
811.016	27081
811.158	27188
811.299	27462
811.441	27542
811.582	27473
811.724	27241
811.865	27252
812.007	27260
812.148	27214
812.29	27272
812.431	27367
812.573	27507
812.714	27523
812.855	27720
812.997	27869
813.138	27994
813.279	27895
813.421	27644
813.562	27553
813.703	27492
813.845	27447
813.986	27169
814.127	27062
814.268	26929
814.41	26708
814.551	26868
814.692	27058
814.833	26880
814.974	26914
815.115	26838
815.256	26724
815.397	26826
815.539	26807
815.68	26697
815.821	26594
815.962	26708
816.103	26667
816.244	26457
816.385	26400
816.526	26446
816.666	26320
816.807	26176
816.948	26183
817.089	26225
817.23	26153
817.371	26134
817.512	26016
817.653	26145
817.793	26096
817.934	26077
818.075	26233
818.216	26164
818.356	26240
818.497	26012
818.638	25921
818.778	25742
818.919	25818
819.06	25849
819.2	25925
819.341	26134
819.481	26157
819.622	26347
819.762	26362
819.903	26461
820.043	26370
820.184	26286
820.324	26122
820.465	26313
820.605	26172
820.746	26092
820.886	26062
821.026	26187
821.167	26122
821.307	26244
821.447	26031
821.588	26111
821.728	25917
821.868	25769
822.008	25563
822.149	25537
822.289	25567
822.429	25449
822.569	25365
822.709	25255
822.849	25171
822.99	25114
823.13	25061
823.27	25042
823.41	24977
823.55	24802
823.69	24943
823.83	24840
823.97	24859
824.11	24688
824.25	24764
824.389	24642
824.529	24760
824.669	24574
824.809	24859
824.949	24833
825.089	24791
825.228	24810
825.368	24483
825.508	24681
825.648	24456
825.787	24692
825.927	24692
826.067	24623
826.206	24612
826.346	24589
826.485	24639
826.625	24604
826.765	24772
826.904	24681
827.044	24285
827.183	24384
827.323	24270
827.462	24220
827.601	24209
827.741	24239
827.88	24266
828.02	24201
828.159	24285
828.298	24186
828.437	24429
828.577	24171
828.716	24319
828.855	24087
828.994	24015
829.134	23927
829.273	24079
829.412	24049
829.551	23851
829.69	24076
829.829	24148
829.968	24091
830.107	24148
830.246	23980
830.385	24030
830.524	23923
830.663	23901
830.802	23672
830.941	23642
831.08	23539
831.219	23653
831.357	23577
831.496	23893
831.635	23653
831.774	23528
831.913	23471
832.051	23387
832.19	23471
832.329	23356
832.467	23349
832.606	23356
832.744	23242
832.883	23200
833.022	23242
833.16	23181
833.299	23414
833.437	23349
833.576	23410
833.714	23307
833.852	23425
833.991	23391
834.129	23391
834.267	23273
834.406	23280
834.544	23425
834.682	23265
834.821	23292
834.959	23433
835.097	23280
835.235	23353
835.373	23216
835.511	23379
835.65	23239
835.788	23200
835.926	23140
836.064	22949
836.202	23041
836.34	23185
836.478	23337
836.615	23200
836.753	23235
836.891	23143
837.029	23105
837.167	23037
837.305	23178
837.443	23056
837.58	22999
837.718	23041
837.856	23067
837.993	22980
838.131	23010
838.269	22873
838.406	22930
838.544	22908
838.681	22721
838.819	22615
838.956	22428
839.094	22466
839.231	22603
839.369	22637
839.506	22790
839.643	22645
839.781	22497
839.918	22436
840.055	22390
840.193	22432
840.33	22481
840.467	22440
840.604	22489
840.742	22828
840.879	22291
841.016	22295
841.153	22261
841.29	22535
841.427	22455
841.564	22394
841.701	22398
841.838	22402
841.975	22284
842.112	22261
842.249	22287
842.385	22253
842.522	22478
842.659	22314
842.796	22181
842.933	22101
843.069	22162
843.206	22105
843.343	22200
843.479	22147
843.616	22181
843.752	21994
843.889	21915
844.025	22101
844.162	21956
844.298	22063
844.435	21953
844.571	21835
844.708	21945
844.844	22101
844.98	22131
845.117	22059
845.253	21846
845.389	21895
845.525	21857
845.661	21732
845.798	21720
845.934	21694
846.07	21679
846.206	21720
846.342	21728
846.478	21736
846.614	21591
846.75	21351
846.886	21488
847.022	21500
847.158	21412
847.294	21355
847.429	21473
847.565	21431
847.701	21625
847.837	21226
847.972	21138
848.108	21317
848.244	21116
848.379	21127
848.515	21058
848.65	20998
848.786	21051
848.921	20876
849.057	21089
849.192	21119
849.328	20956
849.463	21055
849.598	20990
849.734	20960
849.869	20853
850.004	20754
850.14	20842
850.275	20750
850.41	20682
850.545	20674
850.68	20720
850.815	20857
850.95	20796
851.085	20963
851.22	20914
851.355	20765
851.49	20853
851.625	20769
851.76	20758
851.895	20739
852.03	20735
852.165	20842
852.299	20849
852.434	20975
852.569	20834
852.703	20777
852.838	20960
852.973	20872
853.107	20895
853.242	20773
853.376	20727
853.511	20495
853.645	20533
853.78	20663
853.914	20617
854.048	20609
854.183	20731
854.317	20716
854.451	20731
854.585	20746
854.72	20587
854.854	20689
854.988	20518
855.122	20739
855.256	20549
855.39	20537
855.524	20746
855.658	20625
855.792	20743
855.926	20682
856.06	20727
856.194	20678
856.327	20575
856.461	20617
856.595	20678
856.729	20746
856.862	20724
856.996	20621
857.13	20682
857.263	20686
857.397	20777
857.53	20606
857.664	20621
857.797	20693
857.931	20705
858.064	20621
858.197	20701
858.331	20545
858.464	20693
858.597	20431
858.731	20644
858.864	20659
858.997	20549
859.13	20727
859.263	20708
859.396	20727
859.529	20727
859.662	20552
859.795	20712
859.928	20625
860.061	20807
860.194	20861
860.327	20629
860.46	20571
860.592	20758
860.725	20765
860.858	20746
860.99	20785
861.123	20590
861.256	20492
861.388	20708
861.521	21218
861.653	20495
861.786	20404
861.918	20442
862.05	20476
862.183	20549
862.315	20590
862.447	20651
862.58	20518
862.712	20362
862.844	20301
862.976	20461
863.108	20301
863.24	20785
863.372	20275
863.504	20305
863.636	20336
863.768	20423
863.9	20336
864.032	20351
864.164	20275
864.296	20355
864.428	20454
864.559	20465
864.691	20362
864.823	20381
864.954	20404
865.086	20256
865.217	20328
865.349	20122
865.48	20142
865.612	20282
865.743	20412
865.875	20290
866.006	20256
866.137	20320
866.269	20263
866.4	20244
866.531	20180
866.662	20161
866.793	20145
866.924	20199
867.055	20153
867.186	20210
867.317	20233
867.448	20233
867.579	20161
867.71	20195
867.841	20187
867.972	20183
868.103	20256
868.233	20278
868.364	20324
868.495	20176
868.625	20457
868.756	20408
868.886	20339
869.017	20473
869.147	20530
869.278	20537
869.408	20469
869.539	20446
869.669	20579
869.799	20575
869.929	20594
870.06	20473
870.19	20765
870.32	20693
870.45	20758
870.58	20929
870.71	20952
870.84	20880
870.97	20857
871.1	20838
871.23	21081
871.36	21108
871.489	20975
871.619	21055
871.749	21077
871.879	21070
872.008	21157
872.138	21085
872.267	21013
872.397	20929
872.526	20944
872.656	20937
872.785	20796
872.915	21039
873.044	21093
873.173	20963
873.303	21173
873.432	21138
873.561	21123
873.69	21119
873.819	20975
873.948	21093
874.077	20979
874.206	21077
874.335	20960
874.464	21237
874.593	21264
874.722	21218
874.851	21321
874.979	21340
875.108	21401
875.237	21195
875.365	21199
875.494	21249
875.623	21431
875.751	21291
875.88	21340
876.008	21454
876.136	21496
876.265	21827
876.393	21857
876.521	21812
876.65	21713
876.778	21751
876.906	21660
877.034	21641
877.162	21739
877.29	21622
877.418	21652
877.546	21641
877.674	21705
877.802	21595
877.93	21587
878.058	21492
878.185	21488
878.313	21523
878.441	21599
878.568	21351
878.696	21671
878.824	21625
878.951	21682
879.079	21732
879.206	21956
879.333	21774
879.461	21701
879.588	21717
879.715	21823
879.842	22017
879.97	21778
880.097	21614
880.224	21485
880.351	21500
880.478	21469
880.605	21504
880.732	21439
880.859	21648
880.986	21545
881.112	21469
881.239	21348
881.366	21195
881.493	21230
881.619	21074
881.746	21131
881.872	20986
881.999	21036
882.125	21055
882.252	21119
882.378	20872
882.505	21283
882.631	20842
882.757	20800
882.883	20857
883.01	20788
883.136	20697
883.262	20594
883.388	20606
883.514	20864
883.64	20758
883.766	20716
883.892	20632
884.018	20488
884.143	20697
884.269	20826
884.395	20469
884.52	20385
884.646	20431
884.772	20385
884.897	20328
885.023	20431
885.148	20568
885.274	20568
885.399	20503
885.524	20438
885.65	20469
885.775	20385
885.9	20415
886.025	20545
886.15	20526
886.275	20339
886.4	20313
886.525	20377
886.65	20275
886.775	20309
886.9	20480
887.025	20575
887.149	20427
887.274	20183
887.399	20138
887.523	20153
887.648	20069
887.773	20088
887.897	20263
888.021	20195
888.146	20058
888.27	20298
888.395	20248
888.519	20191
888.643	20092
888.767	20221
888.891	20103
889.015	20020
889.139	20012
889.263	20134
889.387	20107
889.511	20252
889.635	20126
889.759	19932
889.883	19951
890.006	20008
890.13	20005
890.254	19970
890.377	19818
890.501	19871
890.624	19780
890.748	19731
890.871	19643
890.995	19434
891.118	19578
891.241	19556
891.364	19620
891.488	19811
891.611	19655
891.734	19537
891.857	19620
891.98	19620
892.103	19620
892.226	19506
892.349	19411
892.471	19403
892.594	19430
892.717	19559
892.839	19480
892.962	19502
893.085	19601
893.207	19559
893.33	19430
893.452	19464
893.575	19533
893.697	19419
893.819	19616
893.941	19620
894.064	19624
894.186	19445
894.308	19335
894.43	19559
894.552	19582
894.674	19578
894.796	19407
894.918	19403
895.04	19438
895.161	19529
895.283	19327
895.405	19377
895.526	19518
895.648	19514
895.769	19525
895.891	19582
896.012	19453
896.134	19556
896.255	19434
896.376	19472
896.498	19438
896.619	19635
896.74	19487
896.861	19643
896.982	19887
897.103	19974
897.224	19795
897.345	19715
897.466	19552
897.587	19734
897.708	19887
897.828	19757
897.949	19670
898.07	19502
898.19	19643
898.311	19811
898.431	19624
898.552	19738
898.672	19814
898.792	19750
898.913	19890
899.033	19563
899.153	19670
899.273	19415
899.393	19483
899.513	19457
899.633	19571
899.753	19605
899.873	19518
899.993	19533
900.113	19483
900.232	19453
900.352	19392
900.472	19365
900.591	19263
900.711	19350
900.83	19289
900.95	19453
901.069	19304
901.189	19225
901.308	18935
901.427	18932
901.546	18897
901.665	18844
901.784	18905
901.904	18711
902.023	18650
902.141	18589
902.26	18452
902.379	18391
902.498	18342
902.617	18376
902.735	18422
902.854	18281
902.973	18346
903.091	18030
903.21	18091
903.328	18057
903.446	18038
903.565	17859
903.683	17889
903.801	17798
903.919	17836
904.038	17908
904.156	17642
904.274	17733
904.392	17665
904.51	17615
904.627	17695
904.745	17764
904.863	17699
904.981	17455
905.098	17258
905.216	17318
905.334	17330
905.451	17307
905.569	17356
905.686	17296
905.803	17299
905.921	17014
906.038	17227
906.155	17075
906.272	17022
906.389	17052
906.506	16885
906.623	16900
906.74	16858
906.857	16889
906.974	16694
907.091	16843
907.208	17010
907.324	16930
907.441	16759
907.557	16641
907.674	16618
907.79	16421
907.907	16558
908.023	16691
908.139	16599
908.256	16573
908.372	16550
908.488	16497
908.604	16440
908.72	16154
908.836	16268
908.952	16207
909.068	16284
909.184	16424
909.3	16234
909.415	16390
909.531	16173
909.647	16105
909.762	16010
909.878	15880
909.993	15979
910.108	16013
910.224	15926
910.339	15956
910.454	15835
910.57	15797
910.685	15800
910.8	16021
910.915	16021
911.03	15705
911.145	15675
911.259	15538
911.374	15698
911.489	15564
911.604	15485
911.718	15397
911.833	15393
911.947	15279
912.062	15291
912.176	15294
912.291	15435
912.405	15367
912.519	15519
912.633	15603
912.748	15287
912.862	15325
912.976	15207
913.09	15081
913.204	15093
913.318	15233
913.431	15378
913.545	15252
913.659	15329
913.772	15112
913.886	15058
914	14952
914.113	15032
914.226	15195
914.34	15104
914.453	14796
914.566	15009
914.68	14872
914.793	14796
914.906	14625
915.019	14594
915.132	14659
915.245	14636
915.358	14629
915.47	14533
915.583	14610
915.696	14735
915.809	14697
915.921	14815
916.034	14541
916.146	14514
916.259	14461
916.371	14552
916.483	14629
916.595	14526
916.708	14446
916.82	14503
916.932	14457
917.044	14454
917.156	14385
917.268	14282
917.38	14301
917.491	14332
917.603	14328
917.715	14290
917.826	14362
917.938	14187
918.049	14153
918.161	14214
918.272	14347
918.384	14366
918.495	14328
918.606	14096
918.717	14103
918.828	13986
918.939	14119
919.05	13913
919.161	14005
919.272	13784
919.383	13936
919.494	14020
919.604	14206
919.715	14005
919.826	13940
919.936	14043
920.047	14138
920.157	14054
920.267	14214
920.378	14050
920.488	13982
920.598	14244
920.708	14324
920.818	14134
920.928	14210
921.038	14419
921.148	14282
921.258	14039
921.368	13864
921.477	13833
921.587	13734
921.697	13616
921.806	13807
921.916	13601
922.025	13552
922.134	13480
922.244	13430
922.353	13506
922.462	13415
922.571	13308
922.68	13168
922.789	12916
922.898	13080
923.007	13019
923.116	13133
923.224	13050
923.333	13038
923.442	12981
923.55	12947
923.659	12905
923.767	12962
923.876	12875
923.984	12913
924.092	12814
924.201	12932
924.309	12863
924.417	12844
924.525	12768
924.633	12810
924.741	13651
924.849	12658
924.956	12798
925.064	12486
925.172	12456
925.279	12570
925.387	12490
925.494	12555
925.602	12635
925.709	12502
925.816	12437
925.924	12506
926.031	12532
926.138	12486
926.245	12483
926.352	12376
926.459	12479
926.566	12639
926.673	12403
926.779	12300
926.886	12281
926.993	12239
927.099	12049
927.206	12125
927.312	12129
927.419	12148
927.525	12117
927.631	12159
927.737	11988
927.843	11946
927.95	11863
928.056	11942
928.162	11946
928.267	11984
928.373	12631
928.479	12064
928.585	11840
928.69	11889
928.796	11920
928.901	11798
929.007	11642
929.112	11813
929.218	11843
929.323	11649
929.428	11665
929.533	11817
929.638	11589
929.743	11630
929.848	11657
929.953	11699
930.058	11539
930.163	11307
930.267	11318
930.372	11547
930.477	11337
930.581	11478
930.685	11444
930.79	11246
930.894	11216
930.998	11269
931.103	11315
931.207	11094
931.311	10972
931.415	10885
931.519	10637
931.623	10641
