Data from test_V78500241_1231.txt Node
Date: Fri Mar 25 15:18:25 CST 2022
User: usil
Spectrometer: V785-0024
Trigger mode: 0
Integration Time (sec): 4.000000E-1
Scans to average: 1
Nonlinearity correction enabled: false
Boxcar width: 0
Storing dark spectrum: false
XAxis mode: Wavelengths
Number of Pixels in Spectrum: 1024
>>>>>Begin Spectral Data<<<<<
801.071	28090
801.214	28109
801.356	27835
801.499	27797
801.641	27564
801.783	27724
801.926	27652
802.068	27545
802.211	27595
802.353	27538
802.496	27370
802.638	27348
802.78	27268
802.923	27359
803.065	27340
803.208	27226
803.35	27321
803.492	27348
803.635	27534
803.777	27443
803.919	27603
804.061	27941
804.204	27545
804.346	27454
804.488	27408
804.63	27435
804.773	27321
804.915	27576
805.057	27671
805.199	27538
805.341	27622
805.483	27743
805.626	27785
805.768	27511
805.91	27690
806.052	27580
806.194	27732
806.336	27812
806.478	27709
806.62	27641
806.762	27755
806.904	28010
807.046	28131
807.188	28086
807.33	28055
807.472	28143
807.614	28063
807.756	27998
807.898	28116
808.04	27941
808.182	27865
808.324	27972
808.465	28090
808.607	28238
808.749	28310
808.891	28394
809.033	28656
809.174	28546
809.316	28367
809.458	28242
809.6	28401
809.741	28424
809.883	28405
810.025	28664
810.166	28542
810.308	28793
810.45	28462
810.591	28538
810.733	28440
810.875	28394
811.016	28169
811.158	28246
811.299	28352
811.441	28519
811.582	28512
811.724	28310
811.865	28261
812.007	28466
812.148	28379
812.29	28344
812.431	28504
812.573	28748
812.714	28854
812.855	28915
812.997	28968
813.138	29117
813.279	28995
813.421	28927
813.562	28755
813.703	28850
813.845	28672
813.986	28436
814.127	28192
814.268	28116
814.41	27960
814.551	28078
814.692	28226
814.833	28051
814.974	28025
815.115	28082
815.256	27861
815.397	27922
815.539	27972
815.68	27816
815.821	27800
815.962	27922
816.103	27907
816.244	27827
816.385	27580
816.526	27644
816.666	27568
816.807	27321
816.948	27355
817.089	27519
817.23	27397
817.371	27393
817.512	27443
817.653	27374
817.793	27306
817.934	27313
818.075	27351
818.216	27336
818.356	27310
818.497	27427
818.638	27085
818.778	27077
818.919	27131
819.06	27237
819.2	27116
819.341	27313
819.481	27435
819.622	27496
819.762	27724
819.903	27648
820.043	27591
820.184	27534
820.324	27466
820.465	27500
820.605	27504
820.746	27431
820.886	27439
821.026	27401
821.167	27462
821.307	27443
821.447	27408
821.588	27298
821.728	27230
821.868	27028
822.008	26914
822.149	26811
822.289	26815
822.429	26598
822.569	26503
822.709	26499
822.849	26355
822.99	26347
823.13	26457
823.27	26336
823.41	26313
823.55	26084
823.69	26191
823.83	26115
823.97	26172
824.11	26077
824.25	25932
824.389	26119
824.529	25978
824.669	25966
824.809	26130
824.949	26050
825.089	26096
825.228	26050
825.368	25818
825.508	25746
825.648	26024
825.787	25932
825.927	25906
826.067	25833
826.206	25883
826.346	25925
826.485	25986
826.625	25879
826.765	26005
826.904	25852
827.044	25757
827.183	25742
827.323	25578
827.462	25674
827.601	25635
827.741	25449
827.88	25632
828.02	25609
828.159	25575
828.298	25578
828.437	25639
828.577	25521
828.716	25693
828.855	25438
828.994	25362
829.134	25358
829.273	25293
829.412	25255
829.551	25320
829.69	25320
829.829	25320
829.968	25525
830.107	25327
830.246	25297
830.385	25236
830.524	25228
830.663	25126
830.802	25065
830.941	24973
831.08	24970
831.219	24954
831.357	25031
831.496	25263
831.635	24981
831.774	24916
831.913	24764
832.051	24677
832.19	24776
832.329	24661
832.467	24650
832.606	24692
832.744	24585
832.883	24536
833.022	24612
833.16	24650
833.299	24604
833.437	24764
833.576	24734
833.714	24661
833.852	24692
833.991	24681
834.129	24715
834.267	24787
834.406	24658
834.544	24623
834.682	24635
834.821	24677
834.959	24844
835.097	24612
835.235	24631
835.373	24681
835.511	24700
835.65	24544
835.788	24490
835.926	24403
836.064	24433
836.202	24376
836.34	24471
836.478	24601
836.615	24448
836.753	24585
836.891	24479
837.029	24547
837.167	24399
837.305	24361
837.443	24395
837.58	24441
837.718	24445
837.856	24308
837.993	24391
838.131	24372
838.269	24213
838.406	24281
838.544	24163
838.681	23946
838.819	23893
838.956	23756
839.094	23756
839.231	23802
839.369	23942
839.506	24292
839.643	24114
839.781	23817
839.918	23726
840.055	23859
840.193	23775
840.33	23733
840.467	23737
840.604	23828
840.742	23958
840.879	23600
841.016	23562
841.153	23611
841.29	23866
841.427	23699
841.564	23672
841.701	23710
841.838	23695
841.975	23585
842.112	23535
842.249	23528
842.385	23444
842.522	23615
842.659	23630
842.796	23436
842.933	23516
843.069	23376
843.206	23478
843.343	23509
843.479	23531
843.616	23440
843.752	23143
843.889	23280
844.025	23318
844.162	23246
844.298	23360
844.435	23193
844.571	23181
844.708	23178
844.844	23353
844.98	23395
845.117	23353
845.253	23174
845.389	23075
845.525	23079
845.661	23044
845.798	22915
845.934	23052
846.07	23025
846.206	23041
846.342	23029
846.478	22854
846.614	22611
846.75	22755
846.886	22797
847.022	22733
847.158	22824
847.294	22752
847.429	22755
847.565	22596
847.701	22938
847.837	22394
847.972	22417
848.108	22519
848.244	22497
848.379	22253
848.515	22276
848.65	22284
848.786	22272
848.921	22402
849.057	22417
849.192	22390
849.328	22249
849.463	22363
849.598	22287
849.734	22207
849.869	22105
850.004	22002
850.14	22154
850.275	22082
850.41	22135
850.545	22002
850.68	22070
850.815	22185
850.95	21991
851.085	22200
851.22	22325
851.355	22078
851.49	21979
851.625	22116
851.76	22139
851.895	22010
852.03	21972
852.165	22173
852.299	22090
852.434	22010
852.569	22135
852.703	22040
852.838	22219
852.973	22128
853.107	22219
853.242	21956
853.376	21915
853.511	21850
853.645	21873
853.78	22010
853.914	21831
854.048	21854
854.183	21835
854.317	21865
854.451	22097
854.585	21819
854.72	21846
854.854	21983
854.988	21854
855.122	21934
855.256	21816
855.39	21724
855.524	21968
855.658	21926
855.792	21918
855.926	21934
856.06	21953
856.194	22032
856.327	21808
856.461	21888
856.595	21850
856.729	21880
856.862	21994
856.996	22070
857.13	22040
857.263	21998
857.397	21945
857.53	21895
857.664	21915
857.797	21842
857.931	22048
858.064	21949
858.197	21968
858.331	21812
858.464	21861
858.597	21895
858.731	21861
858.864	21937
858.997	21880
859.13	21972
859.263	21873
859.396	21918
859.529	21831
859.662	21865
859.795	21869
859.928	21823
860.061	21857
860.194	22025
860.327	21857
860.46	21968
860.592	21930
860.725	22067
860.858	21869
860.99	21960
861.123	21876
861.256	21751
861.388	21865
861.521	22573
861.653	21827
861.786	21614
861.918	21747
862.05	21804
862.183	21831
862.315	21747
862.447	21827
862.58	21766
862.712	21629
862.844	21477
862.976	21679
863.108	21603
863.24	21953
863.372	21530
863.504	21591
863.636	21660
863.768	21610
863.9	21507
864.032	21462
864.164	21591
864.296	21610
864.428	21816
864.559	21614
864.691	21694
864.823	21637
864.954	21637
865.086	21610
865.217	21454
865.349	21450
865.48	21435
865.612	21405
865.743	21686
865.875	21466
866.006	21401
866.137	21507
866.269	21576
866.4	21488
866.531	21538
866.662	21412
866.793	21336
866.924	21424
867.055	21336
867.186	21488
867.317	21355
867.448	21367
867.579	21405
867.71	21351
867.841	21378
867.972	21412
868.103	21313
868.233	21435
868.364	21477
868.495	21462
868.625	21732
868.756	21732
868.886	21549
869.017	21736
869.147	21842
869.278	21736
869.408	21549
869.539	21564
869.669	21759
869.799	21698
869.929	21892
870.06	21705
870.19	21968
870.32	21975
870.45	22124
870.58	22013
870.71	22055
870.84	22158
870.97	22090
871.1	22044
871.23	22200
871.36	22139
871.489	22025
871.619	22177
871.749	22303
871.879	22166
872.008	22291
872.138	22287
872.267	22242
872.397	21987
872.526	22025
872.656	22082
872.785	22048
872.915	22284
873.044	22424
873.173	22291
873.303	22192
873.432	22352
873.561	22360
873.69	22276
873.819	22268
873.948	22226
874.077	22238
874.206	22268
874.335	22257
874.464	22318
874.593	22535
874.722	22363
874.851	22493
874.979	22516
875.108	22504
875.237	22295
875.365	22341
875.494	22375
875.623	22527
875.751	22394
875.88	22542
876.008	22630
876.136	22664
876.265	22805
876.393	22995
876.521	22805
876.65	22980
876.778	22866
876.906	22835
877.034	22812
877.162	22706
877.29	22782
877.418	22854
877.546	22793
877.674	22812
877.802	22733
877.93	22854
878.058	22725
878.185	22710
878.313	22721
878.441	22782
878.568	22847
878.696	22759
878.824	22767
878.951	22942
879.079	23018
879.206	23121
879.333	22938
879.461	22797
879.588	22961
879.715	23018
879.842	23060
879.97	22831
880.097	22634
880.224	22607
880.351	22759
880.478	22660
880.605	22675
880.732	22683
880.859	22862
880.986	22717
881.112	22683
881.239	22694
881.366	22344
881.493	22295
881.619	22215
881.746	22272
881.872	22284
881.999	22200
882.125	22090
882.252	22215
882.378	22143
882.505	22306
882.631	21994
882.757	21915
882.883	22040
883.01	21892
883.136	21930
883.262	21789
883.388	21762
883.514	21823
883.64	21968
883.766	21785
883.892	21618
884.018	21679
884.143	21884
884.269	21835
884.395	21663
884.52	21667
884.646	21603
884.772	21523
884.897	21507
885.023	21618
885.148	21564
885.274	21648
885.399	21705
885.524	21583
885.65	21572
885.775	21492
885.9	21557
886.025	21709
886.15	21648
886.275	21507
886.4	21405
886.525	21408
886.65	21447
886.775	21405
886.9	21633
887.025	21762
887.149	21515
887.274	21496
887.399	21192
887.523	21283
887.648	21317
887.773	21123
887.897	21313
888.021	21416
888.146	21233
888.27	21450
888.395	21332
888.519	21313
888.643	21340
888.767	21344
888.891	21294
889.015	21150
889.139	21188
889.263	21123
889.387	21294
889.511	21279
889.635	21283
889.759	21055
889.883	21100
890.006	21203
890.13	21252
890.254	20994
890.377	20971
890.501	20887
890.624	20902
890.748	20967
890.871	20758
890.995	20663
891.118	20530
891.241	20583
891.364	20731
891.488	20693
891.611	20606
891.734	20659
891.857	20754
891.98	20674
892.103	20765
892.226	20587
892.349	20674
892.471	20423
892.594	20674
892.717	20629
892.839	20632
892.962	20659
893.085	20556
893.207	20568
893.33	20438
893.452	20518
893.575	20571
893.697	20579
893.819	20796
893.941	20705
894.064	20667
894.186	20594
894.308	20313
894.43	20697
894.552	20674
894.674	20682
894.796	20343
894.918	20606
895.04	20579
895.161	20629
895.283	20613
895.405	20518
895.526	20503
895.648	20590
895.769	20495
895.891	20594
896.012	20686
896.134	20587
896.255	20644
896.376	20579
896.498	20606
896.619	20571
896.74	20625
896.861	20621
896.982	20971
897.103	20921
897.224	20830
897.345	20804
897.466	20743
897.587	20758
897.708	20788
897.828	20712
897.949	20693
898.07	20632
898.19	20701
898.311	20804
898.431	20632
898.552	20777
898.672	20868
898.792	20796
898.913	20659
899.033	20682
899.153	20446
899.273	20442
899.393	20617
899.513	20480
899.633	20503
899.753	20606
899.873	20377
899.993	20514
900.113	20434
900.232	20408
900.352	20370
900.472	20271
900.591	20191
900.711	20313
900.83	20301
900.95	20438
901.069	20313
901.189	20119
901.308	19932
901.427	19868
901.546	19898
901.665	19814
901.784	20008
901.904	19685
902.023	19753
902.141	19400
902.26	19346
902.379	19358
902.498	19316
902.617	19301
902.735	19403
902.854	19247
902.973	19171
903.091	18958
903.21	18985
903.328	19019
903.446	18894
903.565	18856
903.683	18814
903.801	18681
903.919	18753
904.038	18715
904.156	18719
904.274	18582
904.392	18547
904.51	18555
904.627	18608
904.745	18696
904.863	18631
904.981	18418
905.098	18220
905.216	18247
905.334	18384
905.451	18258
905.569	18201
905.686	18277
905.803	18209
905.921	18026
906.038	18030
906.155	18121
906.272	17988
906.389	17866
906.506	17714
906.623	17786
906.74	17813
906.857	17718
906.974	17733
907.091	17809
907.208	17920
907.324	17737
907.441	17611
907.557	17615
907.674	17509
907.79	17493
907.907	17425
908.023	17573
908.139	17524
908.256	17410
908.372	17433
908.488	17383
908.604	17208
908.72	17231
908.836	17296
908.952	17242
909.068	17239
909.184	17258
909.3	17235
909.415	17242
909.531	17250
909.647	16953
909.762	17003
909.878	16881
909.993	16961
910.108	16915
910.224	16881
910.339	16793
910.454	16809
910.57	16675
910.685	16618
910.8	16957
910.915	16946
911.03	16767
911.145	16538
911.259	16470
911.374	16554
911.489	16409
911.604	16303
911.718	16284
911.833	16242
911.947	16147
912.062	16082
912.176	16344
912.291	16230
912.405	16257
912.519	16440
912.633	16398
912.748	16219
912.862	16181
912.976	16177
913.09	15926
913.204	15987
913.318	16017
913.431	16067
913.545	16200
913.659	16074
913.772	15953
913.886	15915
914	15926
914.113	15983
914.226	15998
914.34	16044
914.453	15842
914.566	15854
914.68	15762
914.793	15762
914.906	15507
915.019	15492
915.132	15454
915.245	15542
915.358	15447
915.47	15431
915.583	15530
915.696	15458
915.809	15572
915.921	15534
916.034	15355
916.146	15340
916.259	15378
916.371	15435
916.483	15344
916.595	15397
916.708	15321
916.82	15241
916.932	15321
917.044	15211
917.156	15180
917.268	15055
917.38	15093
917.491	15116
917.603	15070
917.715	15180
917.826	15233
917.938	15055
918.049	14994
918.161	15070
918.272	15180
918.384	15112
918.495	14929
918.606	14929
918.717	14796
918.828	14857
918.939	14785
919.05	14815
919.161	14796
919.272	14648
919.383	14785
919.494	14979
919.604	15024
919.715	14743
919.826	14689
919.936	14807
920.047	14925
920.157	14796
920.267	14929
920.378	14838
920.488	14663
920.598	14971
920.708	15032
920.818	14868
920.928	15005
921.038	15150
921.148	14963
921.258	14777
921.368	14575
921.477	14492
921.587	14473
921.697	14358
921.806	14412
921.916	14480
922.025	14183
922.134	14176
922.244	14035
922.353	14149
922.462	14062
922.571	13997
922.68	13879
922.789	13807
922.898	13852
923.007	13708
923.116	13894
923.224	13826
923.333	13852
923.442	13685
923.55	13666
923.659	13666
923.767	13674
923.876	13567
923.984	13681
924.092	13582
924.201	13544
924.309	13514
924.417	13426
924.525	13373
924.633	13434
924.741	14191
924.849	13316
924.956	13308
925.064	13251
925.172	13240
925.279	13236
925.387	13160
925.494	13209
925.602	13297
925.709	13221
925.816	13141
925.924	13228
926.031	13221
926.138	13080
926.245	13164
926.352	13065
926.459	13160
926.566	13244
926.673	13065
926.779	12954
926.886	13012
926.993	12894
927.099	12810
927.206	12646
927.312	12700
927.419	12768
927.525	12783
927.631	12738
927.737	12604
927.843	12589
927.95	12506
928.056	12578
928.162	12734
928.267	12639
928.373	13251
928.479	12604
928.585	12365
928.69	12547
928.796	12513
928.901	12490
929.007	12289
929.112	12437
929.218	12342
929.323	12327
929.428	12296
929.533	12441
929.638	12182
929.743	12296
929.848	12270
929.953	12201
930.058	12140
930.163	11950
930.267	12041
930.372	12110
930.477	11980
930.581	12155
930.685	12041
930.79	11802
930.894	11859
930.998	11840
931.103	11916
931.207	11608
931.311	11539
931.415	11509
931.519	11208
931.623	11250
