Data from test_V78500241_559.txt Node
Date: Fri Mar 25 15:13:45 CST 2022
User: usil
Spectrometer: V785-0024
Trigger mode: 0
Integration Time (sec): 4.000000E-1
Scans to average: 1
Nonlinearity correction enabled: false
Boxcar width: 0
Storing dark spectrum: false
XAxis mode: Wavelengths
Number of Pixels in Spectrum: 1024
>>>>>Begin Spectral Data<<<<<
801.071	27222
801.214	27112
801.356	26834
801.499	26834
801.641	26857
801.783	26746
801.926	26697
802.068	26621
802.211	26636
802.353	26469
802.496	26267
802.638	26218
802.78	26328
802.923	26419
803.065	26206
803.208	26377
803.35	26294
803.492	26503
803.635	26389
803.777	26393
803.919	26594
804.061	26602
804.204	26434
804.346	26374
804.488	26465
804.63	26324
804.773	26328
804.915	26423
805.057	26571
805.199	26492
805.341	26453
805.483	26674
805.626	26503
805.768	26431
805.91	26492
806.052	26507
806.194	26492
806.336	26678
806.478	26602
806.62	26583
806.762	26636
806.904	26994
807.046	27062
807.188	26975
807.33	26872
807.472	27093
807.614	27001
807.756	27001
807.898	26792
808.04	26670
808.182	26792
808.324	26826
808.465	26849
808.607	27043
808.749	27138
808.891	27233
809.033	27272
809.174	27313
809.316	27218
809.458	27275
809.6	27123
809.741	27176
809.883	27222
810.025	27454
810.166	27523
810.308	27511
810.45	27408
810.591	27283
810.733	27233
810.875	27154
811.016	26963
811.158	27013
811.299	27047
811.441	27374
811.582	27287
811.724	27192
811.865	27058
812.007	27169
812.148	27112
812.29	27138
812.431	27279
812.573	27431
812.714	27511
812.855	27698
812.997	27835
813.138	27804
813.279	27785
813.421	27739
813.562	27690
813.703	27431
813.845	27355
813.986	27024
814.127	26880
814.268	26883
814.41	26838
814.551	26640
814.692	26872
814.833	26686
814.974	26712
815.115	26807
815.256	26689
815.397	26773
815.539	26727
815.68	26667
815.821	26678
815.962	26495
816.103	26495
816.244	26514
816.385	26518
816.526	26244
816.666	26191
816.807	26031
816.948	26180
817.089	26229
817.23	26096
817.371	26149
817.512	26210
817.653	26107
817.793	25986
817.934	26153
818.075	26157
818.216	26134
818.356	26039
818.497	25947
818.638	25898
818.778	25799
818.919	25875
819.06	25856
819.2	25902
819.341	26138
819.481	26126
819.622	26240
819.762	26488
819.903	26336
820.043	26309
820.184	26229
820.324	26202
820.465	26298
820.605	26164
820.746	26248
820.886	26050
821.026	26233
821.167	26233
821.307	26252
821.447	26103
821.588	25883
821.728	25890
821.868	25753
822.008	25544
822.149	25567
822.289	25552
822.429	25369
822.569	25327
822.709	25110
822.849	25084
822.99	25259
823.13	25156
823.27	25103
823.41	24764
823.55	24745
823.69	24825
823.83	24867
823.97	24875
824.11	24642
824.25	24623
824.389	24608
824.529	24787
824.669	24730
824.809	24848
824.949	24764
825.089	24779
825.228	24673
825.368	24513
825.508	24490
825.648	24646
825.787	24627
825.927	24559
826.067	24593
826.206	24414
826.346	24612
826.485	24597
826.625	24616
826.765	24661
826.904	24635
827.044	24407
827.183	24391
827.323	24194
827.462	24270
827.601	24209
827.741	24171
827.88	24285
828.02	24152
828.159	24296
828.298	24407
828.437	24365
828.577	24266
828.716	24365
828.855	24148
828.994	23942
829.134	24045
829.273	24034
829.412	24038
829.551	24026
829.69	24022
829.829	24007
829.968	24038
830.107	24110
830.246	23958
830.385	24034
830.524	23920
830.663	23805
830.802	23851
830.941	23608
831.08	23649
831.219	23703
831.357	23657
831.496	23847
831.635	23638
831.774	23589
831.913	23463
832.051	23315
832.19	23402
832.329	23463
832.467	23322
832.606	23288
832.744	23239
832.883	23227
833.022	23220
833.16	23326
833.299	23356
833.437	23349
833.576	23330
833.714	23391
833.852	23372
833.991	23467
834.129	23463
834.267	23353
834.406	23334
834.544	23402
834.682	23520
834.821	23372
834.959	23501
835.097	23277
835.235	23471
835.373	23318
835.511	23398
835.65	23216
835.788	23121
835.926	22972
836.064	23033
836.202	23151
836.34	23299
836.478	23425
836.615	23079
836.753	23265
836.891	23246
837.029	23231
837.167	23200
837.305	23098
837.443	23079
837.58	23083
837.718	23098
837.856	23083
837.993	22923
838.131	23083
838.269	22953
838.406	22999
838.544	22869
838.681	22656
838.819	22812
838.956	22538
839.094	22607
839.231	22554
839.369	22816
839.506	22881
839.643	22771
839.781	22748
839.918	22424
840.055	22523
840.193	22531
840.33	22603
840.467	22542
840.604	22577
840.742	22812
840.879	22402
841.016	22508
841.153	22314
841.29	22535
841.427	22424
841.564	22603
841.701	22440
841.838	22440
841.975	22344
842.112	22519
842.249	22276
842.385	22318
842.522	22341
842.659	22280
842.796	22238
842.933	22204
843.069	22207
843.206	22135
843.343	22322
843.479	22276
843.616	22173
843.752	21979
843.889	21964
844.025	22101
844.162	21941
844.298	22097
844.435	21915
844.571	21972
844.708	22059
844.844	22131
844.98	22162
845.117	22211
845.253	21884
845.389	21892
845.525	22006
845.661	21743
845.798	21804
845.934	21884
846.07	21705
846.206	21934
846.342	21789
846.478	21648
846.614	21622
846.75	21450
846.886	21583
847.022	21515
847.158	21599
847.294	21473
847.429	21568
847.565	21412
847.701	21739
847.837	21207
847.972	21199
848.108	21287
848.244	21389
848.379	21142
848.515	21142
848.65	21009
848.786	21051
848.921	21089
849.057	21207
849.192	21154
849.328	21199
849.463	21058
849.598	21058
849.734	20960
849.869	20925
850.004	21039
850.14	20906
850.275	20838
850.41	20655
850.545	20868
850.68	20849
850.815	20925
850.95	20781
851.085	21127
851.22	20971
851.355	20849
851.49	20933
851.625	20765
851.76	20872
851.895	20800
852.03	20792
852.165	20830
852.299	20815
852.434	20921
852.569	20804
852.703	20891
852.838	20864
852.973	21028
853.107	20853
853.242	20743
853.376	20811
853.511	20473
853.645	20651
853.78	20804
853.914	20682
854.048	20792
854.183	20583
854.317	20739
854.451	20921
854.585	20549
854.72	20629
854.854	20754
854.988	20708
855.122	20640
855.256	20511
855.39	20705
855.524	20754
855.658	20659
855.792	20686
855.926	20746
856.06	20678
856.194	20762
856.327	20613
856.461	20682
856.595	20636
856.729	20606
856.862	20625
856.996	20648
857.13	20750
857.263	20739
857.397	20868
857.53	20590
857.664	20667
857.797	20792
857.931	20743
858.064	20724
858.197	20655
858.331	20750
858.464	20659
858.597	20629
858.731	20629
858.864	20708
858.997	20632
859.13	20765
859.263	20648
859.396	20807
859.529	20564
859.662	20648
859.795	20712
859.928	20697
860.061	20861
860.194	20815
860.327	20674
860.46	20636
860.592	20701
860.725	20800
860.858	20849
860.99	20788
861.123	20587
861.256	20511
861.388	20629
861.521	21393
861.653	20473
861.786	20473
861.918	20545
862.05	20541
862.183	20442
862.315	20613
862.447	20613
862.58	20632
862.712	20495
862.844	20419
862.976	20575
863.108	20446
863.24	20788
863.372	20301
863.504	20469
863.636	20351
863.768	20358
863.9	20503
864.032	20317
864.164	20290
864.296	20465
864.428	20457
864.559	20469
864.691	20362
864.823	20400
864.954	20305
865.086	20267
865.217	20248
865.349	20225
865.48	20336
865.612	20240
865.743	20271
865.875	20252
866.006	20290
866.137	20305
866.269	20240
866.4	20263
866.531	20271
866.662	20088
866.793	20202
866.924	20107
867.055	20362
867.186	20206
867.317	20199
867.448	20088
867.579	20286
867.71	20191
867.841	20164
867.972	20218
868.103	20229
868.233	20225
868.364	20210
868.495	20446
868.625	20362
868.756	20568
868.886	20298
869.017	20454
869.147	20549
869.278	20526
869.408	20533
869.539	20446
869.669	20575
869.799	20526
869.929	20606
870.06	20594
870.19	20792
870.32	20708
870.45	20830
870.58	20800
870.71	21001
870.84	20990
870.97	20765
871.1	20849
871.23	21017
871.36	21013
871.489	20925
871.619	21104
871.749	20990
871.879	21131
872.008	21108
872.138	21077
872.267	21062
872.397	20982
872.526	20788
872.656	20838
872.785	20899
872.915	21089
873.044	21249
873.173	20967
873.303	21119
873.432	21150
873.561	21165
873.69	21100
873.819	21047
873.948	21142
874.077	21055
874.206	20933
874.335	21070
874.464	21146
874.593	21291
874.722	21230
874.851	21374
874.979	21329
875.108	21386
875.237	21180
875.365	21157
875.494	21332
875.623	21511
875.751	21195
875.88	21313
876.008	21523
876.136	21542
876.265	21804
876.393	21869
876.521	21838
876.65	21835
876.778	21724
876.906	21694
877.034	21561
877.162	21648
877.29	21625
877.418	21568
877.546	21591
877.674	21679
877.802	21736
877.93	21633
878.058	21618
878.185	21625
878.313	21595
878.441	21690
878.568	21378
878.696	21564
878.824	21698
878.951	21736
879.079	21770
879.206	21956
879.333	21797
879.461	21751
879.588	21774
879.715	21915
879.842	22025
879.97	21622
880.097	21610
880.224	21523
880.351	21488
880.478	21603
880.605	21500
880.732	21542
880.859	21564
880.986	21553
881.112	21625
881.239	21367
881.366	21298
881.493	21081
881.619	21127
881.746	21214
881.872	21104
881.999	21066
882.125	21017
882.252	21249
882.378	20986
882.505	21173
882.631	20857
882.757	20842
882.883	20948
883.01	20868
883.136	20689
883.262	20674
883.388	20568
883.514	20823
883.64	20826
883.766	20678
883.892	20511
884.018	20583
884.143	20769
884.269	20739
884.395	20457
884.52	20423
884.646	20454
884.772	20461
884.897	20263
885.023	20415
885.148	20476
885.274	20708
885.399	20545
885.524	20313
885.65	20465
885.775	20400
885.9	20347
886.025	20465
886.15	20533
886.275	20454
886.4	20393
886.525	20446
886.65	20400
886.775	20275
886.9	20587
887.025	20659
887.149	20488
887.274	20240
887.399	20240
887.523	20195
887.648	20161
887.773	19959
887.897	20180
888.021	20244
888.146	20043
888.27	20309
888.395	20366
888.519	20294
888.643	20149
888.767	20225
888.891	20016
889.015	20065
889.139	20039
889.263	19974
889.387	20008
889.511	20202
889.635	20176
889.759	19967
889.883	19959
890.006	20065
890.13	20107
890.254	19989
890.377	19986
890.501	19719
890.624	19746
890.748	19826
890.871	19662
890.995	19651
891.118	19556
891.241	19506
891.364	19670
891.488	19643
891.611	19628
891.734	19616
891.857	19666
891.98	19472
892.103	19715
892.226	19639
892.349	19563
892.471	19365
892.594	19609
892.717	19624
892.839	19559
892.962	19529
893.085	19628
893.207	19449
893.33	19381
893.452	19411
893.575	19521
893.697	19365
893.819	19628
893.941	19788
894.064	19738
894.186	19521
894.308	19411
894.43	19639
894.552	19643
894.674	19597
894.796	19502
894.918	19430
895.04	19552
895.161	19556
895.283	19521
895.405	19438
895.526	19552
895.648	19400
895.769	19632
895.891	19601
896.012	19499
896.134	19525
896.255	19491
896.376	19480
896.498	19708
896.619	19571
896.74	19529
896.861	19666
896.982	19826
897.103	20020
897.224	19811
897.345	19780
897.466	19605
897.587	19635
897.708	19959
897.828	19750
897.949	19639
898.07	19620
898.19	19613
898.311	19769
898.431	19708
898.552	19677
898.672	19761
898.792	19818
898.913	19738
899.033	19567
899.153	19605
899.273	19476
899.393	19468
899.513	19662
899.633	19616
899.753	19620
899.873	19449
899.993	19464
900.113	19369
900.232	19525
900.352	19518
900.472	19415
900.591	19232
900.711	19339
900.83	19228
900.95	19343
901.069	19460
901.189	19221
901.308	19034
901.427	18875
901.546	18901
901.665	18886
901.784	18875
901.904	18665
902.023	18715
902.141	18475
902.26	18441
902.379	18460
902.498	18418
902.617	18513
902.735	18323
902.854	18395
902.973	18338
903.091	18057
903.21	18117
903.328	18114
903.446	18003
903.565	17920
903.683	17988
903.801	17680
903.919	17866
904.038	17802
904.156	17615
904.274	17722
904.392	17577
904.51	17627
904.627	17722
904.745	17680
904.863	17668
904.981	17368
905.098	17356
905.216	17322
905.334	17391
905.451	17406
905.569	17383
905.686	17383
905.803	17311
905.921	17143
906.038	17284
906.155	17280
906.272	17037
906.389	17079
906.506	16828
906.623	16828
906.74	16824
906.857	16752
906.974	16820
907.091	16976
907.208	17003
907.324	16919
907.441	16767
907.557	16584
907.674	16580
907.79	16588
907.907	16577
908.023	16596
908.139	16550
908.256	16424
908.372	16447
908.488	16542
908.604	16356
908.72	16257
908.836	16329
908.952	16329
909.068	16379
909.184	16478
909.3	16367
909.415	16310
909.531	16265
909.647	16112
909.762	16055
909.878	15941
909.993	16120
910.108	16044
910.224	16021
910.339	15964
910.454	15816
910.57	15953
910.685	15755
910.8	16063
910.915	15994
911.03	15869
911.145	15755
911.259	15610
911.374	15625
911.489	15641
911.604	15485
911.718	15428
911.833	15488
911.947	15233
912.062	15142
912.176	15408
912.291	15340
912.405	15332
912.519	15496
912.633	15564
912.748	15469
912.862	15336
912.976	15298
913.09	15024
913.204	15135
913.318	15192
913.431	15306
913.545	15241
913.659	15211
913.772	15100
913.886	15055
914	15009
914.113	15097
914.226	15184
914.34	15024
914.453	14933
914.566	14990
914.68	14899
914.793	14941
914.906	14712
915.019	14640
915.132	14610
915.245	14651
915.358	14552
915.47	14598
915.583	14632
915.696	14686
915.809	14773
915.921	14777
916.034	14568
916.146	14465
916.259	14552
916.371	14598
916.483	14587
916.595	14438
916.708	14518
916.82	14476
916.932	14336
917.044	14446
917.156	14389
917.268	14328
917.38	14389
917.491	14328
917.603	14351
917.715	14347
917.826	14370
917.938	14214
918.049	14115
918.161	14202
918.272	14324
918.384	14389
918.495	14256
918.606	14054
918.717	14103
918.828	14088
918.939	14164
919.05	14027
919.161	14058
919.272	13875
919.383	13963
919.494	14115
919.604	14210
919.715	14153
919.826	13967
919.936	14005
920.047	14100
920.157	14088
920.267	14286
920.378	14058
920.488	13974
920.598	14164
920.708	14343
920.818	14229
920.928	14275
921.038	14343
921.148	14237
921.258	13894
921.368	13879
921.477	13909
921.587	13826
921.697	13746
921.806	13841
921.916	13582
922.025	13556
922.134	13468
922.244	13373
922.353	13514
922.462	13293
922.571	13289
922.68	13206
922.789	13084
922.898	13141
923.007	12985
923.116	13004
923.224	13145
923.333	12996
923.442	12886
923.55	12939
923.659	12916
923.767	12958
923.876	12897
923.984	12981
924.092	12852
924.201	12867
924.309	12901
924.417	12897
924.525	12825
924.633	12677
924.741	13556
924.849	12536
924.956	12688
925.064	12563
925.172	12525
925.279	12490
925.387	12525
925.494	12566
925.602	12696
925.709	12623
925.816	12452
925.924	12551
926.031	12471
926.138	12513
926.245	12513
926.352	12422
926.459	12502
926.566	12563
926.673	12441
926.779	12251
926.886	12281
926.993	12144
927.099	12095
927.206	12057
927.312	12106
927.419	12083
927.525	12140
927.631	12144
927.737	12038
927.843	12011
927.95	11813
928.056	11931
928.162	12041
928.267	11961
928.373	12585
928.479	11961
928.585	11874
928.69	11901
928.796	12034
928.901	11821
929.007	11665
929.112	11813
929.218	11775
929.323	11688
929.428	11703
929.533	11821
929.638	11642
929.743	11604
929.848	11611
929.953	11596
930.058	11562
930.163	11395
930.267	11414
930.372	11528
930.477	11280
930.581	11566
930.685	11353
930.79	11292
930.894	11269
930.998	11273
931.103	11402
931.207	11045
931.311	11003
931.415	10797
931.519	10675
931.623	10615
