Data from test_V78500241_328.txt Node
Date: Fri Mar 25 15:12:08 CST 2022
User: usil
Spectrometer: V785-0024
Trigger mode: 0
Integration Time (sec): 4.000000E-1
Scans to average: 1
Nonlinearity correction enabled: false
Boxcar width: 0
Storing dark spectrum: false
XAxis mode: Wavelengths
Number of Pixels in Spectrum: 1024
>>>>>Begin Spectral Data<<<<<
801.071	27618
801.214	27625
801.356	27416
801.499	27313
801.641	27249
801.783	27176
801.926	27291
802.068	27325
802.211	27207
802.353	27096
802.496	26940
802.638	26883
802.78	26937
802.923	26800
803.065	26914
803.208	26914
803.35	26902
803.492	27020
803.635	27188
803.777	27001
803.919	27036
804.061	27317
804.204	26952
804.346	27039
804.488	26895
804.63	27062
804.773	26868
804.915	26986
805.057	27154
805.199	26960
805.341	27279
805.483	27055
805.626	27214
805.768	26914
805.91	27173
806.052	27150
806.194	27066
806.336	27211
806.478	27184
806.62	27127
806.762	27313
806.904	27367
807.046	27538
807.188	27572
807.33	27488
807.472	27633
807.614	27439
807.756	27519
807.898	27435
808.04	27230
808.182	27344
808.324	27279
808.465	27249
808.607	27496
808.749	27694
808.891	27774
809.033	27903
809.174	27690
809.316	27637
809.458	27732
809.6	27835
809.741	27789
809.883	27793
810.025	28010
810.166	27979
810.308	28051
810.45	28051
810.591	27918
810.733	27618
810.875	27709
811.016	27542
811.158	27473
811.299	27717
811.441	27884
811.582	27720
811.724	27857
811.865	27637
812.007	27831
812.148	27709
812.29	27686
812.431	27838
812.573	27998
812.714	28166
812.855	28207
812.997	28390
813.138	28417
813.279	28348
813.421	28196
813.562	28276
813.703	27850
813.845	27846
813.986	27690
814.127	27450
814.268	27488
814.41	27298
814.551	27214
814.692	27408
814.833	27317
814.974	27313
815.115	27344
815.256	27203
815.397	27207
815.539	27169
815.68	27146
815.821	27074
815.962	27058
816.103	27173
816.244	27089
816.385	26845
816.526	26918
816.666	26712
816.807	26670
816.948	26762
817.089	26819
817.23	26754
817.371	26579
817.512	26606
817.653	26621
817.793	26575
817.934	26590
818.075	26625
818.216	26670
818.356	26579
818.497	26427
818.638	26492
818.778	26286
818.919	26381
819.06	26339
819.2	26381
819.341	26590
819.481	26442
819.622	26746
819.762	26868
819.903	26849
820.043	26792
820.184	26758
820.324	26705
820.465	26762
820.605	26750
820.746	26655
820.886	26427
821.026	26754
821.167	26587
821.307	26594
821.447	26511
821.588	26480
821.728	26457
821.868	26218
822.008	26111
822.149	25974
822.289	25986
822.429	25761
822.569	25578
822.709	25715
822.849	25518
822.99	25548
823.13	25590
823.27	25460
823.41	25339
823.55	25316
823.69	25396
823.83	25369
823.97	25255
824.11	25160
824.25	25190
824.389	25175
824.529	25335
824.669	25103
824.809	25392
824.949	25266
825.089	25354
825.228	25213
825.368	25110
825.508	24924
825.648	25053
825.787	24981
825.927	25148
826.067	24962
826.206	25031
826.346	25038
826.485	25031
826.625	24977
826.765	25152
826.904	25114
827.044	24772
827.183	24760
827.323	24802
827.462	24757
827.601	24760
827.741	24650
827.88	24722
828.02	24589
828.159	24753
828.298	24646
828.437	24700
828.577	24532
828.716	24924
828.855	24677
828.994	24395
829.134	24410
829.273	24486
829.412	24505
829.551	24296
829.69	24448
829.829	24494
829.968	24486
830.107	24574
830.246	24388
830.385	24308
830.524	24357
830.663	24224
830.802	24174
830.941	24102
831.08	23901
831.219	24007
831.357	24148
831.496	24235
831.635	24038
831.774	24018
831.913	23939
832.051	23950
832.19	23802
832.329	23767
832.467	23748
832.606	23695
832.744	23615
832.883	23630
833.022	23722
833.16	23676
833.299	23680
833.437	23805
833.576	23840
833.714	23821
833.852	23775
833.991	23786
834.129	23923
834.267	23954
834.406	23802
834.544	23779
834.682	23775
834.821	23718
834.959	24030
835.097	23843
835.235	23851
835.373	23783
835.511	23741
835.65	23619
835.788	23608
835.926	23463
836.064	23406
836.202	23417
836.34	23577
836.478	23707
836.615	23668
836.753	23535
836.891	23707
837.029	23615
837.167	23528
837.305	23383
837.443	23524
837.58	23486
837.718	23486
837.856	23558
837.993	23459
838.131	23455
838.269	23497
838.406	23410
838.544	23265
838.681	23159
838.819	23155
838.956	22812
839.094	22934
839.231	22953
839.369	23124
839.506	23311
839.643	23147
839.781	22976
839.918	22805
840.055	22976
840.193	22949
840.33	22869
840.467	22889
840.604	22923
840.742	23128
840.879	22672
841.016	22771
841.153	22824
841.29	22915
841.427	22824
841.564	22934
841.701	23037
841.838	22736
841.975	22744
842.112	22763
842.249	22603
842.385	22664
842.522	22793
842.659	22565
842.796	22641
842.933	22603
843.069	22569
843.206	22485
843.343	22641
843.479	22801
843.616	22535
843.752	22356
843.889	22405
844.025	22470
844.162	22375
844.298	22413
844.435	22447
844.571	22291
844.708	22295
844.844	22493
844.98	22580
845.117	22436
845.253	22363
845.389	22268
845.525	22226
845.661	22017
845.798	22185
845.934	22173
846.07	22120
846.206	22169
846.342	22242
846.478	22112
846.614	21884
846.75	21850
846.886	21884
847.022	21880
847.158	21926
847.294	21838
847.429	21854
847.565	21823
847.701	22150
847.837	21679
847.972	21416
848.108	21625
848.244	21690
848.379	21450
848.515	21488
848.65	21530
848.786	21332
848.921	21485
849.057	21458
849.192	21523
849.328	21542
849.463	21355
849.598	21424
849.734	21310
849.869	21355
850.004	21218
850.14	21237
850.275	21245
850.41	21150
850.545	21135
850.68	21116
850.815	21291
850.95	21112
851.085	21370
851.22	21237
851.355	21245
851.49	21104
851.625	21142
851.76	21222
851.895	20994
852.03	21009
852.165	21252
852.299	21192
852.434	21249
852.569	20990
852.703	21051
852.838	21207
852.973	21226
853.107	21458
853.242	21135
853.376	21047
853.511	20941
853.645	21032
853.78	21138
853.914	20925
854.048	21024
854.183	21077
854.317	20963
854.451	21272
854.585	21024
854.72	20952
854.854	21047
854.988	21028
855.122	20963
855.256	20883
855.39	21062
855.524	20914
855.658	21058
855.792	21058
855.926	20933
856.06	21066
856.194	21119
856.327	21036
856.461	20929
856.595	21074
856.729	20781
856.862	21093
856.996	21119
857.13	21043
857.263	21116
857.397	21055
857.53	21055
857.664	21157
857.797	21028
857.931	21074
858.064	21047
858.197	21077
858.331	20918
858.464	20895
858.597	20785
858.731	20944
858.864	20952
858.997	20967
859.13	20979
859.263	21138
859.396	21066
859.529	20925
859.662	20960
859.795	20956
859.928	21047
860.061	21146
860.194	21146
860.327	21081
860.46	21104
860.592	21096
860.725	21119
860.858	21058
860.99	20967
861.123	20883
861.256	20906
861.388	20941
861.521	21599
861.653	20853
861.786	20750
861.918	20986
862.05	20823
862.183	20963
862.315	20891
862.447	20956
862.58	20982
862.712	20773
862.844	20678
862.976	20720
863.108	20724
863.24	21218
863.372	20663
863.504	20556
863.636	20655
863.768	20785
863.9	20743
864.032	20617
864.164	20583
864.296	20716
864.428	20823
864.559	20720
864.691	20762
864.823	20659
864.954	20621
865.086	20636
865.217	20571
865.349	20473
865.48	20511
865.612	20514
865.743	20750
865.875	20674
866.006	20575
866.137	20518
866.269	20522
866.4	20606
866.531	20518
866.662	20396
866.793	20473
866.924	20564
867.055	20507
867.186	20514
867.317	20533
867.448	20511
867.579	20514
867.71	20431
867.841	20404
867.972	20583
868.103	20499
868.233	20632
868.364	20415
868.495	20621
868.625	20811
868.756	20914
868.886	20731
869.017	20701
869.147	20861
869.278	20838
869.408	20773
869.539	20754
869.669	20864
869.799	20842
869.929	20796
870.06	20769
870.19	21036
870.32	20960
870.45	21245
870.58	21214
870.71	21142
870.84	21226
870.97	21252
871.1	21150
871.23	21325
871.36	21313
871.489	21249
871.619	21245
871.749	21348
871.879	21477
872.008	21351
872.138	21317
872.267	21348
872.397	21169
872.526	21195
872.656	21226
872.785	21142
872.915	21412
873.044	21564
873.173	21363
873.303	21485
873.432	21439
873.561	21458
873.69	21420
873.819	21454
873.948	21473
874.077	21351
874.206	21344
874.335	21416
874.464	21473
874.593	21637
874.722	21549
874.851	21682
874.979	21622
875.108	21633
875.237	21606
875.365	21526
875.494	21610
875.623	21629
875.751	21644
875.88	21660
876.008	21720
876.136	21682
876.265	21979
876.393	22169
876.521	22150
876.65	22128
876.778	22048
876.906	21975
877.034	22025
877.162	22048
877.29	21827
877.418	21956
877.546	21873
877.674	22021
877.802	21930
877.93	21991
878.058	21956
878.185	21823
878.313	21964
878.441	21911
878.568	21622
878.696	21797
878.824	21937
878.951	21994
879.079	22105
879.206	22299
879.333	22082
879.461	21960
879.588	22055
879.715	22226
879.842	22310
879.97	22128
880.097	21720
880.224	21739
880.351	21827
880.478	21823
880.605	21739
880.732	21705
880.859	22093
880.986	21831
881.112	21903
881.239	21675
881.366	21454
881.493	21538
881.619	21462
881.746	21424
881.872	21500
881.999	21317
882.125	21268
882.252	21378
882.378	21294
882.505	21416
882.631	21245
882.757	21093
882.883	21146
883.01	21150
883.136	20998
883.262	20944
883.388	21024
883.514	21154
883.64	21142
883.766	20971
883.892	20815
884.018	20948
884.143	21055
884.269	21237
884.395	20727
884.52	20735
884.646	20823
884.772	20606
884.897	20549
885.023	20788
885.148	20796
885.274	20910
885.399	20823
885.524	20743
885.65	20712
885.775	20644
885.9	20625
886.025	20754
886.15	20762
886.275	20655
886.4	20632
886.525	20708
886.65	20590
886.775	20678
886.9	20708
887.025	20960
887.149	20697
887.274	20670
887.399	20579
887.523	20476
887.648	20465
887.773	20457
887.897	20629
888.021	20587
888.146	20556
888.27	20564
888.395	20533
888.519	20522
888.643	20594
888.767	20545
888.891	20374
889.015	20206
889.139	20347
889.263	20191
889.387	20438
889.511	20514
889.635	20457
889.759	20408
889.883	20339
890.006	20271
890.13	20473
890.254	20218
890.377	20206
890.501	20088
890.624	20084
890.748	20164
890.871	19974
890.995	19909
891.118	19913
891.241	19864
891.364	19913
891.488	20005
891.611	19807
891.734	19928
891.857	20046
891.98	19776
892.103	19795
892.226	19883
892.349	19841
892.471	19594
892.594	19719
892.717	19887
892.839	19750
892.962	19784
893.085	19727
893.207	19734
893.33	19620
893.452	19734
893.575	19750
893.697	19727
893.819	19921
893.941	19989
894.064	19986
894.186	19780
894.308	19704
894.43	19841
894.552	19909
894.674	19769
894.796	19681
894.918	19776
895.04	19860
895.161	19856
895.283	19803
895.405	19845
895.526	19693
895.648	19791
895.769	19742
895.891	19864
896.012	19906
896.134	19883
896.255	19902
896.376	19765
896.498	19830
896.619	19868
896.74	19761
896.861	19902
896.982	20134
897.103	20221
897.224	20164
897.345	19955
897.466	19890
897.587	20058
897.708	20092
897.828	19993
897.949	19928
898.07	19685
898.19	19909
898.311	20081
898.431	19947
898.552	19993
898.672	20043
898.792	20069
898.913	19959
899.033	19807
899.153	19776
899.273	19677
899.393	19594
899.513	19677
899.633	19769
899.753	19765
899.873	19693
899.993	19734
900.113	19571
900.232	19700
900.352	19624
900.472	19499
900.591	19594
900.711	19525
900.83	19438
900.95	19666
901.069	19571
901.189	19491
901.308	19293
901.427	19156
901.546	19126
901.665	19072
901.784	19137
901.904	18970
902.023	18916
902.141	18665
902.26	18627
902.379	18757
902.498	18608
902.617	18597
902.735	18661
902.854	18597
902.973	18555
903.091	18342
903.21	18319
903.328	18289
903.446	18182
903.565	18072
903.683	18186
903.801	17958
903.919	18034
904.038	18045
904.156	17889
904.274	17954
904.392	17882
904.51	17805
904.627	17843
904.745	17813
904.863	17878
904.981	17672
905.098	17634
905.216	17478
905.334	17539
905.451	17615
905.569	17520
905.686	17619
905.803	17600
905.921	17318
906.038	17440
906.155	17318
906.272	17216
906.389	17292
906.506	17102
906.623	17014
906.74	17159
906.857	16999
906.974	16999
907.091	17083
907.208	17204
907.324	17071
907.441	16927
907.557	16858
907.674	16873
907.79	16740
907.907	16801
908.023	16854
908.139	16733
908.256	16790
908.372	16729
908.488	16679
908.604	16550
908.72	16542
908.836	16577
908.952	16538
909.068	16683
909.184	16649
909.3	16516
909.415	16440
909.531	16455
909.647	16276
909.762	16219
909.878	16230
909.993	16280
910.108	16211
910.224	16128
910.339	16204
910.454	16086
910.57	16109
910.685	16021
910.8	16139
910.915	16158
911.03	15956
911.145	15770
911.259	15869
911.374	15770
911.489	15728
911.604	15599
911.718	15542
911.833	15622
911.947	15496
912.062	15386
912.176	15481
912.291	15587
912.405	15618
912.519	15766
912.633	15785
912.748	15610
912.862	15477
912.976	15428
913.09	15207
913.204	15336
913.318	15351
913.431	15363
913.545	15367
913.659	15473
913.772	15275
913.886	15348
914	15100
914.113	15313
914.226	15291
914.34	15355
914.453	15169
914.566	15249
914.68	15070
914.793	14998
914.906	14872
915.019	14845
915.132	14735
915.245	14800
915.358	14853
915.47	14864
915.583	14823
915.696	14769
915.809	14925
915.921	14941
916.034	14804
916.146	14644
916.259	14617
916.371	14914
916.483	14765
916.595	14655
916.708	14613
916.82	14689
916.932	14552
917.044	14602
917.156	14537
917.268	14404
917.38	14530
917.491	14374
917.603	14473
917.715	14503
917.826	14511
917.938	14404
918.049	14362
918.161	14469
918.272	14514
918.384	14503
918.495	14495
918.606	14328
918.717	14225
918.828	14244
918.939	14298
919.05	14138
919.161	14157
919.272	14077
919.383	14191
919.494	14332
919.604	14374
919.715	14229
919.826	14149
919.936	14161
920.047	14237
920.157	14256
920.267	14446
920.378	14183
920.488	14195
920.598	14305
920.708	14503
920.818	14301
920.928	14351
921.038	14454
921.148	14400
921.258	14111
921.368	14096
921.477	13913
921.587	13868
921.697	13811
921.806	14020
921.916	13776
922.025	13510
922.134	13529
922.244	13525
922.353	13609
922.462	13480
922.571	13453
922.68	13278
922.789	13149
922.898	13225
923.007	13228
923.116	13308
923.224	13232
923.333	13129
923.442	13190
923.55	13126
923.659	13069
923.767	13164
923.876	12977
923.984	13107
924.092	12928
924.201	13027
924.309	13027
924.417	12970
924.525	12875
924.633	12875
924.741	13639
924.849	12768
924.956	12977
925.064	12642
925.172	12566
925.279	12753
925.387	12772
925.494	12646
925.602	12829
925.709	12726
925.816	12608
925.924	12665
926.031	12703
926.138	12650
926.245	12700
926.352	12559
926.459	12608
926.566	12555
926.673	12517
926.779	12445
926.886	12270
926.993	12330
927.099	12220
927.206	12167
927.312	12186
927.419	12270
927.525	12330
927.631	12224
927.737	12114
927.843	12144
927.95	11889
928.056	12015
928.162	12003
928.267	12038
928.373	12711
928.479	12102
928.585	11885
928.69	12117
928.796	11961
928.901	11912
929.007	11703
929.112	11973
929.218	11859
929.323	11843
929.428	11783
929.533	11965
929.638	11646
929.743	11665
929.848	11775
929.953	11775
930.058	11600
930.163	11414
930.267	11532
930.372	11600
930.477	11482
930.581	11646
930.685	11623
930.79	11429
930.894	11391
930.998	11364
931.103	11474
931.207	11102
931.311	11098
931.415	10942
931.519	10725
931.623	10831
