Data from test_V78500241_140.txt Node
Date: Fri Mar 25 15:10:50 CST 2022
User: usil
Spectrometer: V785-0024
Trigger mode: 0
Integration Time (sec): 4.000000E-1
Scans to average: 1
Nonlinearity correction enabled: false
Boxcar width: 0
Storing dark spectrum: false
XAxis mode: Wavelengths
Number of Pixels in Spectrum: 1024
>>>>>Begin Spectral Data<<<<<
801.071	28226
801.214	28265
801.356	27899
801.499	27960
801.641	27774
801.783	27895
801.926	27728
802.068	27907
802.211	27694
802.353	27545
802.496	27435
802.638	27424
802.78	27336
802.923	27207
803.065	27283
803.208	27131
803.35	27450
803.492	27447
803.635	27526
803.777	27431
803.919	27526
804.061	27831
804.204	27526
804.346	27427
804.488	27374
804.63	27564
804.773	27272
804.915	27538
805.057	27435
805.199	27397
805.341	27420
805.483	27599
805.626	27599
805.768	27420
805.91	27549
806.052	27644
806.194	27511
806.336	27739
806.478	27504
806.62	27477
806.762	27785
806.904	27800
807.046	27895
807.188	27892
807.33	27914
807.472	27926
807.614	27698
807.756	27903
807.898	27759
808.04	27568
808.182	27701
808.324	27679
808.465	27770
808.607	27812
808.749	28013
808.891	28147
809.033	28287
809.174	28086
809.316	28006
809.458	28090
809.6	28090
809.741	28131
809.883	27991
810.025	28188
810.166	28325
810.308	28166
810.45	28200
810.591	28204
810.733	27953
810.875	27983
811.016	28010
811.158	27991
811.299	27979
811.441	28109
811.582	28124
811.724	27895
811.865	27876
812.007	27949
812.148	28070
812.29	27998
812.431	28147
812.573	28249
812.714	28443
812.855	28447
812.997	28531
813.138	28767
813.279	28519
813.421	28459
813.562	28386
813.703	28280
813.845	28109
813.986	27911
814.127	27838
814.268	27705
814.41	27648
814.551	27622
814.692	27644
814.833	27530
814.974	27739
815.115	27587
815.256	27382
815.397	27351
815.539	27458
815.68	27260
815.821	27173
815.962	27405
816.103	27294
816.244	27214
816.385	27089
816.526	27039
816.666	26918
816.807	26785
816.948	26788
817.089	26834
817.23	26788
817.371	26648
817.512	26765
817.653	26876
817.793	26838
817.934	26773
818.075	26887
818.216	26788
818.356	26693
818.497	26670
818.638	26408
818.778	26358
818.919	26484
819.06	26530
819.2	26644
819.341	26678
819.481	26693
819.622	26769
819.762	27066
819.903	26853
820.043	26857
820.184	26838
820.324	26708
820.465	26834
820.605	26944
820.746	26708
820.886	26655
821.026	26765
821.167	26590
821.307	26826
821.447	26587
821.588	26678
821.728	26480
821.868	26298
822.008	26195
822.149	26172
822.289	26157
822.429	25879
822.569	25864
822.709	25814
822.849	25582
822.99	25537
823.13	25548
823.27	25403
823.41	25449
823.55	25422
823.69	25476
823.83	25297
823.97	25335
824.11	25194
824.25	25171
824.389	25183
824.529	25278
824.669	25129
824.809	25244
824.949	25236
825.089	25236
825.228	25240
825.368	25057
825.508	25038
825.648	25099
825.787	24947
825.927	25034
826.067	25008
826.206	24985
826.346	25110
826.485	25046
826.625	24878
826.765	25164
826.904	25152
827.044	24741
827.183	24631
827.323	24525
827.462	24700
827.601	24696
827.741	24806
827.88	24776
828.02	24483
828.159	24661
828.298	24673
828.437	24738
828.577	24654
828.716	24692
828.855	24490
828.994	24376
829.134	24418
829.273	24403
829.412	24422
829.551	24369
829.69	24292
829.829	24258
829.968	24372
830.107	24357
830.246	24353
830.385	24490
830.524	24174
830.663	24034
830.802	23973
830.941	23923
831.08	23935
831.219	24053
831.357	23988
831.496	24232
831.635	23870
831.774	23889
831.913	23756
832.051	23714
832.19	23737
832.329	23745
832.467	23649
832.606	23368
832.744	23410
832.883	23615
833.022	23520
833.16	23589
833.299	23448
833.437	23452
833.576	23714
833.714	23577
833.852	23551
833.991	23596
834.129	23703
834.267	23592
834.406	23444
834.544	23653
834.682	23554
834.821	23478
834.959	23604
835.097	23490
835.235	23474
835.373	23493
835.511	23539
835.65	23356
835.788	23425
835.926	23402
836.064	23155
836.202	23277
836.34	23414
836.478	23493
836.615	23235
836.753	23383
836.891	23474
837.029	23414
837.167	23417
837.305	23379
837.443	23250
837.58	23197
837.718	23353
837.856	23258
837.993	23162
838.131	23212
838.269	23162
838.406	23094
838.544	23056
838.681	22980
838.819	22839
838.956	22706
839.094	22736
839.231	22774
839.369	22938
839.506	23041
839.643	22991
839.781	22672
839.918	22596
840.055	22725
840.193	22618
840.33	22561
840.467	22618
840.604	22592
840.742	22820
840.879	22310
841.016	22462
841.153	22375
841.29	22599
841.427	22592
841.564	22763
841.701	22603
841.838	22596
841.975	22356
842.112	22455
842.249	22363
842.385	22261
842.522	22337
842.659	22318
842.796	22177
842.933	22226
843.069	22207
843.206	22166
843.343	22310
843.479	22181
843.616	22306
843.752	21972
843.889	21968
844.025	22154
844.162	21975
844.298	22105
844.435	22135
844.571	21991
844.708	21975
844.844	22063
844.98	22116
845.117	22044
845.253	22006
845.389	21888
845.525	21884
845.661	21850
845.798	21675
845.934	21827
846.07	21789
846.206	21728
846.342	21926
846.478	21709
846.614	21587
846.75	21473
846.886	21526
847.022	21511
847.158	21424
847.294	21542
847.429	21504
847.565	21466
847.701	21732
847.837	21173
847.972	21157
848.108	21332
848.244	21161
848.379	21131
848.515	21123
848.65	21173
848.786	21074
848.921	21051
849.057	21104
849.192	21211
849.328	21074
849.463	21047
849.598	20963
849.734	20876
849.869	20823
850.004	20735
850.14	20838
850.275	20872
850.41	20682
850.545	20735
850.68	20826
850.815	20701
850.95	20689
851.085	20967
851.22	20956
851.355	20758
851.49	20655
851.625	20739
851.76	20678
851.895	20590
852.03	20602
852.165	20590
852.299	20739
852.434	20838
852.569	20724
852.703	20625
852.838	20815
852.973	20929
853.107	20842
853.242	20674
853.376	20590
853.511	20457
853.645	20545
853.78	20819
853.914	20655
854.048	20590
854.183	20579
854.317	20560
854.451	20769
854.585	20583
854.72	20465
854.854	20530
854.988	20507
855.122	20503
855.256	20499
855.39	20495
855.524	20537
855.658	20606
855.792	20613
855.926	20701
856.06	20556
856.194	20606
856.327	20552
856.461	20484
856.595	20530
856.729	20537
856.862	20568
856.996	20579
857.13	20621
857.263	20754
857.397	20602
857.53	20488
857.664	20629
857.797	20689
857.931	20598
858.064	20659
858.197	20606
858.331	20476
858.464	20473
858.597	20404
858.731	20518
858.864	20400
858.997	20518
859.13	20442
859.263	20571
859.396	20537
859.529	20469
859.662	20427
859.795	20431
859.928	20484
860.061	20708
860.194	20716
860.327	20446
860.46	20552
860.592	20629
860.725	20644
860.858	20644
860.99	20579
861.123	20393
861.256	20423
861.388	20374
861.521	21116
861.653	20301
861.786	20434
861.918	20377
862.05	20362
862.183	20488
862.315	20598
862.447	20575
862.58	20419
862.712	20347
862.844	20237
862.976	20267
863.108	20320
863.24	20625
863.372	20191
863.504	20191
863.636	20180
863.768	20168
863.9	20187
864.032	20145
864.164	20183
864.296	20180
864.428	20286
864.559	20286
864.691	20305
864.823	20256
864.954	20259
865.086	20103
865.217	20081
865.349	20088
865.48	20073
865.612	20103
865.743	20309
865.875	20096
866.006	20020
866.137	20035
866.269	19982
866.4	20111
866.531	19917
866.662	20039
866.793	19970
866.924	20069
867.055	19978
867.186	19967
867.317	20069
867.448	19955
867.579	19989
867.71	19921
867.841	20001
867.972	20096
868.103	19997
868.233	20031
868.364	20020
868.495	20138
868.625	20263
868.756	20332
868.886	20221
869.017	20199
869.147	20404
869.278	20400
869.408	20290
869.539	20233
869.669	20347
869.799	20263
869.929	20358
870.06	20294
870.19	20545
870.32	20571
870.45	20587
870.58	20632
870.71	20811
870.84	20876
870.97	20716
871.1	20648
871.23	20914
871.36	20834
871.489	20773
871.619	20781
871.749	20872
871.879	20918
872.008	21001
872.138	20982
872.267	20842
872.397	20762
872.526	20659
872.656	20750
872.785	20724
872.915	20830
873.044	20971
873.173	20765
873.303	20990
873.432	20998
873.561	20994
873.69	20834
873.819	20929
873.948	21017
874.077	20937
874.206	20944
874.335	20902
874.464	21039
874.593	20956
874.722	21096
874.851	21184
874.979	21142
875.108	21237
875.237	21131
875.365	21036
875.494	21070
875.623	21188
875.751	21009
875.88	21203
876.008	21195
876.136	21313
876.265	21515
876.393	21701
876.521	21603
876.65	21618
876.778	21492
876.906	21519
877.034	21485
877.162	21507
877.29	21340
877.418	21564
877.546	21466
877.674	21500
877.802	21481
877.93	21469
878.058	21439
878.185	21268
878.313	21496
878.441	21458
878.568	21367
878.696	21374
878.824	21439
878.951	21606
879.079	21686
879.206	21713
879.333	21622
879.461	21534
879.588	21580
879.715	21667
879.842	21774
879.97	21595
880.097	21195
880.224	21466
880.351	21344
880.478	21370
880.605	21230
880.732	21222
880.859	21515
880.986	21496
881.112	21466
881.239	21154
881.366	21039
881.493	21051
881.619	20834
881.746	20933
881.872	20902
881.999	20956
882.125	20785
882.252	20998
882.378	20857
882.505	21055
882.631	20716
882.757	20670
882.883	20739
883.01	20651
883.136	20640
883.262	20526
883.388	20431
883.514	20609
883.64	20693
883.766	20575
883.892	20476
884.018	20530
884.143	20629
884.269	20613
884.395	20339
884.52	20282
884.646	20298
884.772	20263
884.897	20107
885.023	20271
885.148	20476
885.274	20556
885.399	20366
885.524	20317
885.65	20396
885.775	20286
885.9	20199
886.025	20389
886.15	20278
886.275	20206
886.4	20122
886.525	20275
886.65	20240
886.775	20210
886.9	20400
887.025	20415
887.149	20221
887.274	20142
887.399	20046
887.523	20119
887.648	19967
887.773	19940
887.897	20088
888.021	20031
888.146	19849
888.27	20039
888.395	20046
888.519	20073
888.643	20069
888.767	20157
888.891	19944
889.015	19875
889.139	19906
889.263	19811
889.387	19875
889.511	20126
889.635	20008
889.759	19753
889.883	19776
890.006	19811
890.13	19909
890.254	19776
890.377	19704
890.501	19639
890.624	19586
890.748	19643
890.871	19548
890.995	19476
891.118	19331
891.241	19343
891.364	19320
891.488	19563
891.611	19487
891.734	19400
891.857	19468
891.98	19476
892.103	19529
892.226	19430
892.349	19343
892.471	19339
892.594	19331
892.717	19362
892.839	19251
892.962	19327
893.085	19369
893.207	19362
893.33	19244
893.452	19228
893.575	19449
893.697	19400
893.819	19487
893.941	19457
894.064	19460
894.186	19301
894.308	19297
894.43	19373
894.552	19499
894.674	19407
894.796	19171
894.918	19343
895.04	19285
895.161	19537
895.283	19339
895.405	19263
895.526	19335
895.648	19217
895.769	19438
895.891	19346
896.012	19419
896.134	19449
896.255	19301
896.376	19285
896.498	19384
896.619	19358
896.74	19350
896.861	19487
896.982	19734
897.103	19776
897.224	19651
897.345	19533
897.466	19483
897.587	19506
897.708	19723
897.828	19552
897.949	19460
898.07	19460
898.19	19544
898.311	19647
898.431	19567
898.552	19635
898.672	19578
898.792	19571
898.913	19521
899.033	19460
899.153	19206
899.273	19316
899.393	19266
899.513	19312
899.633	19324
899.753	19369
899.873	19312
899.993	19285
900.113	19209
900.232	19190
900.352	19274
900.472	19118
900.591	19031
900.711	19190
900.83	19061
900.95	19259
901.069	19190
901.189	19012
901.308	18821
901.427	18654
901.546	18722
901.665	18757
901.784	18726
901.904	18658
902.023	18452
902.141	18201
902.26	18224
902.379	18448
902.498	18167
902.617	18174
902.735	18174
902.854	18178
902.973	18171
903.091	17958
903.21	17912
903.328	17821
903.446	17707
903.565	17771
903.683	17783
903.801	17573
903.919	17592
904.038	17608
904.156	17448
904.274	17452
904.392	17463
904.51	17372
904.627	17516
904.745	17509
904.863	17577
904.981	17349
905.098	17132
905.216	17067
905.334	17204
905.451	17113
905.569	17181
905.686	17132
905.803	17143
905.921	16949
906.038	17075
906.155	16889
906.272	16889
906.389	16847
906.506	16721
906.623	16691
906.74	16653
906.857	16565
906.974	16622
907.091	16702
907.208	16782
907.324	16653
907.441	16603
907.557	16375
907.674	16413
907.79	16230
907.907	16344
908.023	16344
908.139	16413
908.256	16253
908.372	16261
908.488	16249
908.604	16013
908.72	16021
908.836	16074
908.952	15987
909.068	16029
909.184	16169
909.3	16086
909.415	15991
909.531	15972
909.647	15652
909.762	15797
909.878	15747
909.993	15724
910.108	15660
910.224	15736
910.339	15759
910.454	15595
910.57	15584
910.685	15466
910.8	15816
910.915	15679
911.03	15599
911.145	15416
911.259	15313
911.374	15298
911.489	15256
911.604	15222
911.718	15146
911.833	15093
911.947	15013
912.062	14864
912.176	14982
912.291	15043
912.405	15173
912.519	15306
912.633	15211
912.748	15104
912.862	15085
912.976	14868
913.09	14815
913.204	14902
913.318	14921
913.431	14979
913.545	14960
913.659	14982
913.772	14834
913.886	14705
914	14663
914.113	14895
914.226	14765
914.34	14727
914.453	14583
914.566	14655
914.68	14644
914.793	14552
914.906	14381
915.019	14385
915.132	14362
915.245	14339
915.358	14313
915.47	14358
915.583	14343
915.696	14412
915.809	14461
915.921	14457
916.034	14263
916.146	14290
916.259	14084
916.371	14347
916.483	14309
916.595	14221
916.708	14111
916.82	14119
916.932	14202
917.044	14191
917.156	14142
917.268	14077
917.38	14065
917.491	14001
917.603	14001
917.715	14107
917.826	14176
917.938	14035
918.049	13944
918.161	14031
918.272	14183
918.384	14199
918.495	14005
918.606	13826
918.717	13814
918.828	13772
918.939	13902
919.05	13681
919.161	13921
919.272	13601
919.383	13643
919.494	13879
919.604	14134
919.715	13864
919.826	13757
919.936	13788
920.047	13864
920.157	13837
920.267	13967
920.378	13704
920.488	13727
920.598	14005
920.708	14176
920.818	13974
920.928	13982
921.038	14084
921.148	13947
921.258	13769
921.368	13719
921.477	13567
921.587	13632
921.697	13369
921.806	13586
921.916	13426
922.025	13331
922.134	13198
922.244	13149
922.353	13247
922.462	13110
922.571	12935
922.68	12958
922.789	12783
922.898	12886
923.007	12787
923.116	12768
923.224	12757
923.333	12760
923.442	12635
923.55	12722
923.659	12608
923.767	12696
923.876	12589
923.984	12749
924.092	12498
924.201	12688
924.309	12662
924.417	12551
924.525	12509
924.633	12471
924.741	13259
924.849	12315
924.956	12445
925.064	12315
925.172	12251
925.279	12304
925.387	12399
925.494	12350
925.602	12426
925.709	12346
925.816	12251
925.924	12262
926.031	12243
926.138	12273
926.245	12277
926.352	12117
926.459	12346
926.566	12353
926.673	12163
926.779	12045
926.886	12045
926.993	12015
927.099	11904
927.206	11828
927.312	11737
927.419	11958
927.525	11885
927.631	11859
927.737	11779
927.843	11859
927.95	11630
928.056	11722
928.162	11707
928.267	11760
928.373	12266
928.479	11760
928.585	11512
928.69	11668
928.796	11619
928.901	11668
929.007	11482
929.112	11551
929.218	11532
929.323	11467
929.428	11433
929.533	11512
929.638	11417
929.743	11360
929.848	11486
929.953	11410
930.058	11303
930.163	11231
930.267	11181
930.372	11334
930.477	11071
930.581	11345
930.685	11124
930.79	11056
930.894	11010
930.998	11022
931.103	11140
931.207	10881
931.311	10736
931.415	10641
931.519	10344
931.623	10398
