Data from test_V78500241_2477.txt Node
Date: Fri Mar 25 15:27:06 CST 2022
User: usil
Spectrometer: V785-0024
Trigger mode: 0
Integration Time (sec): 4.000000E-1
Scans to average: 1
Nonlinearity correction enabled: false
Boxcar width: 0
Storing dark spectrum: false
XAxis mode: Wavelengths
Number of Pixels in Spectrum: 1024
>>>>>Begin Spectral Data<<<<<
801.071	27127
801.214	26967
801.356	26872
801.499	26800
801.641	26773
801.783	26735
801.926	26758
802.068	26689
802.211	26625
802.353	26583
802.496	26358
802.638	26336
802.78	26320
802.923	26259
803.065	26202
803.208	26187
803.35	26263
803.492	26351
803.635	26419
803.777	26404
803.919	26438
804.061	26800
804.204	26434
804.346	26396
804.488	26336
804.63	26518
804.773	26370
804.915	26545
805.057	26613
805.199	26419
805.341	26530
805.483	26571
805.626	26571
805.768	26511
805.91	26632
806.052	26511
806.194	26446
806.336	26651
806.478	26552
806.62	26560
806.762	26731
806.904	26819
807.046	27131
807.188	26967
807.33	26994
807.472	27077
807.614	26853
807.756	27036
807.898	26800
808.04	26849
808.182	26796
808.324	26773
808.465	26899
808.607	27017
808.749	27142
808.891	27363
809.033	27321
809.174	27279
809.316	26998
809.458	27112
809.6	27108
809.741	27306
809.883	27294
810.025	27408
810.166	27386
810.308	27424
810.45	27363
810.591	27199
810.733	27093
810.875	27188
811.016	27039
811.158	27051
811.299	27294
811.441	27302
811.582	27431
811.724	27332
811.865	27001
812.007	27192
812.148	27066
812.29	27199
812.431	27252
812.573	27329
812.714	27576
812.855	27496
812.997	27724
813.138	27926
813.279	27633
813.421	27526
813.562	27637
813.703	27553
813.845	27386
813.986	27096
814.127	26876
814.268	26800
814.41	26960
814.551	26735
814.692	26792
814.833	26701
814.974	26788
815.115	26777
815.256	26571
815.397	26629
815.539	26621
815.68	26606
815.821	26469
815.962	26594
816.103	26533
816.244	26511
816.385	26267
816.526	26317
816.666	26126
816.807	26122
816.948	26122
817.089	26172
817.23	26103
817.371	26031
817.512	25951
817.653	26130
817.793	26088
817.934	26119
818.075	26016
818.216	26111
818.356	26058
818.497	26043
818.638	25757
818.778	25791
818.919	25795
819.06	25761
819.2	25738
819.341	26020
819.481	26001
819.622	26305
819.762	26427
819.903	26328
820.043	26195
820.184	26225
820.324	26271
820.465	26221
820.605	26126
820.746	26199
820.886	26062
821.026	26081
821.167	26142
821.307	26237
821.447	26077
821.588	25993
821.728	25871
821.868	25670
822.008	25616
822.149	25567
822.289	25453
822.429	25297
822.569	25343
822.709	25168
822.849	25095
822.99	24943
823.13	24962
823.27	25008
823.41	24890
823.55	24719
823.69	24863
823.83	24859
823.97	24867
824.11	24814
824.25	24566
824.389	24707
824.529	24776
824.669	24749
824.809	24673
824.949	24749
825.089	24768
825.228	24658
825.368	24559
825.508	24555
825.648	24601
825.787	24658
825.927	24509
826.067	24574
826.206	24521
826.346	24498
826.485	24566
826.625	24585
826.765	24631
826.904	24642
827.044	24228
827.183	24262
827.323	24304
827.462	24262
827.601	24327
827.741	24308
827.88	24129
828.02	24117
828.159	24251
828.298	24292
828.437	24399
828.577	24258
828.716	24357
828.855	24209
828.994	23882
829.134	24045
829.273	23927
829.412	23893
829.551	23798
829.69	23927
829.829	23908
829.968	24049
830.107	24022
830.246	23939
830.385	24007
830.524	23813
830.663	23836
830.802	23874
830.941	23535
831.08	23425
831.219	23695
831.357	23638
831.496	23752
831.635	23589
831.774	23520
831.913	23395
832.051	23368
832.19	23250
832.329	23402
832.467	23261
832.606	23269
832.744	23132
832.883	23185
833.022	23204
833.16	23395
833.299	23200
833.437	23280
833.576	23356
833.714	23303
833.852	23395
833.991	23318
834.129	23452
834.267	23486
834.406	23334
834.544	23459
834.682	23345
834.821	23273
834.959	23360
835.097	23254
835.235	23417
835.373	23326
835.511	23341
835.65	23117
835.788	23174
835.926	23185
836.064	22984
836.202	23037
836.34	23189
836.478	23356
836.615	23136
836.753	23121
836.891	23292
837.029	23067
837.167	23147
837.305	23079
837.443	23174
837.58	22984
837.718	23140
837.856	23166
837.993	22976
838.131	22999
838.269	23025
838.406	22816
838.544	22729
838.681	22744
838.819	22668
838.956	22554
839.094	22668
839.231	22497
839.369	22717
839.506	22850
839.643	22691
839.781	22481
839.918	22546
840.055	22622
840.193	22607
840.33	22500
840.467	22523
840.604	22679
840.742	22809
840.879	22417
841.016	22436
841.153	22402
841.29	22538
841.427	22535
841.564	22523
841.701	22535
841.838	22318
841.975	22455
842.112	22436
842.249	22314
842.385	22234
842.522	22573
842.659	22257
842.796	22272
842.933	22109
843.069	22215
843.206	22048
843.343	22367
843.479	22306
843.616	22318
843.752	22029
843.889	22036
844.025	22032
844.162	21968
844.298	22036
844.435	21895
844.571	21991
844.708	22055
844.844	22078
844.98	22192
845.117	21998
845.253	21945
845.389	21899
845.525	21998
845.661	21850
845.798	21713
845.934	21808
846.07	21766
846.206	21747
846.342	21774
846.478	21812
846.614	21431
846.75	21424
846.886	21302
847.022	21469
847.158	21492
847.294	21435
847.429	21534
847.565	21393
847.701	21557
847.837	21207
847.972	21047
848.108	21408
848.244	21161
848.379	21055
848.515	21024
848.65	20963
848.786	21024
848.921	21081
849.057	21142
849.192	21180
849.328	21199
849.463	20933
849.598	21024
849.734	20986
849.869	20861
850.004	20845
850.14	20902
850.275	20792
850.41	20735
850.545	20777
850.68	20731
850.815	20830
850.95	20800
851.085	20982
851.22	20910
851.355	20952
851.49	20861
851.625	20682
851.76	20819
851.895	20845
852.03	20800
852.165	20807
852.299	20777
852.434	20864
852.569	20941
852.703	20941
852.838	20792
852.973	20914
853.107	20990
853.242	20644
853.376	20674
853.511	20560
853.645	20640
853.78	20705
853.914	20625
854.048	20454
854.183	20587
854.317	20488
854.451	20880
854.585	20617
854.72	20632
854.854	20682
854.988	20492
855.122	20663
855.256	20575
855.39	20701
855.524	20693
855.658	20670
855.792	20746
855.926	20651
856.06	20663
856.194	20788
856.327	20705
856.461	20632
856.595	20697
856.729	20503
856.862	20636
856.996	20617
857.13	20746
857.263	20716
857.397	20625
857.53	20651
857.664	20686
857.797	20754
857.931	20720
858.064	20636
858.197	20724
858.331	20454
858.464	20678
858.597	20659
858.731	20587
858.864	20530
858.997	20545
859.13	20750
859.263	20708
859.396	20689
859.529	20549
859.662	20590
859.795	20625
859.928	20625
860.061	20739
860.194	20895
860.327	20777
860.46	20686
860.592	20750
860.725	20735
860.858	20796
860.99	20705
861.123	20526
861.256	20560
861.388	20686
861.521	21241
861.653	20476
861.786	20454
861.918	20389
862.05	20545
862.183	20473
862.315	20549
862.447	20560
862.58	20507
862.712	20377
862.844	20290
862.976	20514
863.108	20469
863.24	20845
863.372	20313
863.504	20374
863.636	20381
863.768	20427
863.9	20358
864.032	20336
864.164	20271
864.296	20370
864.428	20415
864.559	20385
864.691	20484
864.823	20309
864.954	20370
865.086	20168
865.217	20343
865.349	20271
865.48	20240
865.612	20229
865.743	20320
865.875	20267
866.006	20183
866.137	20320
866.269	20294
866.4	20225
866.531	20229
866.662	20210
866.793	20199
866.924	20088
867.055	20358
867.186	20339
867.317	20206
867.448	20084
867.579	20134
867.71	20084
867.841	20084
867.972	20058
868.103	20096
868.233	20332
868.364	20229
868.495	20275
868.625	20381
868.756	20575
868.886	20488
869.017	20389
869.147	20640
869.278	20670
869.408	20438
869.539	20518
869.669	20389
869.799	20556
869.929	20594
870.06	20545
870.19	20819
870.32	20857
870.45	20750
870.58	20819
870.71	20925
870.84	20971
870.97	20845
871.1	20842
871.23	20998
871.36	21009
871.489	20929
871.619	20944
871.749	21077
871.879	21089
872.008	21123
872.138	21017
872.267	21051
872.397	20830
872.526	20842
872.656	20929
872.785	20880
872.915	21055
873.044	21150
873.173	21020
873.303	21112
873.432	21195
873.561	21066
873.69	21039
873.819	21036
873.948	21085
874.077	21096
874.206	21070
874.335	21047
874.464	21252
874.593	21310
874.722	21291
874.851	21439
874.979	21374
875.108	21443
875.237	21218
875.365	21222
875.494	21313
875.623	21230
875.751	21332
875.88	21310
876.008	21496
876.136	21492
876.265	21778
876.393	21823
876.521	21774
876.65	21770
876.778	21652
876.906	21557
877.034	21603
877.162	21686
877.29	21553
877.418	21652
877.546	21599
877.674	21648
877.802	21717
877.93	21709
878.058	21572
878.185	21534
878.313	21648
878.441	21656
878.568	21374
878.696	21564
878.824	21705
878.951	21679
879.079	21823
879.206	21922
879.333	21861
879.461	21816
879.588	21724
879.715	21804
879.842	21926
879.97	21667
880.097	21435
880.224	21500
880.351	21538
880.478	21583
880.605	21477
880.732	21523
880.859	21755
880.986	21625
881.112	21568
881.239	21374
881.366	21233
881.493	21165
881.619	21104
881.746	21055
881.872	21077
881.999	21066
882.125	21131
882.252	21036
882.378	20933
882.505	21195
882.631	21039
882.757	20872
882.883	20921
883.01	20769
883.136	20735
883.262	20617
883.388	20564
883.514	20754
883.64	20670
883.766	20724
883.892	20518
884.018	20564
884.143	20712
884.269	20830
884.395	20480
884.52	20362
884.646	20442
884.772	20324
884.897	20393
885.023	20537
885.148	20389
885.274	20549
885.399	20533
885.524	20412
885.65	20404
885.775	20488
885.9	20358
886.025	20492
886.15	20492
886.275	20370
886.4	20442
886.525	20298
886.65	20298
886.775	20263
886.9	20492
887.025	20606
887.149	20423
887.274	20317
887.399	20290
887.523	20122
887.648	20119
887.773	20062
887.897	20328
888.021	20119
888.146	20183
888.27	20275
888.395	20343
888.519	20126
888.643	20191
888.767	20313
888.891	20122
889.015	19982
889.139	20054
889.263	19982
889.387	20149
889.511	20256
889.635	20187
889.759	20096
889.883	20084
890.006	19879
890.13	20096
890.254	19925
890.377	20077
890.501	19795
890.624	19780
890.748	19845
890.871	19647
890.995	19605
891.118	19502
891.241	19685
891.364	19658
891.488	19822
891.611	19624
891.734	19620
891.857	19750
891.98	19727
892.103	19658
892.226	19628
892.349	19624
892.471	19373
892.594	19639
892.717	19552
892.839	19556
892.962	19537
893.085	19731
893.207	19476
893.33	19540
893.452	19460
893.575	19594
893.697	19430
893.819	19643
893.941	19841
894.064	19704
894.186	19506
894.308	19495
894.43	19609
894.552	19761
894.674	19510
894.796	19552
894.918	19472
895.04	19495
895.161	19571
895.283	19586
895.405	19453
895.526	19495
895.648	19510
895.769	19540
895.891	19647
896.012	19529
896.134	19597
896.255	19597
896.376	19651
896.498	19559
896.619	19590
896.74	19533
896.861	19563
896.982	19864
897.103	19997
897.224	19898
897.345	19887
897.466	19632
897.587	19887
897.708	19803
897.828	19875
897.949	19685
898.07	19647
898.19	19685
898.311	19947
898.431	19620
898.552	19799
898.672	19871
898.792	19757
898.913	19803
899.033	19746
899.153	19662
899.273	19464
899.393	19518
899.513	19578
899.633	19518
899.753	19632
899.873	19510
899.993	19708
900.113	19506
900.232	19552
900.352	19430
900.472	19331
900.591	19331
900.711	19297
900.83	19312
900.95	19525
901.069	19304
901.189	19129
901.308	19103
901.427	18886
901.546	19072
901.665	18970
901.784	18966
901.904	18730
902.023	18814
902.141	18464
902.26	18506
902.379	18585
902.498	18388
902.617	18486
902.735	18395
902.854	18437
902.973	18407
903.091	18083
903.21	18098
903.328	18072
903.446	18038
903.565	17942
903.683	17935
903.801	17836
903.919	17920
904.038	17843
904.156	17726
904.274	17832
904.392	17703
904.51	17638
904.627	17726
904.745	17699
904.863	17687
904.981	17524
905.098	17307
905.216	17345
905.334	17444
905.451	17372
905.569	17349
905.686	17326
905.803	17421
905.921	17094
906.038	17223
906.155	17094
906.272	17029
906.389	17056
906.506	16980
906.623	16900
906.74	16908
906.857	16771
906.974	16801
907.091	16930
907.208	16987
907.324	16934
907.441	16790
907.557	16809
907.674	16702
907.79	16558
907.907	16440
908.023	16664
908.139	16622
908.256	16584
908.372	16565
908.488	16519
908.604	16386
908.72	16325
908.836	16280
908.952	16265
909.068	16478
909.184	16382
909.3	16333
909.415	16432
909.531	16344
909.647	16071
909.762	16067
909.878	15994
909.993	16112
910.108	16074
910.224	15979
910.339	16139
910.454	15949
910.57	15869
910.685	15876
910.8	16025
910.915	16006
911.03	15804
911.145	15743
911.259	15705
911.374	15637
911.489	15644
911.604	15587
911.718	15428
911.833	15450
911.947	15412
912.062	15256
912.176	15523
912.291	15515
912.405	15515
912.519	15732
912.633	15648
912.748	15416
912.862	15317
912.976	15264
913.09	15100
913.204	15093
913.318	15260
913.431	15249
913.545	15355
913.659	15325
913.772	15108
913.886	15066
914	15028
914.113	15039
914.226	15256
914.34	15028
914.453	14967
914.566	15108
914.68	14994
914.793	14815
914.906	14769
915.019	14682
915.132	14670
915.245	14670
915.358	14746
915.47	14746
915.583	14689
915.696	14731
915.809	14765
915.921	14811
916.034	14629
916.146	14541
916.259	14507
916.371	14667
916.483	14674
916.595	14556
916.708	14522
916.82	14488
916.932	14473
917.044	14549
917.156	14450
917.268	14396
917.38	14404
917.491	14358
917.603	14282
917.715	14366
917.826	14434
917.938	14336
918.049	14237
918.161	14305
918.272	14374
918.384	14400
918.495	14256
918.606	14149
918.717	14084
918.828	14111
918.939	14195
919.05	13989
919.161	14039
919.272	13833
919.383	13974
919.494	14145
919.604	14332
919.715	14157
919.826	13967
919.936	14069
920.047	14077
920.157	14111
920.267	14256
920.378	14084
920.488	14016
920.598	14244
920.708	14393
920.818	14275
920.928	14202
921.038	14332
921.148	14324
921.258	14062
921.368	13963
921.477	13845
921.587	13917
921.697	13750
921.806	13871
921.916	13658
922.025	13510
922.134	13514
922.244	13381
922.353	13575
922.462	13384
922.571	13274
922.68	13263
922.789	13145
922.898	13156
923.007	13095
923.116	13088
923.224	13053
923.333	13057
923.442	12939
923.55	12966
923.659	13076
923.767	13042
923.876	12970
923.984	12973
924.092	12878
924.201	12973
924.309	12848
924.417	12958
924.525	12795
924.633	12757
924.741	13761
924.849	12593
924.956	12738
925.064	12692
925.172	12544
925.279	12479
925.387	12593
925.494	12616
925.602	12688
925.709	12703
925.816	12433
925.924	12544
926.031	12559
926.138	12525
926.245	12574
926.352	12426
926.459	12612
926.566	12585
926.673	12441
926.779	12342
926.886	12384
926.993	12098
927.099	12106
927.206	12133
927.312	12064
927.419	12152
927.525	12125
927.631	12235
927.737	12087
927.843	12011
927.95	12015
928.056	11958
928.162	12034
928.267	12064
928.373	12631
928.479	11984
928.585	11748
928.69	11908
928.796	11984
928.901	11840
929.007	11710
929.112	11885
929.218	11802
929.323	11741
929.428	11691
929.533	11851
929.638	11646
929.743	11665
929.848	11798
929.953	11665
930.058	11627
930.163	11414
930.267	11376
930.372	11429
930.477	11387
930.581	11649
930.685	11543
930.79	11334
930.894	11334
930.998	11212
931.103	11383
931.207	11056
931.311	11022
931.415	10881
931.519	10672
931.623	10691
