Data from test_V78500241_699.txt Node
Date: Fri Mar 25 15:14:43 CST 2022
User: usil
Spectrometer: V785-0024
Trigger mode: 0
Integration Time (sec): 4.000000E-1
Scans to average: 1
Nonlinearity correction enabled: false
Boxcar width: 0
Storing dark spectrum: false
XAxis mode: Wavelengths
Number of Pixels in Spectrum: 1024
>>>>>Begin Spectral Data<<<<<
801.071	28055
801.214	27983
801.356	27781
801.499	27804
801.641	27671
801.783	27766
801.926	27762
802.068	27724
802.211	27591
802.353	27610
802.496	27268
802.638	27275
802.78	27218
802.923	27355
803.065	27348
803.208	27367
803.35	27397
803.492	27435
803.635	27542
803.777	27329
803.919	27523
804.061	27781
804.204	27496
804.346	27519
804.488	27367
804.63	27629
804.773	27351
804.915	27580
805.057	27587
805.199	27485
805.341	27576
805.483	27698
805.626	27656
805.768	27545
805.91	27606
806.052	27705
806.194	27576
806.336	27838
806.478	27682
806.62	27644
806.762	27865
806.904	28002
807.046	28143
807.188	27979
807.33	28040
807.472	28154
807.614	27972
807.756	28055
807.898	27987
808.04	27960
808.182	27998
808.324	27922
808.465	28013
808.607	28128
808.749	28223
808.891	28375
809.033	28573
809.174	28421
809.316	28318
809.458	28360
809.6	28257
809.741	28375
809.883	28382
810.025	28683
810.166	28603
810.308	28698
810.45	28656
810.591	28573
810.733	28341
810.875	28120
811.016	28257
811.158	28204
811.299	28375
811.441	28557
811.582	28489
811.724	28303
811.865	28322
812.007	28348
812.148	28386
812.29	28287
812.431	28557
812.573	28683
812.714	28763
812.855	28869
812.997	28968
813.138	29037
813.279	29102
813.421	28930
813.562	28858
813.703	28774
813.845	28481
813.986	28284
814.127	28048
814.268	27926
814.41	28040
814.551	28158
814.692	28196
814.833	28017
814.974	28169
815.115	28158
815.256	27922
815.397	28032
815.539	27895
815.68	27899
815.821	27808
815.962	27892
816.103	27956
816.244	27732
816.385	27606
816.526	27618
816.666	27351
816.807	27310
816.948	27405
817.089	27351
817.23	27386
817.371	27378
817.512	27416
817.653	27207
817.793	27332
817.934	27306
818.075	27344
818.216	27355
818.356	27408
818.497	27268
818.638	26994
818.778	27020
818.919	27199
819.06	27203
819.2	27142
819.341	27173
819.481	27298
819.622	27439
819.762	27637
819.903	27633
820.043	27614
820.184	27412
820.324	27477
820.465	27504
820.605	27561
820.746	27458
820.886	27325
821.026	27397
821.167	27268
821.307	27469
821.447	27355
821.588	27249
821.728	27150
821.868	26948
822.008	26861
822.149	26868
822.289	26838
822.429	26511
822.569	26461
822.709	26537
822.849	26438
822.99	26339
823.13	26172
823.27	26275
823.41	26134
823.55	26126
823.69	26180
823.83	26164
823.97	26008
824.11	25890
824.25	25993
824.389	25944
824.529	26065
824.669	26031
824.809	26081
824.949	26031
825.089	26065
825.228	25982
825.368	25864
825.508	25879
825.648	25936
825.787	25868
825.927	25974
826.067	25799
826.206	25761
826.346	25795
826.485	25841
826.625	25799
826.765	25833
826.904	25898
827.044	25616
827.183	25616
827.323	25327
827.462	25647
827.601	25552
827.741	25506
827.88	25616
828.02	25476
828.159	25639
828.298	25590
828.437	25601
828.577	25316
828.716	25586
828.855	25472
828.994	25247
829.134	25285
829.273	25194
829.412	25240
829.551	25126
829.69	25217
829.829	25259
829.968	25304
830.107	25331
830.246	25278
830.385	25190
830.524	25206
830.663	25065
830.802	24905
830.941	24821
831.08	24817
831.219	24901
831.357	24909
831.496	25114
831.635	24924
831.774	24783
831.913	24734
832.051	24696
832.19	24650
832.329	24745
832.467	24597
832.606	24483
832.744	24422
832.883	24490
833.022	24566
833.16	24464
833.299	24616
833.437	24715
833.576	24593
833.714	24623
833.852	24658
833.991	24661
834.129	24627
834.267	24631
834.406	24604
834.544	24642
834.682	24604
834.821	24551
834.959	24757
835.097	24528
835.235	24627
835.373	24517
835.511	24445
835.65	24574
835.788	24483
835.926	24342
836.064	24289
836.202	24338
836.34	24445
836.478	24414
836.615	24433
836.753	24445
836.891	24505
837.029	24494
837.167	24433
837.305	24357
837.443	24300
837.58	24232
837.718	24304
837.856	24239
837.993	24178
838.131	24247
838.269	24106
838.406	24194
838.544	24041
838.681	23847
838.819	23927
838.956	23684
839.094	23714
839.231	23805
839.369	23908
839.506	24205
839.643	23882
839.781	23722
839.918	23596
840.055	23824
840.193	23589
840.33	23733
840.467	23566
840.604	23627
840.742	23912
840.879	23577
841.016	23482
841.153	23509
841.29	23642
841.427	23600
841.564	23649
841.701	23623
841.838	23596
841.975	23516
842.112	23474
842.249	23376
842.385	23360
842.522	23653
842.659	23478
842.796	23311
842.933	23368
843.069	23292
843.206	23269
843.343	23520
843.479	23406
843.616	23406
843.752	23094
843.889	23250
844.025	23284
844.162	23147
844.298	23261
844.435	23246
844.571	23048
844.708	23147
844.844	23360
844.98	23261
845.117	23330
845.253	23147
845.389	22957
845.525	23102
845.661	23006
845.798	22847
845.934	23048
846.07	22961
846.206	22904
846.342	22908
846.478	22930
846.614	22729
846.75	22641
846.886	22645
847.022	22691
847.158	22531
847.294	22656
847.429	22668
847.565	22664
847.701	22786
847.837	22306
847.972	22329
848.108	22519
848.244	22436
848.379	22322
848.515	22303
848.65	22143
848.786	22287
848.921	22219
849.057	22276
849.192	22223
849.328	22348
849.463	22253
849.598	22158
849.734	22036
849.869	22124
850.004	21949
850.14	22002
850.275	21994
850.41	21831
850.545	21975
850.68	21934
850.815	22036
850.95	21979
851.085	22131
851.22	22143
851.355	21934
851.49	21983
851.625	22051
851.76	21979
851.895	21975
852.03	21831
852.165	21937
852.299	22006
852.434	22048
852.569	21972
852.703	21960
852.838	21998
852.973	22078
853.107	22112
853.242	21926
853.376	21804
853.511	21743
853.645	21755
853.78	21846
853.914	21930
854.048	21713
854.183	21816
854.317	21876
854.451	22063
854.585	21778
854.72	21675
854.854	21770
854.988	21656
855.122	21823
855.256	21656
855.39	21739
855.524	21884
855.658	21873
855.792	21720
855.926	21892
856.06	21762
856.194	21899
856.327	21705
856.461	21641
856.595	21800
856.729	21762
856.862	21838
856.996	21869
857.13	21861
857.263	21789
857.397	21888
857.53	21865
857.664	21781
857.797	21895
857.931	21960
858.064	21793
858.197	21975
858.331	21759
858.464	21732
858.597	21739
858.731	21736
858.864	21759
858.997	21739
859.13	21800
859.263	21785
859.396	22040
859.529	21926
859.662	21705
859.795	21751
859.928	21739
860.061	21895
860.194	22013
860.327	21819
860.46	21800
860.592	21934
860.725	21903
860.858	21892
860.99	21873
861.123	21720
861.256	21652
861.388	21789
861.521	22561
861.653	21595
861.786	21553
861.918	21682
862.05	21622
862.183	21720
862.315	21694
862.447	21747
862.58	21610
862.712	21526
862.844	21492
862.976	21724
863.108	21603
863.24	21869
863.372	21412
863.504	21450
863.636	21439
863.768	21458
863.9	21511
864.032	21287
864.164	21401
864.296	21564
864.428	21549
864.559	21614
864.691	21618
864.823	21511
864.954	21443
865.086	21393
865.217	21393
865.349	21336
865.48	21450
865.612	21310
865.743	21625
865.875	21443
866.006	21412
866.137	21408
866.269	21458
866.4	21378
866.531	21367
866.662	21321
866.793	21260
866.924	21313
867.055	21389
867.186	21287
867.317	21279
867.448	21321
867.579	21230
867.71	21192
867.841	21241
867.972	21279
868.103	21249
868.233	21283
868.364	21386
868.495	21481
868.625	21370
868.756	21732
868.886	21386
869.017	21511
869.147	21709
869.278	21648
869.408	21447
869.539	21538
869.669	21682
869.799	21591
869.929	21583
870.06	21743
870.19	21838
870.32	21873
870.45	21968
870.58	21987
870.71	21960
870.84	21987
870.97	21941
871.1	21861
871.23	22211
871.36	22124
871.489	21930
871.619	22105
871.749	22051
871.879	22188
872.008	22318
872.138	22097
872.267	22109
872.397	22196
872.526	21975
872.656	21892
872.785	21960
872.915	22280
873.044	22223
873.173	22093
873.303	22204
873.432	22284
873.561	22219
873.69	22196
873.819	22166
873.948	22242
874.077	22154
874.206	22143
874.335	22070
874.464	22295
874.593	22379
874.722	22322
874.851	22344
874.979	22314
875.108	22466
875.237	22367
875.365	22215
875.494	22341
875.623	22485
875.751	22527
875.88	22322
876.008	22466
876.136	22462
876.265	22759
876.393	22934
876.521	22919
876.65	22736
876.778	22721
876.906	22706
877.034	22763
877.162	22649
877.29	22736
877.418	22778
877.546	22767
877.674	22740
877.802	22767
877.93	22835
878.058	22755
878.185	22630
878.313	22679
878.441	22736
878.568	22637
878.696	22679
878.824	22744
878.951	22782
879.079	22915
879.206	23132
879.333	22892
879.461	22683
879.588	22843
879.715	22904
879.842	22949
879.97	22774
880.097	22523
880.224	22451
880.351	22432
880.478	22451
880.605	22371
880.732	22481
880.859	22702
880.986	22557
881.112	22478
881.239	22523
881.366	22261
881.493	22238
881.619	22162
881.746	22002
881.872	22154
881.999	21968
882.125	21937
882.252	22166
882.378	22097
882.505	22109
882.631	21937
882.757	21854
882.883	21854
883.01	21816
883.136	21778
883.262	21793
883.388	21580
883.514	21759
883.64	21751
883.766	21842
883.892	21549
884.018	21504
884.143	21835
884.269	21739
884.395	21557
884.52	21485
884.646	21428
884.772	21298
884.897	21408
885.023	21462
885.148	21660
885.274	21564
885.399	21515
885.524	21431
885.65	21511
885.775	21507
885.9	21279
886.025	21561
886.15	21542
886.275	21321
886.4	21302
886.525	21515
886.65	21428
886.775	21359
886.9	21496
887.025	21686
887.149	21268
887.274	21218
887.399	21165
887.523	21131
887.648	21100
887.773	21180
887.897	21367
888.021	21169
888.146	21116
888.27	21230
888.395	21279
888.519	21100
888.643	21241
888.767	21112
888.891	21085
889.015	20944
889.139	21070
889.263	21070
889.387	21066
889.511	21230
889.635	21131
889.759	21051
889.883	21062
890.006	20918
890.13	21062
890.254	20937
890.377	20781
890.501	20754
890.624	20788
890.748	20834
890.871	20598
890.995	20518
891.118	20530
891.241	20724
891.364	20537
891.488	20731
891.611	20412
891.734	20484
891.857	20613
891.98	20648
892.103	20530
892.226	20492
892.349	20408
892.471	20362
892.594	20514
892.717	20404
892.839	20514
892.962	20495
893.085	20537
893.207	20400
893.33	20465
893.452	20415
893.575	20514
893.697	20434
893.819	20579
893.941	20693
894.064	20556
894.186	20381
894.308	20366
894.43	20526
894.552	20606
894.674	20484
894.796	20389
894.918	20431
895.04	20473
895.161	20465
895.283	20503
895.405	20385
895.526	20396
895.648	20446
895.769	20545
895.891	20434
896.012	20526
896.134	20431
896.255	20427
896.376	20324
896.498	20404
896.619	20507
896.74	20419
896.861	20533
896.982	20712
897.103	20971
897.224	20682
897.345	20712
897.466	20697
897.587	20575
897.708	20819
897.828	20670
897.949	20598
898.07	20393
898.19	20678
898.311	20720
898.431	20621
898.552	20640
898.672	20644
898.792	20731
898.913	20670
899.033	20492
899.153	20492
899.273	20389
899.393	20473
899.513	20526
899.633	20370
899.753	20305
899.873	20259
899.993	20377
900.113	20419
900.232	20301
900.352	20423
900.472	20149
900.591	20145
900.711	20183
900.83	20248
900.95	20233
901.069	20157
901.189	20096
901.308	19811
901.427	19833
901.546	19696
901.665	19731
901.784	19887
901.904	19628
902.023	19578
902.141	19339
902.26	19331
902.379	19422
902.498	19308
902.617	19266
902.735	19274
902.854	19263
902.973	19110
903.091	18924
903.21	18905
903.328	18981
903.446	18764
903.565	18764
903.683	18665
903.801	18688
903.919	18650
904.038	18646
904.156	18563
904.274	18585
904.392	18441
904.51	18361
904.627	18502
904.745	18517
904.863	18448
904.981	18258
905.098	18155
905.216	18201
905.334	18136
905.451	18098
905.569	18159
905.686	18174
905.803	18190
905.921	17992
906.038	17920
906.155	18015
906.272	17756
906.389	17920
906.506	17703
906.623	17672
906.74	17691
906.857	17676
906.974	17737
907.091	17672
907.208	17802
907.324	17745
907.441	17608
907.557	17505
907.674	17471
907.79	17383
907.907	17284
908.023	17459
908.139	17474
908.256	17326
908.372	17231
908.488	17231
908.604	17360
908.72	17143
908.836	17117
908.952	17079
909.068	17132
909.184	17258
909.3	17242
909.415	17086
909.531	17029
909.647	16915
909.762	16866
909.878	16816
909.993	16881
910.108	16847
910.224	16820
910.339	16885
910.454	16702
910.57	16713
910.685	16542
910.8	16835
910.915	16869
911.03	16622
911.145	16459
911.259	16344
911.374	16432
911.489	16398
911.604	16325
911.718	16139
911.833	16192
911.947	16147
912.062	15987
912.176	16086
912.291	16207
912.405	16048
912.519	16322
912.633	16249
912.748	16207
912.862	16169
912.976	15968
913.09	15922
913.204	15732
913.318	15960
913.431	16025
913.545	16017
913.659	16082
913.772	15880
913.886	15800
914	15732
914.113	15865
914.226	15808
914.34	15797
914.453	15667
914.566	15778
914.68	15629
914.793	15618
914.906	15519
915.019	15386
915.132	15298
915.245	15332
915.358	15363
915.47	15401
915.583	15351
915.696	15393
915.809	15492
915.921	15424
916.034	15298
916.146	15294
916.259	15237
916.371	15370
916.483	15207
916.595	15211
916.708	15180
916.82	15119
916.932	15249
917.044	15138
917.156	15131
917.268	15108
917.38	14918
917.491	15001
917.603	15066
917.715	15017
917.826	15070
917.938	14937
918.049	14906
918.161	14971
918.272	15127
918.384	15066
918.495	14986
918.606	14853
918.717	14682
918.828	14826
918.939	14708
919.05	14610
919.161	14743
919.272	14541
919.383	14651
919.494	14746
919.604	14963
919.715	14720
919.826	14564
919.936	14708
920.047	14773
920.157	14735
920.267	14834
920.378	14765
920.488	14697
920.598	14804
920.708	15055
920.818	14792
920.928	14902
921.038	14975
921.148	14842
921.258	14716
921.368	14530
921.477	14461
921.587	14442
921.697	14408
921.806	14393
921.916	14267
922.025	14096
922.134	14081
922.244	14115
922.353	14161
922.462	14077
922.571	13887
922.68	13784
922.789	13811
922.898	13734
923.007	13708
923.116	13708
923.224	13719
923.333	13719
923.442	13601
923.55	13502
923.659	13563
923.767	13605
923.876	13563
923.984	13563
924.092	13400
924.201	13499
924.309	13480
924.417	13491
924.525	13483
924.633	13445
924.741	14073
924.849	13145
924.956	13369
925.064	13175
925.172	13129
925.279	13175
925.387	13133
925.494	13095
925.602	13308
925.709	13213
925.816	13038
925.924	13015
926.031	13164
926.138	13171
926.245	13095
926.352	12951
926.459	13133
926.566	13183
926.673	12981
926.779	12840
926.886	12962
926.993	12684
927.099	12700
927.206	12696
927.312	12494
927.419	12719
927.525	12707
927.631	12719
927.737	12627
927.843	12414
927.95	12513
928.056	12486
928.162	12475
928.267	12532
928.373	13149
928.479	12627
928.585	12422
928.69	12441
928.796	12445
928.901	12384
929.007	12235
929.112	12384
929.218	12376
929.323	12292
929.428	12213
929.533	12342
929.638	12155
929.743	12300
929.848	12224
929.953	12201
930.058	12110
930.163	11931
930.267	11954
930.372	12072
930.477	11874
930.581	12163
930.685	11889
930.79	11786
930.894	11790
930.998	11729
931.103	11920
931.207	11577
931.311	11486
931.415	11368
931.519	11185
931.623	11246
