Data from test_V78500241_2738.txt Node
Date: Fri Mar 25 15:28:55 CST 2022
User: usil
Spectrometer: V785-0024
Trigger mode: 0
Integration Time (sec): 4.000000E-1
Scans to average: 1
Nonlinearity correction enabled: false
Boxcar width: 0
Storing dark spectrum: false
XAxis mode: Wavelengths
Number of Pixels in Spectrum: 1024
>>>>>Begin Spectral Data<<<<<
801.071	27150
801.214	27150
801.356	26823
801.499	26857
801.641	26636
801.783	26716
801.926	26655
802.068	26564
802.211	26670
802.353	26594
802.496	26240
802.638	26355
802.78	26263
802.923	26199
803.065	26187
803.208	26172
803.35	26278
803.492	26423
803.635	26465
803.777	26336
803.919	26530
804.061	26861
804.204	26549
804.346	26404
804.488	26412
804.63	26442
804.773	26305
804.915	26594
805.057	26442
805.199	26404
805.341	26579
805.483	26571
805.626	26507
805.768	26533
805.91	26434
806.052	26564
806.194	26469
806.336	26762
806.478	26412
806.62	26503
806.762	26648
806.904	26899
807.046	27150
807.188	26891
807.33	27089
807.472	27138
807.614	26872
807.756	26948
807.898	26796
808.04	26640
808.182	26842
808.324	26758
808.465	26857
808.607	26986
808.749	27093
808.891	27298
809.033	27359
809.174	27192
809.316	27074
809.458	27184
809.6	27135
809.741	27310
809.883	27233
810.025	27507
810.166	27408
810.308	27401
810.45	27523
810.591	27363
810.733	27169
810.875	27131
811.016	27089
811.158	27104
811.299	27233
811.441	27294
811.582	27351
811.724	27310
811.865	27062
812.007	27051
812.148	26979
812.29	27192
812.431	27211
812.573	27306
812.714	27526
812.855	27561
812.997	27747
813.138	27751
813.279	27652
813.421	27644
813.562	27606
813.703	27435
813.845	27188
813.986	26940
814.127	26963
814.268	26773
814.41	26918
814.551	26773
814.692	26807
814.833	26792
814.974	26739
815.115	26754
815.256	26632
815.397	26750
815.539	26526
815.68	26438
815.821	26488
815.962	26621
816.103	26495
816.244	26476
816.385	26351
816.526	26366
816.666	26103
816.807	26088
816.948	26096
817.089	26180
817.23	26103
817.371	26088
817.512	26001
817.653	25936
817.793	26016
817.934	26012
818.075	26027
818.216	25944
818.356	25947
818.497	25917
818.638	25860
818.778	25814
818.919	25685
819.06	25841
819.2	25917
819.341	26092
819.481	26065
819.622	26039
819.762	26317
819.903	26271
820.043	26271
820.184	26126
820.324	26115
820.465	26278
820.605	26183
820.746	26157
820.886	26027
821.026	26153
821.167	25982
821.307	26355
821.447	26237
821.588	25906
821.728	25795
821.868	25719
822.008	25525
822.149	25415
822.289	25457
822.429	25168
822.569	25152
822.709	25266
822.849	25038
822.99	25110
823.13	24966
823.27	24970
823.41	24806
823.55	24753
823.69	24757
823.83	24863
823.97	24646
824.11	24570
824.25	24517
824.389	24578
824.529	24779
824.669	24677
824.809	24719
824.949	24734
825.089	24722
825.228	24570
825.368	24517
825.508	24410
825.648	24494
825.787	24532
825.927	24437
826.067	24513
826.206	24521
826.346	24528
826.485	24525
826.625	24502
826.765	24536
826.904	24566
827.044	24197
827.183	24243
827.323	24216
827.462	24194
827.601	24140
827.741	24205
827.88	24201
828.02	24053
828.159	24114
828.298	24140
828.437	24213
828.577	24262
828.716	24289
828.855	24038
828.994	24003
829.134	23866
829.273	23927
829.412	23961
829.551	23904
829.69	23954
829.829	23901
829.968	23999
830.107	23988
830.246	23855
830.385	23752
830.524	23847
830.663	23687
830.802	23623
830.941	23634
831.08	23516
831.219	23748
831.357	23570
831.496	23805
831.635	23425
831.774	23417
831.913	23395
832.051	23246
832.19	23254
832.329	23463
832.467	23337
832.606	23121
832.744	23265
832.883	23235
833.022	23166
833.16	23117
833.299	23254
833.437	23086
833.576	23368
833.714	23315
833.852	23280
833.991	23303
834.129	23280
834.267	23326
834.406	23250
834.544	23288
834.682	23425
834.821	23273
834.959	23288
835.097	23254
835.235	23345
835.373	23204
835.511	23277
835.65	23094
835.788	23212
835.926	22968
836.064	22919
836.202	22911
836.34	23075
836.478	23170
836.615	23052
836.753	23022
836.891	23185
837.029	23102
837.167	23124
837.305	23025
837.443	22984
837.58	23018
837.718	22949
837.856	23041
837.993	23003
838.131	22873
838.269	22812
838.406	22942
838.544	22733
838.681	22634
838.819	22626
838.956	22440
839.094	22447
839.231	22546
839.369	22626
839.506	22767
839.643	22740
839.781	22481
839.918	22379
840.055	22421
840.193	22504
840.33	22379
840.467	22333
840.604	22394
840.742	22733
840.879	22268
841.016	22291
841.153	22204
841.29	22504
841.427	22367
841.564	22386
841.701	22291
841.838	22379
841.975	22272
842.112	22356
842.249	22139
842.385	22070
842.522	22352
842.659	22257
842.796	22211
842.933	22147
843.069	22147
843.206	22139
843.343	22192
843.479	22268
843.616	22200
843.752	21869
843.889	21842
844.025	22013
844.162	21964
844.298	21869
844.435	21903
844.571	21793
844.708	21888
844.844	22013
844.98	22124
845.117	22013
845.253	21846
845.389	21770
845.525	21789
845.661	21747
845.798	21599
845.934	21701
846.07	21568
846.206	21694
846.342	21667
846.478	21648
846.614	21458
846.75	21329
846.886	21408
847.022	21561
847.158	21519
847.294	21424
847.429	21294
847.565	21401
847.701	21652
847.837	21116
847.972	21070
848.108	21264
848.244	21313
848.379	21096
848.515	21062
848.65	20975
848.786	21024
848.921	20990
849.057	21024
849.192	21096
849.328	21108
849.463	20895
849.598	20796
849.734	20807
849.869	20868
850.004	20781
850.14	20861
850.275	20788
850.41	20632
850.545	20727
850.68	20777
850.815	20804
850.95	20724
851.085	20823
851.22	20731
851.355	20823
851.49	20720
851.625	20743
851.76	20731
851.895	20518
852.03	20625
852.165	20785
852.299	20788
852.434	20849
852.569	20682
852.703	20743
852.838	20754
852.973	20853
853.107	20899
853.242	20830
853.376	20648
853.511	20419
853.645	20625
853.78	20549
853.914	20720
854.048	20545
854.183	20533
854.317	20594
854.451	20727
854.585	20655
854.72	20389
854.854	20621
854.988	20533
855.122	20560
855.256	20492
855.39	20594
855.524	20667
855.658	20530
855.792	20701
855.926	20522
856.06	20682
856.194	20640
856.327	20533
856.461	20583
856.595	20549
856.729	20617
856.862	20537
856.996	20594
857.13	20541
857.263	20625
857.397	20667
857.53	20590
857.664	20686
857.797	20682
857.931	20568
858.064	20636
858.197	20735
858.331	20465
858.464	20594
858.597	20396
858.731	20617
858.864	20575
858.997	20598
859.13	20541
859.263	20667
859.396	20526
859.529	20514
859.662	20571
859.795	20617
859.928	20686
860.061	20617
860.194	20826
860.327	20678
860.46	20568
860.592	20743
860.725	20682
860.858	20743
860.99	20564
861.123	20476
861.256	20514
861.388	20609
861.521	21017
861.653	20503
861.786	20404
861.918	20370
862.05	20454
862.183	20427
862.315	20526
862.447	20537
862.58	20514
862.712	20412
862.844	20237
862.976	20450
863.108	20415
863.24	20842
863.372	20218
863.504	20286
863.636	20275
863.768	20366
863.9	20336
864.032	20195
864.164	20298
864.296	20221
864.428	20324
864.559	20366
864.691	20404
864.823	20278
864.954	20275
865.086	20294
865.217	20149
865.349	20081
865.48	20218
865.612	20225
865.743	20370
865.875	20100
866.006	20046
866.137	20168
866.269	20278
866.4	20218
866.531	20073
866.662	20142
866.793	20157
866.924	20092
867.055	20244
867.186	20176
867.317	20111
867.448	19909
867.579	20168
867.71	19978
867.841	20020
867.972	20142
868.103	20081
868.233	20107
868.364	20172
868.495	20267
868.625	20389
868.756	20427
868.886	20355
869.017	20423
869.147	20389
869.278	20450
869.408	20457
869.539	20339
869.669	20526
869.799	20419
869.929	20446
870.06	20461
870.19	20648
870.32	20697
870.45	20712
870.58	20762
870.71	20838
870.84	20834
870.97	20906
871.1	20811
871.23	21017
871.36	20971
871.489	20804
871.619	20823
871.749	21119
871.879	20979
872.008	20990
872.138	20963
872.267	20853
872.397	20765
872.526	20792
872.656	20800
872.785	20697
872.915	20941
873.044	21123
873.173	20967
873.303	21089
873.432	21085
873.561	21066
873.69	20921
873.819	21020
873.948	21055
874.077	21100
874.206	21058
874.335	21036
874.464	21199
874.593	21226
874.722	21294
874.851	21283
874.979	21283
875.108	21378
875.237	21135
875.365	21184
875.494	21252
875.623	21283
875.751	21207
875.88	21119
876.008	21359
876.136	21504
876.265	21625
876.393	21774
876.521	21652
876.65	21762
876.778	21739
876.906	21447
877.034	21526
877.162	21618
877.29	21568
877.418	21583
877.546	21519
877.674	21698
877.802	21595
877.93	21606
878.058	21595
878.185	21496
878.313	21534
878.441	21576
878.568	21454
878.696	21439
878.824	21606
878.951	21720
879.079	21785
879.206	21793
879.333	21789
879.461	21701
879.588	21568
879.715	21823
879.842	21865
879.97	21610
880.097	21313
880.224	21428
880.351	21439
880.478	21534
880.605	21294
880.732	21325
880.859	21629
880.986	21393
881.112	21370
881.239	21249
881.366	21066
881.493	21013
881.619	21028
881.746	21104
881.872	20925
881.999	20960
882.125	20914
882.252	21036
882.378	20986
882.505	21020
882.631	20914
882.757	20689
882.883	20868
883.01	20712
883.136	20769
883.262	20606
883.388	20518
883.514	20754
883.64	20765
883.766	20602
883.892	20587
884.018	20484
884.143	20648
884.269	20758
884.395	20412
884.52	20370
884.646	20317
884.772	20164
884.897	20282
885.023	20404
885.148	20434
885.274	20507
885.399	20457
885.524	20355
885.65	20396
885.775	20396
885.9	20396
886.025	20442
886.15	20374
886.275	20343
886.4	20275
886.525	20339
886.65	20237
886.775	20233
886.9	20427
887.025	20499
887.149	20320
887.274	20233
887.399	20164
887.523	20081
887.648	20103
887.773	20008
887.897	20301
888.021	20263
888.146	20069
888.27	20176
888.395	20096
888.519	20077
888.643	20218
888.767	20084
888.891	20046
889.015	19951
889.139	20073
889.263	19894
889.387	20046
889.511	20084
889.635	20214
889.759	20020
889.883	19833
890.006	19970
890.13	20046
890.254	19841
890.377	19833
890.501	19883
890.624	19791
890.748	19814
890.871	19658
890.995	19476
891.118	19438
891.241	19624
891.364	19533
891.488	19670
891.611	19453
891.734	19464
891.857	19658
891.98	19506
892.103	19567
892.226	19441
892.349	19426
892.471	19251
892.594	19457
892.717	19438
892.839	19476
892.962	19354
893.085	19563
893.207	19453
893.33	19392
893.452	19312
893.575	19407
893.697	19438
893.819	19613
893.941	19712
894.064	19658
894.186	19377
894.308	19468
894.43	19506
894.552	19685
894.674	19438
894.796	19289
894.918	19438
895.04	19350
895.161	19491
895.283	19422
895.405	19358
895.526	19476
895.648	19293
895.769	19464
895.891	19468
896.012	19521
896.134	19480
896.255	19491
896.376	19441
896.498	19537
896.619	19537
896.74	19457
896.861	19563
896.982	19868
897.103	19947
897.224	19731
897.345	19708
897.466	19571
897.587	19780
897.708	19875
897.828	19681
897.949	19495
898.07	19480
898.19	19674
898.311	19822
898.431	19647
898.552	19662
898.672	19780
898.792	19734
898.913	19746
899.033	19540
899.153	19518
899.273	19426
899.393	19533
899.513	19472
899.633	19480
899.753	19556
899.873	19377
899.993	19480
900.113	19346
900.232	19358
900.352	19335
900.472	19301
900.591	19278
900.711	19247
900.83	19126
900.95	19236
901.069	19388
901.189	19095
901.308	18863
901.427	18810
901.546	18875
901.665	18863
901.784	18749
901.904	18692
902.023	18623
902.141	18330
902.26	18483
902.379	18369
902.498	18410
902.617	18239
902.735	18338
902.854	18270
902.973	18308
903.091	18053
903.21	18068
903.328	18102
903.446	17942
903.565	17870
903.683	17901
903.801	17745
903.919	17790
904.038	17729
904.156	17573
904.274	17680
904.392	17604
904.51	17600
904.627	17649
904.745	17600
904.863	17642
904.981	17410
905.098	17322
905.216	17280
905.334	17322
905.451	17322
905.569	17341
905.686	17239
905.803	17307
905.921	17071
906.038	17086
906.155	17056
906.272	16957
906.389	16908
906.506	16675
906.623	16809
906.74	16782
906.857	16683
906.974	16733
907.091	16911
907.208	16934
907.324	16873
907.441	16630
907.557	16512
907.674	16519
907.79	16470
907.907	16443
908.023	16535
908.139	16573
908.256	16538
908.372	16447
908.488	16360
908.604	16356
908.72	16276
908.836	16265
908.952	16238
909.068	16386
909.184	16405
909.3	16280
909.415	16333
909.531	16223
909.647	15941
909.762	15991
909.878	15937
909.993	15994
910.108	15987
910.224	15949
910.339	15945
910.454	15876
910.57	15861
910.685	15842
910.8	15975
910.915	15880
911.03	15857
911.145	15667
911.259	15473
911.374	15606
911.489	15542
911.604	15542
911.718	15382
911.833	15340
911.947	15161
912.062	15180
912.176	15435
912.291	15466
912.405	15458
912.519	15428
912.633	15492
912.748	15294
912.862	15374
912.976	15184
913.09	15176
913.204	15157
913.318	15203
913.431	15169
913.545	15291
913.659	15348
913.772	15154
913.886	15070
914	14925
914.113	14952
914.226	15017
914.34	14960
914.453	14807
914.566	14933
914.68	14845
914.793	14792
914.906	14667
915.019	14602
915.132	14495
915.245	14457
915.358	14522
915.47	14598
915.583	14488
915.696	14556
915.809	14682
915.921	14689
916.034	14526
916.146	14469
916.259	14469
916.371	14549
916.483	14488
916.595	14492
916.708	14404
916.82	14442
916.932	14324
917.044	14377
917.156	14275
917.268	14339
917.38	14225
917.491	14298
917.603	14286
917.715	14271
917.826	14343
917.938	14324
918.049	14073
918.161	14206
918.272	14332
918.384	14400
918.495	14176
918.606	14024
918.717	14073
918.828	14058
918.939	14046
919.05	13955
919.161	14001
919.272	13837
919.383	13902
919.494	14100
919.604	14183
919.715	14096
919.826	13940
919.936	13906
920.047	14020
920.157	14005
920.267	14088
920.378	14126
920.488	13921
920.598	14123
920.708	14351
920.818	14039
920.928	14180
921.038	14248
921.148	14229
921.258	13997
921.368	13788
921.477	13837
921.587	13723
921.697	13639
921.806	13757
921.916	13586
922.025	13468
922.134	13464
922.244	13403
922.353	13449
922.462	13324
922.571	13175
922.68	13118
922.789	13023
922.898	13038
923.007	12954
923.116	13076
923.224	13008
923.333	13023
923.442	12909
923.55	12848
923.659	12882
923.767	12894
923.876	12814
923.984	12848
924.092	12722
924.201	12837
924.309	12753
924.417	12753
924.525	12745
924.633	12802
924.741	13753
924.849	12593
924.956	12711
925.064	12452
925.172	12441
925.279	12467
925.387	12521
925.494	12494
925.602	12582
925.709	12574
925.816	12414
925.924	12426
926.031	12464
926.138	12388
926.245	12445
926.352	12319
926.459	12506
926.566	12544
926.673	12300
926.779	12296
926.886	12270
926.993	12060
927.099	11984
927.206	12019
927.312	11958
927.419	12117
927.525	12102
927.631	12053
927.737	11893
927.843	11950
927.95	11836
928.056	11961
928.162	11935
928.267	11980
928.373	12479
928.479	11996
928.585	11752
928.69	11904
928.796	11904
928.901	11786
929.007	11657
929.112	11752
929.218	11775
929.323	11710
929.428	11699
929.533	11764
929.638	11543
929.743	11577
929.848	11566
929.953	11608
930.058	11505
930.163	11296
930.267	11299
930.372	11395
930.477	11250
930.581	11562
930.685	11376
930.79	11258
930.894	11231
930.998	11220
931.103	11395
931.207	11014
931.311	10896
931.415	10801
931.519	10660
931.623	10634
