Data from test_V78500241_2769.txt Node
Date: Fri Mar 25 15:29:08 CST 2022
User: usil
Spectrometer: V785-0024
Trigger mode: 0
Integration Time (sec): 4.000000E-1
Scans to average: 1
Nonlinearity correction enabled: false
Boxcar width: 0
Storing dark spectrum: false
XAxis mode: Wavelengths
Number of Pixels in Spectrum: 1024
>>>>>Begin Spectral Data<<<<<
801.071	27077
801.214	26952
801.356	26842
801.499	26667
801.641	26594
801.783	26750
801.926	26754
802.068	26587
802.211	26446
802.353	26457
802.496	26195
802.638	26233
802.78	26202
802.923	26065
803.065	26046
803.208	26100
803.35	26077
803.492	26389
803.635	26381
803.777	26347
803.919	26377
804.061	26720
804.204	26533
804.346	26404
804.488	26248
804.63	26233
804.773	26362
804.915	26298
805.057	26507
805.199	26389
805.341	26351
805.483	26537
805.626	26484
805.768	26206
805.91	26453
806.052	26526
806.194	26393
806.336	26823
806.478	26476
806.62	26545
806.762	26708
806.904	26758
807.046	26861
807.188	26971
807.33	26967
807.472	27055
807.614	26872
807.756	26845
807.898	26750
808.04	26545
808.182	26617
808.324	26769
808.465	26929
808.607	26891
808.749	27112
808.891	27127
809.033	27214
809.174	27055
809.316	27005
809.458	27142
809.6	26929
809.741	27260
809.883	27207
810.025	27443
810.166	27272
810.308	27313
810.45	27264
810.591	27211
810.733	27119
810.875	26986
811.016	26918
811.158	27077
811.299	27306
811.441	27272
811.582	27291
811.724	27089
811.865	27096
812.007	26998
812.148	26975
812.29	27093
812.431	27199
812.573	27260
812.714	27485
812.855	27515
812.997	27515
813.138	27694
813.279	27618
813.421	27603
813.562	27439
813.703	27386
813.845	27135
813.986	26971
814.127	26792
814.268	26708
814.41	26777
814.551	26655
814.692	26746
814.833	26724
814.974	26598
815.115	26815
815.256	26583
815.397	26777
815.539	26549
815.68	26465
815.821	26408
815.962	26602
816.103	26427
816.244	26400
816.385	26244
816.526	26187
816.666	26088
816.807	26027
816.948	26073
817.089	26058
817.23	25955
817.371	25970
817.512	26084
817.653	25959
817.793	25883
817.934	25982
818.075	26031
818.216	25966
818.356	25921
818.497	25746
818.638	25772
818.778	25814
818.919	25731
819.06	25731
819.2	25708
819.341	25898
819.481	25868
819.622	26138
819.762	26176
819.903	26145
820.043	26027
820.184	26111
820.324	26069
820.465	25970
820.605	26096
820.746	25955
820.886	25913
821.026	25921
821.167	25966
821.307	26062
821.447	25947
821.588	25803
821.728	25719
821.868	25521
822.008	25449
822.149	25544
822.289	25377
822.429	25213
822.569	25137
822.709	25114
822.849	25023
822.99	24951
823.13	24951
823.27	24939
823.41	24764
823.55	24631
823.69	24677
823.83	24658
823.97	24612
824.11	24418
824.25	24521
824.389	24429
824.529	24597
824.669	24479
824.809	24616
824.949	24616
825.089	24555
825.228	24452
825.368	24513
825.508	24361
825.648	24407
825.787	24422
825.927	24517
826.067	24376
826.206	24490
826.346	24490
826.485	24544
826.625	24414
826.765	24483
826.904	24578
827.044	24342
827.183	24254
827.323	24140
827.462	24220
827.601	24110
827.741	24178
827.88	24125
828.02	24072
828.159	24121
828.298	24136
828.437	24194
828.577	23977
828.716	24182
828.855	23961
828.994	23737
829.134	23783
829.273	23893
829.412	23790
829.551	23623
829.69	23847
829.829	23813
829.968	23942
830.107	23901
830.246	23805
830.385	23729
830.524	23779
830.663	23775
830.802	23501
830.941	23471
831.08	23482
831.219	23577
831.357	23478
831.496	23779
831.635	23444
831.774	23417
831.913	23318
832.051	23296
832.19	23254
832.329	23337
832.467	23220
832.606	23166
832.744	23212
832.883	23128
833.022	23147
833.16	23254
833.299	23159
833.437	23181
833.576	23284
833.714	23162
833.852	23273
833.991	23265
834.129	23193
834.267	23284
834.406	23220
834.544	23292
834.682	23269
834.821	23269
834.959	23280
835.097	23181
835.235	23261
835.373	23056
835.511	23208
835.65	23006
835.788	23052
835.926	22968
836.064	22877
836.202	23048
836.34	22980
836.478	23178
836.615	22904
836.753	23079
836.891	23109
837.029	23041
837.167	23022
837.305	22999
837.443	22995
837.58	22987
837.718	22972
837.856	22858
837.993	22828
838.131	22911
838.269	22736
838.406	23033
838.544	22797
838.681	22637
838.819	22546
838.956	22337
839.094	22398
839.231	22402
839.369	22561
839.506	22729
839.643	22557
839.781	22249
839.918	22280
840.055	22440
840.193	22565
840.33	22295
840.467	22352
840.604	22341
840.742	22588
840.879	22253
841.016	22310
841.153	22135
841.29	22421
841.427	22139
841.564	22242
841.701	22303
841.838	22223
841.975	22276
842.112	22238
842.249	22025
842.385	22154
842.522	22291
842.659	22249
842.796	22044
842.933	22124
843.069	22017
843.206	22055
843.343	22154
843.479	22070
843.616	22048
843.752	21930
843.889	21903
844.025	22006
844.162	21747
844.298	21918
844.435	21778
844.571	21892
844.708	21968
844.844	21953
844.98	21983
845.117	21816
845.253	21869
845.389	21701
845.525	21743
845.661	21652
845.798	21523
845.934	21633
846.07	21618
846.206	21557
846.342	21504
846.478	21443
846.614	21355
846.75	21291
846.886	21252
847.022	21420
847.158	21382
847.294	21382
847.429	21367
847.565	21222
847.701	21443
847.837	21096
847.972	21028
848.108	21081
848.244	21161
848.379	20921
848.515	20777
848.65	20883
848.786	20887
848.921	20956
849.057	20994
849.192	20944
849.328	20982
849.463	20921
849.598	20902
849.734	20895
849.869	20754
850.004	20594
850.14	20765
850.275	20716
850.41	20640
850.545	20533
850.68	20727
850.815	20701
850.95	20788
851.085	20815
851.22	20788
851.355	20602
851.49	20697
851.625	20708
851.76	20735
851.895	20564
852.03	20689
852.165	20648
852.299	20754
852.434	20743
852.569	20678
852.703	20587
852.838	20708
852.973	20807
853.107	20674
853.242	20571
853.376	20400
853.511	20339
853.645	20480
853.78	20549
853.914	20484
854.048	20454
854.183	20446
854.317	20598
854.451	20727
854.585	20465
854.72	20431
854.854	20629
854.988	20412
855.122	20549
855.256	20328
855.39	20545
855.524	20629
855.658	20686
855.792	20526
855.926	20598
856.06	20587
856.194	20590
856.327	20495
856.461	20473
856.595	20442
856.729	20461
856.862	20674
856.996	20541
857.13	20670
857.263	20507
857.397	20613
857.53	20465
857.664	20492
857.797	20575
857.931	20587
858.064	20606
858.197	20579
858.331	20518
858.464	20503
858.597	20358
858.731	20446
858.864	20541
858.997	20389
859.13	20431
859.263	20446
859.396	20545
859.529	20522
859.662	20233
859.795	20469
859.928	20469
860.061	20530
860.194	20697
860.327	20530
860.46	20495
860.592	20564
860.725	20564
860.858	20625
860.99	20629
861.123	20415
861.256	20530
861.388	20446
861.521	21047
861.653	20366
861.786	20111
861.918	20377
862.05	20408
862.183	20389
862.315	20389
862.447	20454
862.58	20400
862.712	20301
862.844	20206
862.976	20313
863.108	20286
863.24	20655
863.372	20244
863.504	20313
863.636	20183
863.768	20187
863.9	20168
864.032	20103
864.164	20024
864.296	20259
864.428	20278
864.559	20176
864.691	20176
864.823	20096
864.954	20134
865.086	20233
865.217	20111
865.349	19925
865.48	20035
865.612	20024
865.743	20202
865.875	20134
866.006	20046
866.137	20084
866.269	20050
866.4	20081
866.531	19963
866.662	19913
866.793	20016
866.924	19959
867.055	20050
867.186	20096
867.317	20027
867.448	19917
867.579	20096
867.71	19986
867.841	19982
867.972	19913
868.103	20115
868.233	20050
868.364	20031
868.495	20126
868.625	20290
868.756	20358
868.886	20256
869.017	20237
869.147	20393
869.278	20419
869.408	20313
869.539	20282
869.669	20412
869.799	20298
869.929	20423
870.06	20412
870.19	20663
870.32	20537
870.45	20651
870.58	20674
870.71	20708
870.84	20754
870.97	20682
871.1	20720
871.23	20914
871.36	20842
871.489	20941
871.619	20899
871.749	20895
871.879	20781
872.008	20937
872.138	20929
872.267	20941
872.397	20735
872.526	20727
872.656	20686
872.785	20735
872.915	21005
873.044	20979
873.173	20800
873.303	20925
873.432	20975
873.561	20948
873.69	20819
873.819	20960
873.948	21001
874.077	20868
874.206	20933
874.335	20998
874.464	21036
874.593	21180
874.722	21119
874.851	21211
874.979	21233
875.108	21268
875.237	20982
875.365	21127
875.494	21108
875.623	21306
875.751	21184
875.88	21165
876.008	21283
876.136	21344
876.265	21572
876.393	21595
876.521	21629
876.65	21633
876.778	21534
876.906	21507
877.034	21481
877.162	21557
877.29	21313
877.418	21599
877.546	21488
877.674	21534
877.802	21603
877.93	21466
878.058	21500
878.185	21367
878.313	21481
878.441	21450
878.568	21287
878.696	21450
878.824	21633
878.951	21686
879.079	21671
879.206	21686
879.333	21644
879.461	21466
879.588	21587
879.715	21682
879.842	21854
879.97	21564
880.097	21408
880.224	21340
880.351	21496
880.478	21313
880.605	21279
880.732	21313
880.859	21660
880.986	21473
881.112	21245
881.239	21313
881.366	21138
881.493	20986
881.619	20925
881.746	20880
881.872	20880
881.999	20963
882.125	20785
882.252	20948
882.378	20807
882.505	20929
882.631	20819
882.757	20526
882.883	20674
883.01	20644
883.136	20552
883.262	20526
883.388	20495
883.514	20549
883.64	20678
883.766	20537
883.892	20450
884.018	20408
884.143	20701
884.269	20693
884.395	20492
884.52	20309
884.646	20351
884.772	20130
884.897	20103
885.023	20374
885.148	20370
885.274	20374
885.399	20457
885.524	20336
885.65	20396
885.775	20332
885.9	20320
886.025	20385
886.15	20343
886.275	20168
886.4	20240
886.525	20244
886.65	20084
886.775	20309
886.9	20495
887.025	20476
887.149	20339
887.274	20096
887.399	20103
887.523	20065
887.648	19993
887.773	19887
887.897	20195
888.021	20138
888.146	19894
888.27	20195
888.395	20145
888.519	20050
888.643	20138
888.767	20161
888.891	20024
889.015	19887
889.139	19909
889.263	19814
889.387	19974
889.511	20016
889.635	19967
889.759	19799
889.883	19856
890.006	19959
890.13	19967
890.254	19826
890.377	19799
890.501	19620
890.624	19586
890.748	19662
890.871	19594
890.995	19529
891.118	19403
891.241	19540
891.364	19453
891.488	19518
891.611	19480
891.734	19483
891.857	19392
891.98	19582
892.103	19476
892.226	19449
892.349	19438
892.471	19266
892.594	19263
892.717	19449
892.839	19308
892.962	19419
893.085	19400
893.207	19358
893.33	19316
893.452	19198
893.575	19388
893.697	19354
893.819	19590
893.941	19464
894.064	19582
894.186	19301
894.308	19388
894.43	19540
894.552	19567
894.674	19510
894.796	19358
894.918	19278
895.04	19331
895.161	19426
895.283	19369
895.405	19266
895.526	19346
895.648	19514
895.769	19400
895.891	19331
896.012	19430
896.134	19426
896.255	19457
896.376	19362
896.498	19331
896.619	19430
896.74	19449
896.861	19483
896.982	19772
897.103	19776
897.224	19548
897.345	19734
897.466	19540
897.587	19571
897.708	19723
897.828	19651
897.949	19529
898.07	19327
898.19	19518
898.311	19689
898.431	19605
898.552	19571
898.672	19731
898.792	19727
898.913	19696
899.033	19537
899.153	19502
899.273	19301
899.393	19403
899.513	19422
899.633	19434
899.753	19468
899.873	19358
899.993	19422
900.113	19396
900.232	19411
900.352	19350
900.472	19266
900.591	19141
900.711	19164
900.83	19148
900.95	19152
901.069	19080
901.189	19008
901.308	18749
901.427	18840
901.546	18722
901.665	18844
901.784	18821
901.904	18684
902.023	18536
902.141	18353
902.26	18220
902.379	18391
902.498	18456
902.617	18258
902.735	18376
902.854	18197
902.973	18228
903.091	17885
903.21	17923
903.328	18045
903.446	17847
903.565	17866
903.683	17790
903.801	17722
903.919	17695
904.038	17676
904.156	17406
904.274	17604
904.392	17516
904.51	17562
904.627	17391
904.745	17539
904.863	17695
904.981	17406
905.098	17242
905.216	17227
905.334	17277
905.451	17212
905.569	17136
905.686	17159
905.803	17208
905.921	16942
906.038	17098
906.155	17083
906.272	16877
906.389	17003
906.506	16816
906.623	16900
906.74	16771
906.857	16672
906.974	16516
907.091	16824
907.208	16824
907.324	16774
907.441	16626
907.557	16497
907.674	16596
907.79	16478
907.907	16497
908.023	16497
908.139	16527
908.256	16371
908.372	16417
908.488	16360
908.604	16219
908.72	16154
908.836	16291
908.952	16166
909.068	16211
909.184	16363
909.3	16093
909.415	16181
909.531	16177
909.647	15930
909.762	15930
909.878	15915
909.993	15968
910.108	15869
910.224	15838
910.339	15835
910.454	15835
910.57	15705
910.685	15591
910.8	15888
910.915	15819
911.03	15732
911.145	15633
911.259	15523
911.374	15515
911.489	15469
911.604	15389
911.718	15116
911.833	15329
911.947	15256
912.062	15154
912.176	15321
912.291	15298
912.405	15370
912.519	15538
912.633	15507
912.748	15363
912.862	15355
912.976	15051
913.09	15036
913.204	14948
913.318	15055
913.431	15176
913.545	15195
913.659	15127
913.772	15051
913.886	14986
914	14887
914.113	14941
914.226	15058
914.34	14990
914.453	14785
914.566	15039
914.68	14853
914.793	14845
914.906	14640
915.019	14514
915.132	14385
915.245	14541
915.358	14461
915.47	14495
915.583	14621
915.696	14484
915.809	14659
915.921	14636
916.034	14469
916.146	14518
916.259	14415
916.371	14568
916.483	14484
916.595	14473
916.708	14374
916.82	14370
916.932	14370
917.044	14343
917.156	14336
917.268	14176
917.38	14210
917.491	14191
917.603	14214
917.715	14263
917.826	14317
917.938	14210
918.049	14161
918.161	14145
918.272	14309
918.384	14248
918.495	14050
918.606	14012
918.717	14008
918.828	14088
918.939	14043
919.05	13898
919.161	14065
919.272	13761
919.383	13757
919.494	13959
919.604	14149
919.715	13940
919.826	13852
919.936	13875
920.047	14054
920.157	13932
920.267	13989
920.378	13898
920.488	13944
920.598	14153
920.708	14286
920.818	14123
920.928	13993
921.038	14339
921.148	14142
921.258	13955
921.368	13753
921.477	13651
921.587	13578
921.697	13544
921.806	13696
921.916	13563
922.025	13381
922.134	13354
922.244	13343
922.353	13407
922.462	13263
922.571	13209
922.68	13023
922.789	12966
922.898	12947
923.007	12932
923.116	12924
923.224	12977
923.333	12935
923.442	12840
923.55	12856
923.659	12863
923.767	12935
923.876	12817
923.984	12753
924.092	12711
924.201	12757
924.309	12738
924.417	12920
924.525	12662
924.633	12696
924.741	13628
924.849	12486
924.956	12464
925.064	12528
925.172	12437
925.279	12407
925.387	12483
925.494	12479
925.602	12494
925.709	12448
925.816	12376
925.924	12372
926.031	12456
926.138	12407
926.245	12384
926.352	12277
926.459	12502
926.566	12456
926.673	12273
926.779	12205
926.886	12178
926.993	12053
927.099	12003
927.206	11999
927.312	11958
927.419	11992
927.525	12015
927.631	12026
927.737	12019
927.843	11874
927.95	11748
928.056	11771
928.162	11912
928.267	11882
928.373	12464
928.479	11950
928.585	11722
928.69	11794
928.796	11855
928.901	11752
929.007	11516
929.112	11760
929.218	11745
929.323	11570
929.428	11512
929.533	11737
929.638	11539
929.743	11474
929.848	11642
929.953	11608
930.058	11398
930.163	11326
930.267	11372
930.372	11459
930.477	11292
930.581	11471
930.685	11429
930.79	11250
930.894	11193
930.998	11128
931.103	11250
931.207	10892
931.311	10835
931.415	10828
931.519	10698
931.623	10558
