Data from test_V78500241_3181.txt Node
Date: Fri Mar 25 15:32:00 CST 2022
User: usil
Spectrometer: V785-0024
Trigger mode: 0
Integration Time (sec): 4.000000E-1
Scans to average: 1
Nonlinearity correction enabled: false
Boxcar width: 0
Storing dark spectrum: false
XAxis mode: Wavelengths
Number of Pixels in Spectrum: 1024
>>>>>Begin Spectral Data<<<<<
801.071	27096
801.214	26933
801.356	26804
801.499	26697
801.641	26674
801.783	26705
801.926	26526
802.068	26594
802.211	26564
802.353	26514
802.496	26446
802.638	26282
802.78	26298
802.923	26259
803.065	26084
803.208	26050
803.35	26134
803.492	26320
803.635	26408
803.777	26362
803.919	26492
804.061	26819
804.204	26632
804.346	26400
804.488	26423
804.63	26461
804.773	26366
804.915	26347
805.057	26492
805.199	26400
805.341	26484
805.483	26636
805.626	26705
805.768	26427
805.91	26511
806.052	26655
806.194	26419
806.336	26625
806.478	26518
806.62	26587
806.762	26648
806.904	26724
807.046	27051
807.188	26864
807.33	26929
807.472	27051
807.614	26891
807.756	26963
807.898	26712
808.04	26796
808.182	26720
808.324	26705
808.465	26826
808.607	26990
808.749	27001
808.891	27192
809.033	27203
809.174	27233
809.316	26940
809.458	27131
809.6	27112
809.741	27131
809.883	27302
810.025	27389
810.166	27378
810.308	27344
810.45	27192
810.591	27268
810.733	27150
810.875	27184
811.016	27116
811.158	26986
811.299	27123
811.441	27272
811.582	27176
811.724	27093
811.865	26918
812.007	27047
812.148	27058
812.29	27039
812.431	27173
812.573	27363
812.714	27435
812.855	27629
812.997	27675
813.138	27720
813.279	27747
813.421	27523
813.562	27424
813.703	27405
813.845	27161
813.986	26948
814.127	26906
814.268	26659
814.41	26735
814.551	26720
814.692	26906
814.833	26807
814.974	26785
815.115	26944
815.256	26712
815.397	26724
815.539	26785
815.68	26560
815.821	26522
815.962	26541
816.103	26438
816.244	26427
816.385	26370
816.526	26221
816.666	26084
816.807	25917
816.948	26077
817.089	26115
817.23	25928
817.371	26005
817.512	26001
817.653	25947
817.793	26077
817.934	25936
818.075	26020
818.216	26008
818.356	25974
818.497	25883
818.638	25765
818.778	25647
818.919	25791
819.06	25811
819.2	25951
819.341	25864
819.481	26046
819.622	26142
819.762	26328
819.903	26259
820.043	26126
820.184	26237
820.324	26088
820.465	26142
820.605	26206
820.746	26103
820.886	25928
821.026	26043
821.167	25928
821.307	26092
821.447	26024
821.588	25784
821.728	25845
821.868	25533
822.008	25594
822.149	25521
822.289	25426
822.429	25175
822.569	25152
822.709	25107
822.849	25076
822.99	24947
823.13	24871
823.27	24996
823.41	24764
823.55	24650
823.69	24779
823.83	24840
823.97	24711
824.11	24612
824.25	24445
824.389	24604
824.529	24540
824.669	24544
824.809	24616
824.949	24677
825.089	24738
825.228	24665
825.368	24399
825.508	24372
825.648	24464
825.787	24483
825.927	24498
826.067	24273
826.206	24376
826.346	24407
826.485	24612
826.625	24551
826.765	24521
826.904	24471
827.044	24190
827.183	24262
827.323	24018
827.462	24216
827.601	24136
827.741	24136
827.88	24110
828.02	24148
828.159	24106
828.298	24171
828.437	24258
828.577	24148
828.716	24216
828.855	24148
828.994	23840
829.134	23973
829.273	23973
829.412	23824
829.551	23798
829.69	23847
829.829	23927
829.968	24003
830.107	23912
830.246	23946
830.385	23965
830.524	23741
830.663	23642
830.802	23733
830.941	23539
831.08	23482
831.219	23592
831.357	23543
831.496	23859
831.635	23433
831.774	23444
831.913	23429
832.051	23368
832.19	23322
832.329	23455
832.467	23277
832.606	23178
832.744	23124
832.883	23159
833.022	23136
833.16	23189
833.299	23181
833.437	23083
833.576	23239
833.714	23296
833.852	23162
833.991	23303
834.129	23299
834.267	23444
834.406	23360
834.544	23322
834.682	23311
834.821	23197
834.959	23474
835.097	23200
835.235	23353
835.373	23258
835.511	23235
835.65	23113
835.788	23124
835.926	23006
836.064	22949
836.202	23029
836.34	23193
836.478	23121
836.615	23105
836.753	23067
836.891	23159
837.029	23048
837.167	22968
837.305	23052
837.443	23064
837.58	22858
837.718	23147
837.856	22919
837.993	22869
838.131	23014
838.269	22885
838.406	22869
838.544	22771
838.681	22706
838.819	22584
838.956	22413
839.094	22455
839.231	22481
839.369	22466
839.506	22733
839.643	22634
839.781	22402
839.918	22394
840.055	22360
840.193	22417
840.33	22382
840.467	22299
840.604	22443
840.742	22668
840.879	22306
841.016	22246
841.153	22261
841.29	22577
841.427	22398
841.564	22440
841.701	22322
841.838	22360
841.975	22223
842.112	22295
842.249	22268
842.385	22188
842.522	22455
842.659	22196
842.796	22109
842.933	22120
843.069	22002
843.206	22002
843.343	22150
843.479	22181
843.616	22158
843.752	21953
843.889	21869
844.025	22010
844.162	21838
844.298	22006
844.435	21797
844.571	21876
844.708	21956
844.844	22112
844.98	21968
845.117	21941
845.253	21774
845.389	21797
845.525	21766
845.661	21629
845.798	21705
845.934	21751
846.07	21629
846.206	21675
846.342	21759
846.478	21701
846.614	21317
846.75	21416
846.886	21386
847.022	21462
847.158	21420
847.294	21325
847.429	21405
847.565	21401
847.701	21633
847.837	21199
847.972	21070
848.108	21268
848.244	21233
848.379	21001
848.515	21005
848.65	20918
848.786	20914
848.921	21043
849.057	20967
849.192	21150
849.328	21047
849.463	20929
849.598	20902
849.734	20872
849.869	20826
850.004	20720
850.14	20769
850.275	20765
850.41	20693
850.545	20644
850.68	20724
850.815	20750
850.95	20769
851.085	20777
851.22	20735
851.355	20765
851.49	20640
851.625	20765
851.76	20632
851.895	20663
852.03	20583
852.165	20781
852.299	20667
852.434	20849
852.569	20773
852.703	20705
852.838	20834
852.973	20921
853.107	20804
853.242	20796
853.376	20640
853.511	20465
853.645	20442
853.78	20579
853.914	20705
854.048	20514
854.183	20545
854.317	20568
854.451	20785
854.585	20530
854.72	20636
854.854	20746
854.988	20473
855.122	20552
855.256	20533
855.39	20545
855.524	20549
855.658	20590
855.792	20518
855.926	20598
856.06	20533
856.194	20731
856.327	20454
856.461	20514
856.595	20438
856.729	20514
856.862	20659
856.996	20583
857.13	20674
857.263	20739
857.397	20571
857.53	20511
857.664	20549
857.797	20617
857.931	20602
858.064	20495
858.197	20640
858.331	20526
858.464	20598
858.597	20488
858.731	20514
858.864	20434
858.997	20507
859.13	20484
859.263	20541
859.396	20674
859.529	20541
859.662	20476
859.795	20476
859.928	20674
860.061	20842
860.194	20689
860.327	20583
860.46	20663
860.592	20632
860.725	20648
860.858	20636
860.99	20564
861.123	20541
861.256	20355
861.388	20560
861.521	21294
861.653	20385
861.786	20423
861.918	20317
862.05	20495
862.183	20526
862.315	20514
862.447	20590
862.58	20507
862.712	20286
862.844	20362
862.976	20317
863.108	20275
863.24	20785
863.372	20271
863.504	20233
863.636	20343
863.768	20347
863.9	20248
864.032	20282
864.164	20313
864.296	20237
864.428	20313
864.559	20499
864.691	20339
864.823	20271
864.954	20195
865.086	20237
865.217	20259
865.349	20096
865.48	20103
865.612	20168
865.743	20229
865.875	20149
866.006	20122
866.137	20210
866.269	20233
866.4	20233
866.531	20161
866.662	20138
866.793	20122
866.924	20172
867.055	20221
867.186	20103
867.317	20259
867.448	20111
867.579	20134
867.71	20031
867.841	20001
867.972	20149
868.103	20164
868.233	20111
868.364	20172
868.495	20164
868.625	20374
868.756	20484
868.886	20271
869.017	20347
869.147	20530
869.278	20431
869.408	20328
869.539	20427
869.669	20476
869.799	20381
869.929	20499
870.06	20526
870.19	20682
870.32	20583
870.45	20708
870.58	20765
870.71	20910
870.84	20796
870.97	20739
871.1	20788
871.23	21070
871.36	20868
871.489	20830
871.619	21024
871.749	20975
871.879	20918
872.008	21062
872.138	21039
872.267	20929
872.397	20883
872.526	20880
872.656	20712
872.785	20762
872.915	21055
873.044	21055
873.173	20918
873.303	21108
873.432	20960
873.561	21039
873.69	21085
873.819	20998
873.948	20914
874.077	20963
874.206	20864
874.335	20963
874.464	21020
874.593	21241
874.722	21218
874.851	21279
874.979	21188
875.108	21245
875.237	21291
875.365	21055
875.494	21146
875.623	21428
875.751	21287
875.88	21260
876.008	21317
876.136	21431
876.265	21580
876.393	21899
876.521	21625
876.65	21888
876.778	21561
876.906	21618
877.034	21629
877.162	21583
877.29	21526
877.418	21580
877.546	21656
877.674	21595
877.802	21542
877.93	21492
878.058	21606
878.185	21507
878.313	21595
878.441	21549
878.568	21511
878.696	21530
878.824	21492
878.951	21713
879.079	21842
879.206	21812
879.333	21739
879.461	21610
879.588	21759
879.715	21781
879.842	21888
879.97	21538
880.097	21583
880.224	21256
880.351	21447
880.478	21359
880.605	21370
880.732	21367
880.859	21724
880.986	21473
881.112	21447
881.239	21351
881.366	21077
881.493	21039
881.619	21047
881.746	21058
881.872	21013
881.999	20921
882.125	20899
882.252	20963
882.378	20933
882.505	21100
882.631	20823
882.757	20758
882.883	20743
883.01	20727
883.136	20765
883.262	20606
883.388	20556
883.514	20712
883.64	20792
883.766	20571
883.892	20495
884.018	20541
884.143	20632
884.269	20785
884.395	20568
884.52	20248
884.646	20400
884.772	20305
884.897	20290
885.023	20404
885.148	20381
885.274	20476
885.399	20438
885.524	20431
885.65	20336
885.775	20457
885.9	20427
886.025	20450
886.15	20404
886.275	20343
886.4	20138
886.525	20366
886.65	20244
886.775	20183
886.9	20545
887.025	20514
887.149	20324
887.274	20210
887.399	20092
887.523	20126
887.648	20161
887.773	20001
887.897	20191
888.021	20218
888.146	20103
888.27	20214
888.395	20313
888.519	20233
888.643	20157
888.767	20176
888.891	20081
889.015	19982
889.139	19944
889.263	19906
889.387	20065
889.511	20073
889.635	20111
889.759	19902
889.883	19841
890.006	19986
890.13	19997
890.254	19875
890.377	19845
890.501	19666
890.624	19624
890.748	19681
890.871	19594
890.995	19540
891.118	19445
891.241	19411
891.364	19616
891.488	19594
891.611	19578
891.734	19502
891.857	19571
891.98	19521
892.103	19582
892.226	19472
892.349	19540
892.471	19343
892.594	19457
892.717	19438
892.839	19449
892.962	19422
893.085	19445
893.207	19449
893.33	19251
893.452	19263
893.575	19468
893.697	19491
893.819	19571
893.941	19643
894.064	19548
894.186	19369
894.308	19350
894.43	19483
894.552	19639
894.674	19457
894.796	19392
894.918	19445
895.04	19434
895.161	19411
895.283	19388
895.405	19320
895.526	19457
895.648	19518
895.769	19472
895.891	19586
896.012	19521
896.134	19476
896.255	19514
896.376	19320
896.498	19449
896.619	19643
896.74	19544
896.861	19472
896.982	19830
897.103	19890
897.224	19753
897.345	19616
897.466	19609
897.587	19712
897.708	19811
897.828	19674
897.949	19575
898.07	19502
898.19	19563
898.311	19719
898.431	19643
898.552	19681
898.672	19757
898.792	19734
898.913	19723
899.033	19559
899.153	19457
899.273	19358
899.393	19453
899.513	19586
899.633	19441
899.753	19373
899.873	19514
899.993	19403
900.113	19407
900.232	19422
900.352	19346
900.472	19354
900.591	19065
900.711	19297
900.83	19175
900.95	19228
901.069	19339
901.189	19057
901.308	18966
901.427	18806
901.546	18856
901.665	18886
901.784	18939
901.904	18669
902.023	18623
902.141	18270
902.26	18353
902.379	18418
902.498	18399
902.617	18369
902.735	18296
902.854	18338
902.973	18292
903.091	18060
903.21	18034
903.328	17961
903.446	17935
903.565	17866
903.683	17893
903.801	17741
903.919	17756
904.038	17790
904.156	17676
904.274	17657
904.392	17592
904.51	17532
904.627	17653
904.745	17680
904.863	17539
904.981	17307
905.098	17254
905.216	17288
905.334	17474
905.451	17345
905.569	17292
905.686	17254
905.803	17193
905.921	17025
906.038	17109
906.155	17098
906.272	17010
906.389	17003
906.506	16828
906.623	16854
906.74	16839
906.857	16668
906.974	16748
907.091	16866
907.208	16885
907.324	16835
907.441	16721
907.557	16683
907.674	16451
907.79	16542
907.907	16561
908.023	16573
908.139	16561
908.256	16478
908.372	16325
908.488	16337
908.604	16204
908.72	16101
908.836	16223
908.952	16169
909.068	16299
909.184	16253
909.3	16265
909.415	16287
909.531	16268
909.647	16002
909.762	15941
909.878	15956
909.993	16044
910.108	15895
910.224	15895
910.339	15953
910.454	15911
910.57	15819
910.685	15762
910.8	15960
910.915	16029
911.03	15831
911.145	15698
911.259	15713
911.374	15564
911.489	15534
911.604	15454
911.718	15313
911.833	15389
911.947	15302
912.062	15188
912.176	15321
912.291	15424
912.405	15298
912.519	15488
912.633	15530
912.748	15454
912.862	15279
912.976	15195
913.09	15081
913.204	15131
913.318	15180
913.431	15222
913.545	15294
913.659	15222
913.772	15230
913.886	15017
914	14910
914.113	14979
914.226	15032
914.34	15009
914.453	14872
914.566	15020
914.68	14807
914.793	14857
914.906	14617
915.019	14560
915.132	14438
915.245	14541
915.358	14644
915.47	14640
915.583	14606
915.696	14735
915.809	14708
915.921	14762
916.034	14503
916.146	14431
916.259	14495
916.371	14465
916.483	14514
916.595	14454
916.708	14446
916.82	14419
916.932	14408
917.044	14412
917.156	14332
917.268	14214
917.38	14305
917.491	14259
917.603	14267
917.715	14294
917.826	14374
917.938	14210
918.049	14050
918.161	14183
918.272	14195
918.384	14339
918.495	14202
918.606	14069
918.717	13913
918.828	14008
918.939	13974
919.05	13932
919.161	14005
919.272	13753
919.383	13925
919.494	14062
919.604	14134
919.715	13963
919.826	13883
919.936	13997
920.047	14123
920.157	13921
920.267	14111
920.378	13970
920.488	13993
920.598	14221
920.708	14313
920.818	14168
920.928	14027
921.038	14374
921.148	14240
921.258	13951
921.368	13852
921.477	13761
921.587	13757
921.697	13689
921.806	13772
921.916	13685
922.025	13441
922.134	13350
922.244	13346
922.353	13502
922.462	13247
922.571	13209
922.68	13122
922.789	13099
922.898	13042
923.007	13027
923.116	13038
923.224	13057
923.333	13095
923.442	12863
923.55	12924
923.659	12859
923.767	12985
923.876	12791
923.984	12783
924.092	12791
924.201	12848
924.309	12798
924.417	12840
924.525	12684
924.633	12753
924.741	13712
924.849	12528
924.956	12654
925.064	12547
925.172	12426
925.279	12380
925.387	12490
925.494	12464
925.602	12585
925.709	12441
925.816	12357
925.924	12467
926.031	12441
926.138	12475
926.245	12467
926.352	12239
926.459	12475
926.566	12418
926.673	12365
926.779	12201
926.886	12213
926.993	12201
927.099	12079
927.206	11988
927.312	12015
927.419	12011
927.525	12110
927.631	12095
927.737	11939
927.843	11885
927.95	11760
928.056	11916
928.162	11931
928.267	11958
928.373	12528
928.479	11942
928.585	11786
928.69	11767
928.796	11828
928.901	11798
929.007	11668
929.112	11672
929.218	11767
929.323	11627
929.428	11638
929.533	11752
929.638	11520
929.743	11573
929.848	11585
929.953	11558
930.058	11547
930.163	11299
930.267	11349
930.372	11455
930.477	11318
930.581	11505
930.685	11410
930.79	11216
930.894	11151
930.998	11216
931.103	11292
931.207	10995
931.311	10915
931.415	10809
931.519	10729
931.623	10660
