Data from test_V78500241_2992.txt Node
Date: Fri Mar 25 15:30:41 CST 2022
User: usil
Spectrometer: V785-0024
Trigger mode: 0
Integration Time (sec): 4.000000E-1
Scans to average: 1
Nonlinearity correction enabled: false
Boxcar width: 0
Storing dark spectrum: false
XAxis mode: Wavelengths
Number of Pixels in Spectrum: 1024
>>>>>Begin Spectral Data<<<<<
801.071	27275
801.214	27313
801.356	27017
801.499	26880
801.641	26891
801.783	26815
801.926	26902
802.068	26834
802.211	26819
802.353	26594
802.496	26564
802.638	26575
802.78	26473
802.923	26252
803.065	26431
803.208	26358
803.35	26442
803.492	26590
803.635	26587
803.777	26351
803.919	26659
804.061	26891
804.204	26758
804.346	26571
804.488	26541
804.63	26629
804.773	26377
804.915	26640
805.057	26682
805.199	26678
805.341	26731
805.483	26773
805.626	26701
805.768	26552
805.91	26815
806.052	26716
806.194	26712
806.336	26792
806.478	26708
806.62	26621
806.762	26819
806.904	26994
807.046	27275
807.188	27180
807.33	27207
807.472	27203
807.614	27055
807.756	27135
807.898	27104
808.04	26998
808.182	26925
808.324	26899
808.465	26876
808.607	27055
808.749	27283
808.891	27435
809.033	27496
809.174	27359
809.316	27370
809.458	27268
809.6	27397
809.741	27435
809.883	27564
810.025	27606
810.166	27466
810.308	27587
810.45	27545
810.591	27466
810.733	27332
810.875	27306
811.016	27245
811.158	27260
811.299	27408
811.441	27549
811.582	27534
811.724	27515
811.865	27302
812.007	27283
812.148	27340
812.29	27344
812.431	27507
812.573	27690
812.714	27625
812.855	27842
812.997	28002
813.138	28017
813.279	27968
813.421	27755
813.562	27831
813.703	27663
813.845	27591
813.986	27157
814.127	27108
814.268	27024
814.41	26861
814.551	26940
814.692	26937
814.833	26967
814.974	26876
815.115	27001
815.256	26910
815.397	26800
815.539	26765
815.68	26701
815.821	26663
815.962	26739
816.103	26678
816.244	26587
816.385	26632
816.526	26381
816.666	26339
816.807	26290
816.948	26320
817.089	26431
817.23	26301
817.371	26305
817.512	26153
817.653	26206
817.793	26161
817.934	26195
818.075	26183
818.216	26214
818.356	26305
818.497	26062
818.638	25970
818.778	25909
818.919	25982
819.06	26008
819.2	26187
819.341	26275
819.481	26103
819.622	26336
819.762	26492
819.903	26374
820.043	26419
820.184	26438
820.324	26404
820.465	26290
820.605	26275
820.746	26320
820.886	26111
821.026	26286
821.167	26324
821.307	26427
821.447	26248
821.588	26100
821.728	26024
821.868	25856
822.008	25704
822.149	25727
822.289	25753
822.429	25468
822.569	25563
822.709	25327
822.849	25217
822.99	25236
823.13	25148
823.27	25057
823.41	25099
823.55	24829
823.69	25012
823.83	24939
823.97	24886
824.11	24821
824.25	24814
824.389	24764
824.529	24802
824.669	24844
824.809	25008
824.949	24897
825.089	24962
825.228	24878
825.368	24608
825.508	24574
825.648	24517
825.787	24696
825.927	24677
826.067	24715
826.206	24658
826.346	24703
826.485	24817
826.625	24878
826.765	24692
826.904	24825
827.044	24426
827.183	24384
827.323	24338
827.462	24395
827.601	24369
827.741	24395
827.88	24445
828.02	24376
828.159	24338
828.298	24498
828.437	24471
828.577	24372
828.716	24517
828.855	24273
828.994	24140
829.134	24064
829.273	24106
829.412	24072
829.551	23973
829.69	24076
829.829	24087
829.968	24216
830.107	24300
830.246	24125
830.385	24091
830.524	24030
830.663	23969
830.802	23824
830.941	23687
831.08	23687
831.219	23813
831.357	23722
831.496	23954
831.635	23790
831.774	23619
831.913	23627
832.051	23535
832.19	23528
832.329	23376
832.467	23379
832.606	23258
832.744	23284
832.883	23455
833.022	23280
833.16	23368
833.299	23410
833.437	23421
833.576	23436
833.714	23391
833.852	23356
833.991	23471
834.129	23551
834.267	23486
834.406	23383
834.544	23463
834.682	23402
834.821	23379
834.959	23554
835.097	23292
835.235	23520
835.373	23421
835.511	23376
835.65	23258
835.788	23337
835.926	23117
836.064	23010
836.202	23109
836.34	23280
836.478	23398
836.615	23166
836.753	23242
836.891	23303
837.029	23322
837.167	23269
837.305	23128
837.443	23109
837.58	23079
837.718	23277
837.856	23216
837.993	23079
838.131	23067
838.269	22995
838.406	22995
838.544	22831
838.681	22763
838.819	22790
838.956	22580
839.094	22466
839.231	22668
839.369	22793
839.506	23029
839.643	22713
839.781	22599
839.918	22481
840.055	22603
840.193	22550
840.33	22363
840.467	22421
840.604	22573
840.742	22824
840.879	22413
841.016	22424
841.153	22459
841.29	22611
841.427	22519
841.564	22485
841.701	22470
841.838	22561
841.975	22360
842.112	22394
842.249	22443
842.385	22402
842.522	22497
842.659	22352
842.796	22261
842.933	22268
843.069	22253
843.206	22059
843.343	22405
843.479	22333
843.616	22322
843.752	22055
843.889	22143
844.025	22147
844.162	22025
844.298	22196
844.435	21956
844.571	21964
844.708	22105
844.844	22185
844.98	22150
845.117	22242
845.253	21991
845.389	21941
845.525	21873
845.661	21922
845.798	21713
845.934	21873
846.07	21838
846.206	21865
846.342	21899
846.478	21736
846.614	21580
846.75	21507
846.886	21507
847.022	21553
847.158	21595
847.294	21542
847.429	21477
847.565	21580
847.701	21831
847.837	21279
847.972	21207
848.108	21344
848.244	21279
848.379	21180
848.515	21142
848.65	21017
848.786	21142
848.921	21157
849.057	21188
849.192	21256
849.328	21211
849.463	21142
849.598	21112
849.734	21047
849.869	20979
850.004	20861
850.14	20906
850.275	20963
850.41	20872
850.545	20807
850.68	20921
850.815	20861
850.95	20891
851.085	20906
851.22	20986
851.355	20853
851.49	20902
851.625	20845
851.76	20785
851.895	20872
852.03	20750
852.165	20754
852.299	20899
852.434	20990
852.569	20933
852.703	20883
852.838	20921
852.973	21043
853.107	20944
853.242	20864
853.376	20819
853.511	20659
853.645	20735
853.78	20686
853.914	20678
854.048	20606
854.183	20735
854.317	20636
854.451	20899
854.585	20815
854.72	20670
854.854	20826
854.988	20674
855.122	20716
855.256	20560
855.39	20769
855.524	20739
855.658	20861
855.792	20552
855.926	20750
856.06	20746
856.194	20750
856.327	20701
856.461	20583
856.595	20568
856.729	20716
856.862	20834
856.996	20686
857.13	20785
857.263	20773
857.397	20823
857.53	20720
857.664	20777
857.797	20853
857.931	20762
858.064	20693
858.197	20804
858.331	20762
858.464	20682
858.597	20682
858.731	20545
858.864	20606
858.997	20488
859.13	20629
859.263	20621
859.396	20902
859.529	20762
859.662	20727
859.795	20583
859.928	20678
860.061	20762
860.194	20918
860.327	20743
860.46	20674
860.592	20781
860.725	20868
860.858	20834
860.99	20651
861.123	20514
861.256	20632
861.388	20644
861.521	21233
861.653	20533
861.786	20499
861.918	20499
862.05	20473
862.183	20625
862.315	20625
862.447	20621
862.58	20621
862.712	20465
862.844	20294
862.976	20545
863.108	20587
863.24	20845
863.372	20412
863.504	20457
863.636	20400
863.768	20434
863.9	20507
864.032	20259
864.164	20408
864.296	20434
864.428	20480
864.559	20457
864.691	20438
864.823	20408
864.954	20320
865.086	20309
865.217	20298
865.349	20290
865.48	20183
865.612	20370
865.743	20507
865.875	20282
866.006	20233
866.137	20423
866.269	20309
866.4	20202
866.531	20271
866.662	20317
866.793	20202
866.924	20282
867.055	20328
867.186	20282
867.317	20332
867.448	20233
867.579	20366
867.71	20119
867.841	20199
867.972	20278
868.103	20355
868.233	20256
868.364	20298
868.495	20389
868.625	20503
868.756	20571
868.886	20358
869.017	20484
869.147	20522
869.278	20655
869.408	20579
869.539	20457
869.669	20621
869.799	20446
869.929	20568
870.06	20587
870.19	20918
870.32	20807
870.45	20769
870.58	20842
870.71	21013
870.84	20944
870.97	20902
871.1	20872
871.23	21100
871.36	21123
871.489	20899
871.619	21142
871.749	21001
871.879	21176
872.008	21268
872.138	21077
872.267	21180
872.397	20937
872.526	20967
872.656	20830
872.785	20883
872.915	21039
873.044	21192
873.173	20998
873.303	21104
873.432	21237
873.561	21100
873.69	21028
873.819	21093
873.948	21116
874.077	21001
874.206	21112
874.335	21070
874.464	21157
874.593	21313
874.722	21321
874.851	21325
874.979	21359
875.108	21393
875.237	21321
875.365	21329
875.494	21492
875.623	21507
875.751	21443
875.88	21389
876.008	21466
876.136	21564
876.265	21835
876.393	21937
876.521	21873
876.65	21915
876.778	21766
876.906	21606
877.034	21743
877.162	21755
877.29	21656
877.418	21842
877.546	21804
877.674	21808
877.802	21667
877.93	21675
878.058	21739
878.185	21496
878.313	21641
878.441	21686
878.568	21591
878.696	21648
878.824	21625
878.951	21827
879.079	21892
879.206	22097
879.333	21884
879.461	21614
879.588	21823
879.715	21903
879.842	21968
879.97	21766
880.097	21564
880.224	21450
880.351	21698
880.478	21538
880.605	21469
880.732	21576
880.859	21705
880.986	21504
881.112	21572
881.239	21428
881.366	21321
881.493	21165
881.619	21112
881.746	21123
881.872	21176
881.999	20998
882.125	21062
882.252	21135
882.378	21119
882.505	21154
882.631	21096
882.757	20853
882.883	20781
883.01	20952
883.136	20807
883.262	20754
883.388	20648
883.514	20956
883.64	20807
883.766	20708
883.892	20674
884.018	20686
884.143	20788
884.269	20788
884.395	20587
884.52	20473
884.646	20583
884.772	20454
884.897	20396
885.023	20556
885.148	20541
885.274	20552
885.399	20541
885.524	20434
885.65	20492
885.775	20575
885.9	20434
886.025	20587
886.15	20488
886.275	20385
886.4	20298
886.525	20568
886.65	20370
886.775	20366
886.9	20735
887.025	20640
887.149	20396
887.274	20362
887.399	20275
887.523	20149
887.648	20195
887.773	20096
887.897	20320
888.021	20252
888.146	20218
888.27	20263
888.395	20317
888.519	20305
888.643	20275
888.767	20176
888.891	20206
889.015	20092
889.139	20100
889.263	20062
889.387	20107
889.511	20187
889.635	20187
889.759	20046
889.883	20176
890.006	20031
890.13	20172
890.254	20103
890.377	19997
890.501	19765
890.624	19795
890.748	19913
890.871	19776
890.995	19609
891.118	19521
891.241	19601
891.364	19601
891.488	19784
891.611	19601
891.734	19704
891.857	19674
891.98	19655
892.103	19662
892.226	19685
892.349	19769
892.471	19377
892.594	19559
892.717	19647
892.839	19556
892.962	19502
893.085	19563
893.207	19464
893.33	19426
893.452	19362
893.575	19575
893.697	19559
893.819	19677
893.941	19731
894.064	19681
894.186	19525
894.308	19518
894.43	19594
894.552	19772
894.674	19624
894.796	19430
894.918	19480
895.04	19620
895.161	19632
895.283	19632
895.405	19533
895.526	19601
895.648	19514
895.769	19540
895.891	19575
896.012	19632
896.134	19480
896.255	19556
896.376	19525
896.498	19540
896.619	19734
896.74	19556
896.861	19510
896.982	19871
897.103	19993
897.224	19830
897.345	19776
897.466	19727
897.587	19662
897.708	20012
897.828	19788
897.949	19712
898.07	19712
898.19	19712
898.311	19845
898.431	19753
898.552	19635
898.672	19837
898.792	19833
898.913	19818
899.033	19685
899.153	19537
899.273	19422
899.393	19548
899.513	19681
899.633	19605
899.753	19643
899.873	19502
899.993	19533
900.113	19502
900.232	19556
900.352	19502
900.472	19346
900.591	19331
900.711	19297
900.83	19156
900.95	19430
901.069	19441
901.189	19308
901.308	19080
901.427	18951
901.546	19019
901.665	18783
901.784	19072
901.904	18802
902.023	18749
902.141	18559
902.26	18502
902.379	18532
902.498	18509
902.617	18437
902.735	18547
902.854	18445
902.973	18388
903.091	18220
903.21	18079
903.328	18224
903.446	17996
903.565	17977
903.683	17965
903.801	17691
903.919	17870
904.038	17882
904.156	17828
904.274	17779
904.392	17703
904.51	17649
904.627	17634
904.745	17680
904.863	17775
904.981	17444
905.098	17364
905.216	17414
905.334	17455
905.451	17417
905.569	17376
905.686	17356
905.803	17387
905.921	17159
906.038	17258
906.155	17216
906.272	17014
906.389	17250
906.506	16850
906.623	16858
906.74	16946
906.857	16850
906.974	16919
907.091	17064
907.208	17113
907.324	16968
907.441	16782
907.557	16725
907.674	16584
907.79	16535
907.907	16580
908.023	16649
908.139	16668
908.256	16672
908.372	16493
908.488	16497
908.604	16295
908.72	16238
908.836	16276
908.952	16333
909.068	16348
909.184	16516
909.3	16352
909.415	16382
909.531	16257
909.647	16181
909.762	16147
909.878	16135
909.993	16048
910.108	16105
910.224	16006
910.339	15949
910.454	15892
910.57	15838
910.685	15869
910.8	16055
910.915	15994
911.03	15880
911.145	15720
911.259	15606
911.374	15671
911.489	15587
911.604	15549
911.718	15424
911.833	15507
911.947	15393
912.062	15294
912.176	15485
912.291	15519
912.405	15431
912.519	15584
912.633	15568
912.748	15439
912.862	15325
912.976	15291
913.09	15203
913.204	15135
913.318	15252
913.431	15401
913.545	15298
913.659	15351
913.772	15161
913.886	15135
914	15043
914.113	15150
914.226	15173
914.34	15085
914.453	15039
914.566	15062
914.68	15055
914.793	14956
914.906	14773
915.019	14724
915.132	14644
915.245	14629
915.358	14689
915.47	14731
915.583	14724
915.696	14655
915.809	14739
915.921	14716
916.034	14640
916.146	14552
916.259	14606
916.371	14667
916.483	14541
916.595	14461
916.708	14545
916.82	14488
916.932	14533
917.044	14442
917.156	14389
917.268	14404
917.38	14412
917.491	14336
917.603	14389
917.715	14355
917.826	14473
917.938	14309
918.049	14092
918.161	14332
918.272	14511
918.384	14374
918.495	14237
918.606	14073
918.717	14081
918.828	14142
918.939	14077
919.05	14024
919.161	14161
919.272	13928
919.383	14043
919.494	14210
919.604	14210
919.715	14058
919.826	14008
919.936	14126
920.047	14142
920.157	14088
920.267	14408
920.378	14176
920.488	14043
920.598	14252
920.708	14324
920.818	14252
920.928	14164
921.038	14324
921.148	14355
921.258	14035
921.368	13959
921.477	13864
921.587	13807
921.697	13681
921.806	13761
921.916	13776
922.025	13525
922.134	13506
922.244	13403
922.353	13582
922.462	13369
922.571	13373
922.68	13114
922.789	13152
922.898	13095
923.007	13088
923.116	13160
923.224	13129
923.333	13129
923.442	12928
923.55	12882
923.659	12901
923.767	13008
923.876	12977
923.984	12970
924.092	12890
924.201	12935
924.309	12905
924.417	12734
924.525	12844
924.633	12901
924.741	13582
924.849	12574
924.956	12776
925.064	12601
925.172	12475
925.279	12513
925.387	12631
925.494	12578
925.602	12658
925.709	12608
925.816	12566
925.924	12506
926.031	12616
926.138	12452
926.245	12506
926.352	12502
926.459	12513
926.566	12597
926.673	12441
926.779	12311
926.886	12361
926.993	12247
927.099	12186
927.206	12129
927.312	12057
927.419	12167
927.525	12152
927.631	12163
927.737	11988
927.843	11973
927.95	11897
928.056	11980
928.162	12022
928.267	11992
928.373	12585
928.479	12102
928.585	11798
928.69	11946
928.796	11939
928.901	11805
929.007	11718
929.112	11809
929.218	11824
929.323	11714
929.428	11760
929.533	11821
929.638	11615
929.743	11680
929.848	11710
929.953	11642
930.058	11528
930.163	11360
930.267	11455
930.372	11501
930.477	11349
930.581	11573
930.685	11474
930.79	11315
930.894	11353
930.998	11269
931.103	11345
931.207	10965
931.311	10953
931.415	10885
931.519	10725
931.623	10702
