Data from test_V78500241_1444.txt Node
Date: Fri Mar 25 15:19:54 CST 2022
User: usil
Spectrometer: V785-0024
Trigger mode: 0
Integration Time (sec): 4.000000E-1
Scans to average: 1
Nonlinearity correction enabled: false
Boxcar width: 0
Storing dark spectrum: false
XAxis mode: Wavelengths
Number of Pixels in Spectrum: 1024
>>>>>Begin Spectral Data<<<<<
801.071	28230
801.214	28185
801.356	27930
801.499	27857
801.641	27914
801.783	27633
801.926	27800
802.068	27701
802.211	27682
802.353	27644
802.496	27606
802.638	27447
802.78	27405
802.923	27382
803.065	27317
803.208	27389
803.35	27237
803.492	27538
803.635	27686
803.777	27549
803.919	27648
804.061	28101
804.204	27842
804.346	27568
804.488	27667
804.63	27576
804.773	27568
804.915	27720
805.057	27774
805.199	27526
805.341	27644
805.483	27819
805.626	27770
805.768	27671
805.91	27625
806.052	27857
806.194	27705
806.336	27934
806.478	27713
806.62	27857
806.762	27804
806.904	27994
807.046	28181
807.188	28135
807.33	28215
807.472	28211
807.614	28295
807.756	28143
807.898	28044
808.04	28002
808.182	28097
808.324	28109
808.465	28109
808.607	28348
808.749	28459
808.891	28504
809.033	28538
809.174	28554
809.316	28394
809.458	28554
809.6	28394
809.741	28573
809.883	28550
810.025	28717
810.166	28790
810.308	28816
810.45	28626
810.591	28637
810.733	28485
810.875	28462
811.016	28234
811.158	28306
811.299	28599
811.441	28557
811.582	28618
811.724	28424
811.865	28478
812.007	28451
812.148	28516
812.29	28535
812.431	28694
812.573	28710
812.714	28847
812.855	28919
812.997	29014
813.138	29258
813.279	29140
813.421	28972
813.562	29018
813.703	28706
813.845	28843
813.986	28478
814.127	28379
814.268	28150
814.41	28204
814.551	28112
814.692	28139
814.833	28090
814.974	28131
815.115	28169
815.256	28097
815.397	28010
815.539	28021
815.68	27831
815.821	27850
815.962	27888
816.103	27911
816.244	27781
816.385	27682
816.526	27660
816.666	27580
816.807	27447
816.948	27511
817.089	27530
817.23	27504
817.371	27405
817.512	27454
817.653	27477
817.793	27500
817.934	27336
818.075	27469
818.216	27500
818.356	27401
818.497	27408
818.638	27230
818.778	27317
818.919	27260
819.06	27275
819.2	27340
819.341	27610
819.481	27545
819.622	27622
819.762	27759
819.903	27660
820.043	27599
820.184	27572
820.324	27580
820.465	27599
820.605	27728
820.746	27606
820.886	27492
821.026	27420
821.167	27466
821.307	27523
821.447	27576
821.588	27351
821.728	27351
821.868	27199
822.008	26906
822.149	26918
822.289	26861
822.429	26632
822.569	26564
822.709	26564
822.849	26518
822.99	26533
823.13	26541
823.27	26358
823.41	26138
823.55	26126
823.69	26187
823.83	26259
823.97	26176
824.11	25966
824.25	26020
824.389	26225
824.529	26256
824.669	26027
824.809	26195
824.949	26103
825.089	26145
825.228	26115
825.368	25898
825.508	26084
825.648	26039
825.787	25921
825.927	26084
826.067	25833
826.206	25947
826.346	26020
826.485	26027
826.625	25947
826.765	25993
826.904	26005
827.044	25769
827.183	25780
827.323	25601
827.462	25761
827.601	25666
827.741	25700
827.88	25605
828.02	25499
828.159	25712
828.298	25704
828.437	25814
828.577	25514
828.716	25742
828.855	25578
828.994	25343
829.134	25320
829.273	25316
829.412	25289
829.551	25221
829.69	25396
829.829	25449
829.968	25460
830.107	25339
830.246	25396
830.385	25194
830.524	25129
830.663	25164
830.802	25050
830.941	24806
831.08	25008
831.219	25038
831.357	25107
831.496	25190
831.635	24886
831.774	24878
831.913	24863
832.051	24821
832.19	24730
832.329	24783
832.467	24677
832.606	24494
832.744	24597
832.883	24536
833.022	24559
833.16	24559
833.299	24665
833.437	24654
833.576	24650
833.714	24677
833.852	24730
833.991	24707
834.129	24802
834.267	24601
834.406	24673
834.544	24631
834.682	24585
834.821	24738
834.959	24871
835.097	24738
835.235	24825
835.373	24719
835.511	24692
835.65	24498
835.788	24547
835.926	24429
836.064	24319
836.202	24224
836.34	24502
836.478	24646
836.615	24448
836.753	24509
836.891	24597
837.029	24540
837.167	24376
837.305	24407
837.443	24426
837.58	24311
837.718	24426
837.856	24262
837.993	24281
838.131	24239
838.269	24178
838.406	24277
838.544	24159
838.681	24060
838.819	23977
838.956	23828
839.094	23817
839.231	23821
839.369	24011
839.506	24079
839.643	24117
839.781	23897
839.918	23805
840.055	23843
840.193	23703
840.33	23771
840.467	23684
840.604	23764
840.742	23942
840.879	23642
841.016	23668
841.153	23634
841.29	23737
841.427	23687
841.564	23729
841.701	23703
841.838	23630
841.975	23581
842.112	23668
842.249	23547
842.385	23493
842.522	23573
842.659	23497
842.796	23463
842.933	23459
843.069	23372
843.206	23398
843.343	23471
843.479	23452
843.616	23459
843.752	23227
843.889	23128
844.025	23372
844.162	23261
844.298	23235
844.435	23204
844.571	23269
844.708	23387
844.844	23345
844.98	23436
845.117	23360
845.253	23140
845.389	23067
845.525	23071
845.661	23003
845.798	22965
845.934	23071
846.07	22961
846.206	23060
846.342	22961
846.478	22957
846.614	22843
846.75	22687
846.886	22687
847.022	22755
847.158	22672
847.294	22664
847.429	22641
847.565	22649
847.701	22828
847.837	22455
847.972	22428
848.108	22531
848.244	22512
848.379	22348
848.515	22382
848.65	22314
848.786	22291
848.921	22306
849.057	22310
849.192	22405
849.328	22306
849.463	22337
849.598	22204
849.734	22139
849.869	22143
850.004	22074
850.14	22048
850.275	22010
850.41	21907
850.545	21945
850.68	21991
850.815	21991
850.95	22021
851.085	22257
851.22	22185
851.355	22090
851.49	21972
851.625	21941
851.76	21998
851.895	21972
852.03	21907
852.165	22040
852.299	22055
852.434	22006
852.569	22090
852.703	21956
852.838	22097
852.973	22143
853.107	22249
853.242	21907
853.376	21880
853.511	21641
853.645	21812
853.78	21983
853.914	21857
854.048	21728
854.183	21732
854.317	21907
854.451	22032
854.585	22013
854.72	21880
854.854	21979
854.988	21736
855.122	21869
855.256	21747
855.39	21884
855.524	21869
855.658	21968
855.792	21797
855.926	21755
856.06	21975
856.194	22002
856.327	21823
856.461	21762
856.595	21911
856.729	21873
856.862	21842
856.996	21880
857.13	22006
857.263	21918
857.397	21937
857.53	21854
857.664	21838
857.797	21880
857.931	21888
858.064	21964
858.197	22044
858.331	21873
858.464	21793
858.597	21717
858.731	21789
858.864	21793
858.997	21842
859.13	21831
859.263	21831
859.396	21857
859.529	21831
859.662	21694
859.795	21854
859.928	21937
860.061	21861
860.194	22124
860.327	21953
860.46	21869
860.592	21895
860.725	22055
860.858	21956
860.99	21934
861.123	21816
861.256	21762
861.388	21907
861.521	22325
861.653	21804
861.786	21747
861.918	21637
862.05	21671
862.183	21671
862.315	21800
862.447	21766
862.58	21751
862.712	21500
862.844	21511
862.976	21534
863.108	21739
863.24	22017
863.372	21603
863.504	21545
863.636	21496
863.768	21591
863.9	21515
864.032	21545
864.164	21591
864.296	21561
864.428	21648
864.559	21705
864.691	21610
864.823	21580
864.954	21428
865.086	21507
865.217	21515
865.349	21382
865.48	21466
865.612	21393
865.743	21583
865.875	21462
866.006	21473
866.137	21428
866.269	21374
866.4	21431
866.531	21374
866.662	21374
866.793	21355
866.924	21302
867.055	21287
867.186	21370
867.317	21466
867.448	21245
867.579	21348
867.71	21272
867.841	21321
867.972	21458
868.103	21405
868.233	21363
868.364	21488
868.495	21488
868.625	21557
868.756	21797
868.886	21439
869.017	21625
869.147	21739
869.278	21679
869.408	21568
869.539	21564
869.669	21713
869.799	21762
869.929	21671
870.06	21701
870.19	21934
870.32	21895
870.45	21998
870.58	22040
870.71	22070
870.84	22082
870.97	21934
871.1	21987
871.23	22268
871.36	22158
871.489	22128
871.619	22181
871.749	22181
871.879	22204
872.008	22329
872.138	22204
872.267	22188
872.397	22086
872.526	21968
872.656	21937
872.785	22055
872.915	22295
873.044	22322
873.173	22067
873.303	22200
873.432	22246
873.561	22272
873.69	22287
873.819	22166
873.948	22363
874.077	22280
874.206	22166
874.335	22261
874.464	22287
874.593	22344
874.722	22440
874.851	22500
874.979	22500
875.108	22432
875.237	22417
875.365	22363
875.494	22405
875.623	22436
875.751	22417
875.88	22398
876.008	22557
876.136	22565
876.265	22892
876.393	22900
876.521	22946
876.65	22786
876.778	22786
876.906	22702
877.034	22786
877.162	22790
877.29	22782
877.418	22786
877.546	22713
877.674	22881
877.802	22862
877.93	22831
878.058	22767
878.185	22656
878.313	22767
878.441	22733
878.568	22542
878.696	22630
878.824	22740
878.951	22892
879.079	22858
879.206	23113
879.333	22858
879.461	22801
879.588	22915
879.715	22984
879.842	23094
879.97	22881
880.097	22630
880.224	22611
880.351	22694
880.478	22603
880.605	22554
880.732	22557
880.859	22729
880.986	22535
881.112	22618
881.239	22523
881.366	22440
881.493	22173
881.619	22162
881.746	22143
881.872	22188
881.999	22013
882.125	22158
882.252	22166
882.378	22188
882.505	22246
882.631	22002
882.757	21949
882.883	21991
883.01	22010
883.136	21701
883.262	21873
883.388	21622
883.514	21937
883.64	21926
883.766	21652
883.892	21652
884.018	21675
884.143	21835
884.269	21728
884.395	21538
884.52	21431
884.646	21504
884.772	21439
884.897	21374
885.023	21462
885.148	21614
885.274	21614
885.399	21450
885.524	21534
885.65	21450
885.775	21530
885.9	21614
886.025	21515
886.15	21557
886.275	21370
886.4	21504
886.525	21454
886.65	21397
886.775	21405
886.9	21496
887.025	21591
887.149	21450
887.274	21310
887.399	21245
887.523	21260
887.648	21283
887.773	21192
887.897	21336
888.021	21428
888.146	21104
888.27	21355
888.395	21306
888.519	21203
888.643	21321
888.767	21241
888.891	21127
889.015	21039
889.139	21051
889.263	21070
889.387	21142
889.511	21283
889.635	21176
889.759	21013
889.883	21051
890.006	21017
890.13	21146
890.254	21032
890.377	20864
890.501	20868
890.624	20765
890.748	20929
890.871	20644
890.995	20594
891.118	20743
891.241	20587
891.364	20602
891.488	20807
891.611	20609
891.734	20617
891.857	20575
891.98	20674
892.103	20663
892.226	20530
892.349	20575
892.471	20374
892.594	20537
892.717	20575
892.839	20347
892.962	20507
893.085	20670
893.207	20526
893.33	20427
893.452	20457
893.575	20461
893.697	20469
893.819	20682
893.941	20765
894.064	20659
894.186	20499
894.308	20431
894.43	20556
894.552	20682
894.674	20412
894.796	20396
894.918	20404
895.04	20457
895.161	20469
895.283	20514
895.405	20438
895.526	20450
895.648	20465
895.769	20549
895.891	20556
896.012	20465
896.134	20549
896.255	20560
896.376	20480
896.498	20545
896.619	20533
896.74	20427
896.861	20659
896.982	20785
897.103	20864
897.224	20667
897.345	20682
897.466	20594
897.587	20785
897.708	20849
897.828	20716
897.949	20625
898.07	20537
898.19	20564
898.311	20849
898.431	20659
898.552	20594
898.672	20689
898.792	20853
898.913	20701
899.033	20602
899.153	20431
899.273	20583
899.393	20533
899.513	20431
899.633	20480
899.753	20473
899.873	20419
899.993	20461
900.113	20480
900.232	20434
900.352	20415
900.472	20221
900.591	20240
900.711	20290
900.83	20233
900.95	20221
901.069	20309
901.189	20024
901.308	19887
901.427	19742
901.546	19833
901.665	19871
901.784	19826
901.904	19677
902.023	19556
902.141	19426
902.26	19419
902.379	19476
902.498	19289
902.617	19308
902.735	19320
902.854	19206
902.973	19301
903.091	18954
903.21	18977
903.328	18977
903.446	18913
903.565	18703
903.683	18886
903.801	18589
903.919	18650
904.038	18684
904.156	18604
904.274	18730
904.392	18570
904.51	18521
904.627	18528
904.745	18574
904.863	18620
904.981	18372
905.098	18129
905.216	18251
905.334	18330
905.451	18296
905.569	18254
905.686	18270
905.803	18228
905.921	18030
906.038	18057
906.155	18064
906.272	17878
906.389	17836
906.506	17733
906.623	17836
906.74	17703
906.857	17577
906.974	17611
907.091	17775
907.208	17824
907.324	17832
907.441	17684
907.557	17463
907.674	17455
907.79	17414
907.907	17379
908.023	17562
908.139	17493
908.256	17391
908.372	17299
908.488	17364
908.604	17288
908.72	17147
908.836	17269
908.952	17162
909.068	17231
909.184	17318
909.3	17140
909.415	17181
909.531	17048
909.647	16900
909.762	16908
909.878	16919
909.993	16828
910.108	16915
910.224	16767
910.339	16835
910.454	16710
910.57	16656
910.685	16596
910.8	16877
910.915	16831
911.03	16675
911.145	16523
911.259	16413
911.374	16459
911.489	16348
911.604	16398
911.718	16238
911.833	16226
911.947	16120
912.062	16082
912.176	16139
912.291	16207
912.405	16143
912.519	16299
912.633	16371
912.748	16150
912.862	16196
912.976	15918
913.09	15926
913.204	16112
913.318	15979
913.431	16207
913.545	16097
913.659	16071
913.772	15987
913.886	15956
914	15800
914.113	15835
914.226	15869
914.34	15888
914.453	15732
914.566	15865
914.68	15717
914.793	15675
914.906	15534
915.019	15485
915.132	15393
915.245	15504
915.358	15412
915.47	15408
915.583	15439
915.696	15424
915.809	15488
915.921	15515
916.034	15370
916.146	15336
916.259	15450
916.371	15458
916.483	15294
916.595	15097
916.708	15291
916.82	15291
916.932	15233
917.044	15214
917.156	15169
917.268	14990
917.38	15017
917.491	15001
917.603	15077
917.715	15127
917.826	15176
917.938	15051
918.049	14918
918.161	14967
918.272	15123
918.384	15089
918.495	14982
918.606	14868
918.717	14842
918.828	14834
918.939	14842
919.05	14716
919.161	14819
919.272	14549
919.383	14571
919.494	14834
919.604	14925
919.715	14746
919.826	14686
919.936	14777
920.047	14815
920.157	14716
920.267	14937
920.378	14815
920.488	14693
920.598	14880
920.708	14982
920.818	14906
920.928	14960
921.038	15100
921.148	14986
921.258	14765
921.368	14602
921.477	14438
921.587	14396
921.697	14366
921.806	14484
921.916	14271
922.025	14138
922.134	14046
922.244	14062
922.353	14210
922.462	14100
922.571	13982
922.68	13795
922.789	13784
922.898	13746
923.007	13731
923.116	13700
923.224	13788
923.333	13757
923.442	13609
923.55	13609
923.659	13681
923.767	13742
923.876	13521
923.984	13628
924.092	13403
924.201	13392
924.309	13533
924.417	13529
924.525	13472
924.633	13460
924.741	14176
924.849	13228
924.956	13381
925.064	13198
925.172	13149
925.279	13183
925.387	13194
925.494	13225
925.602	13263
925.709	13194
925.816	13149
925.924	13145
926.031	13209
926.138	13141
926.245	13183
926.352	13019
926.459	13129
926.566	13164
926.673	12966
926.779	12859
926.886	12939
926.993	12787
927.099	12814
927.206	12677
927.312	12585
927.419	12745
927.525	12703
927.631	12730
927.737	12601
927.843	12570
927.95	12433
928.056	12635
928.162	12555
928.267	12555
928.373	13103
928.479	12635
928.585	12346
928.69	12494
928.796	12464
928.901	12418
929.007	12296
929.112	12441
929.218	12391
929.323	12315
929.428	12186
929.533	12388
929.638	12190
929.743	12140
929.848	12239
929.953	12167
930.058	12155
930.163	11927
930.267	11984
930.372	12102
930.477	11901
930.581	12106
930.685	11954
930.79	11901
930.894	11866
930.998	11809
931.103	11847
931.207	11554
931.311	11520
931.415	11440
931.519	11216
931.623	11201
