Data from test_V78500241_2515.txt Node
Date: Fri Mar 25 15:27:22 CST 2022
User: usil
Spectrometer: V785-0024
Trigger mode: 0
Integration Time (sec): 4.000000E-1
Scans to average: 1
Nonlinearity correction enabled: false
Boxcar width: 0
Storing dark spectrum: false
XAxis mode: Wavelengths
Number of Pixels in Spectrum: 1024
>>>>>Begin Spectral Data<<<<<
801.071	27154
801.214	27074
801.356	27020
801.499	26731
801.641	26674
801.783	26682
801.926	26743
802.068	26632
802.211	26629
802.353	26556
802.496	26400
802.638	26263
802.78	26358
802.923	26176
803.065	26161
803.208	26206
803.35	26336
803.492	26492
803.635	26476
803.777	26366
803.919	26412
804.061	26701
804.204	26537
804.346	26301
804.488	26347
804.63	26336
804.773	26309
804.915	26370
805.057	26556
805.199	26453
805.341	26571
805.483	26564
805.626	26564
805.768	26495
805.91	26492
806.052	26621
806.194	26450
806.336	26796
806.478	26613
806.62	26476
806.762	26621
806.904	26785
807.046	26998
807.188	26971
807.33	26963
807.472	26895
807.614	26971
807.756	26868
807.898	26686
808.04	26686
808.182	26686
808.324	26777
808.465	26823
808.607	27058
808.749	27199
808.891	27325
809.033	27416
809.174	27089
809.316	27043
809.458	26986
809.6	27203
809.741	27279
809.883	27195
810.025	27424
810.166	27443
810.308	27507
810.45	27321
810.591	27329
810.733	27176
810.875	27176
811.016	26975
811.158	27047
811.299	27367
811.441	27344
811.582	27283
811.724	27188
811.865	27028
812.007	27192
812.148	27058
812.29	27085
812.431	27321
812.573	27351
812.714	27488
812.855	27705
812.997	27663
813.138	27800
813.279	27770
813.421	27572
813.562	27545
813.703	27367
813.845	27188
813.986	27005
814.127	26853
814.268	26815
814.41	26689
814.551	26693
814.692	26815
814.833	26674
814.974	26842
815.115	26929
815.256	26560
815.397	26587
815.539	26731
815.68	26632
815.821	26552
815.962	26503
816.103	26473
816.244	26412
816.385	26328
816.526	26431
816.666	26278
816.807	26046
816.948	26077
817.089	26142
817.23	26031
817.371	26050
817.512	25993
817.653	25978
817.793	26012
817.934	26103
818.075	26077
818.216	25982
818.356	25944
818.497	25989
818.638	25693
818.778	25685
818.919	25696
819.06	25959
819.2	25951
819.341	25902
819.481	26020
819.622	26126
819.762	26282
819.903	26370
820.043	26271
820.184	26161
820.324	26031
820.465	26263
820.605	26138
820.746	26024
820.886	25909
821.026	26062
821.167	25970
821.307	26153
821.447	26046
821.588	25928
821.728	25833
821.868	25708
822.008	25552
822.149	25548
822.289	25605
822.429	25244
822.569	25148
822.709	25232
822.849	25114
822.99	25148
823.13	25034
823.27	25114
823.41	24920
823.55	24749
823.69	24764
823.83	24783
823.97	24753
824.11	24673
824.25	24582
824.389	24688
824.529	24677
824.669	24650
824.809	24924
824.949	24825
825.089	24715
825.228	24696
825.368	24456
825.508	24464
825.648	24467
825.787	24471
825.927	24635
826.067	24456
826.206	24498
826.346	24601
826.485	24597
826.625	24513
826.765	24612
826.904	24654
827.044	24327
827.183	24182
827.323	24178
827.462	24296
827.601	24018
827.741	24201
827.88	24174
828.02	23999
828.159	24254
828.298	24209
828.437	24304
828.577	24152
828.716	24338
828.855	24083
828.994	24038
829.134	23805
829.273	23847
829.412	23950
829.551	23760
829.69	23942
829.829	24011
829.968	24022
830.107	24007
830.246	23878
830.385	23847
830.524	23802
830.663	23760
830.802	23604
830.941	23516
831.08	23512
831.219	23562
831.357	23581
831.496	23790
831.635	23478
831.774	23391
831.913	23459
832.051	23433
832.19	23455
832.329	23330
832.467	23311
832.606	23185
832.744	23288
832.883	23185
833.022	23296
833.16	23216
833.299	23330
833.437	23376
833.576	23212
833.714	23360
833.852	23337
833.991	23334
834.129	23395
834.267	23391
834.406	23379
834.544	23303
834.682	23288
834.821	23250
834.959	23505
835.097	23242
835.235	23349
835.373	23383
835.511	23337
835.65	23029
835.788	23288
835.926	23006
836.064	23105
836.202	22991
836.34	23208
836.478	23299
836.615	23128
836.753	23075
836.891	23109
837.029	23121
837.167	23162
837.305	22984
837.443	23029
837.58	23132
837.718	23033
837.856	22949
837.993	22889
838.131	22869
838.269	22892
838.406	22869
838.544	22790
838.681	22736
838.819	22588
838.956	22451
839.094	22382
839.231	22580
839.369	22611
839.506	22877
839.643	22717
839.781	22542
839.918	22443
840.055	22599
840.193	22485
840.33	22466
840.467	22569
840.604	22440
840.742	22755
840.879	22413
841.016	22390
841.153	22379
841.29	22565
841.427	22527
841.564	22462
841.701	22470
841.838	22341
841.975	22249
842.112	22440
842.249	22398
842.385	22295
842.522	22512
842.659	22253
842.796	22200
842.933	22272
843.069	22135
843.206	22196
843.343	22272
843.479	22215
843.616	22067
843.752	21968
843.889	22070
844.025	22048
844.162	21926
844.298	22105
844.435	22010
844.571	21915
844.708	22010
844.844	22112
844.98	21937
845.117	22059
845.253	21831
845.389	21701
845.525	21819
845.661	21755
845.798	21701
845.934	21736
846.07	21633
846.206	21660
846.342	21842
846.478	21739
846.614	21424
846.75	21275
846.886	21252
847.022	21458
847.158	21420
847.294	21306
847.429	21557
847.565	21454
847.701	21568
847.837	21173
847.972	21100
848.108	21310
848.244	21294
848.379	21089
848.515	20986
848.65	20948
848.786	21066
848.921	21093
849.057	21256
849.192	21074
849.328	21085
849.463	21058
849.598	21047
849.734	20929
849.869	20872
850.004	20815
850.14	20815
850.275	20754
850.41	20750
850.545	20746
850.68	20796
850.815	20804
850.95	20735
851.085	20963
851.22	20914
851.355	20739
851.49	20777
851.625	20750
851.76	20743
851.895	20735
852.03	20735
852.165	20834
852.299	20895
852.434	20819
852.569	20895
852.703	20819
852.838	20807
852.973	20868
853.107	20906
853.242	20800
853.376	20659
853.511	20579
853.645	20564
853.78	20746
853.914	20552
854.048	20575
854.183	20511
854.317	20727
854.451	20823
854.585	20762
854.72	20640
854.854	20705
854.988	20678
855.122	20621
855.256	20412
855.39	20571
855.524	20590
855.658	20606
855.792	20579
855.926	20602
856.06	20674
856.194	20651
856.327	20598
856.461	20598
856.595	20526
856.729	20499
856.862	20621
856.996	20579
857.13	20609
857.263	20765
857.397	20800
857.53	20598
857.664	20754
857.797	20674
857.931	20674
858.064	20651
858.197	20674
858.331	20545
858.464	20503
858.597	20484
858.731	20609
858.864	20575
858.997	20625
859.13	20716
859.263	20564
859.396	20792
859.529	20556
859.662	20495
859.795	20488
859.928	20537
860.061	20727
860.194	21001
860.327	20640
860.46	20686
860.592	20735
860.725	20667
860.858	20765
860.99	20579
861.123	20488
861.256	20564
861.388	20674
861.521	21306
861.653	20484
861.786	20484
861.918	20469
862.05	20434
862.183	20476
862.315	20594
862.447	20564
862.58	20541
862.712	20355
862.844	20294
862.976	20427
863.108	20446
863.24	20842
863.372	20172
863.504	20317
863.636	20301
863.768	20355
863.9	20332
864.032	20263
864.164	20419
864.296	20370
864.428	20514
864.559	20389
864.691	20374
864.823	20366
864.954	20317
865.086	20290
865.217	20233
865.349	20210
865.48	20290
865.612	20271
865.743	20275
865.875	20275
866.006	20240
866.137	20309
866.269	20286
866.4	20263
866.531	20233
866.662	20225
866.793	20183
866.924	20210
867.055	20157
867.186	20161
867.317	20077
867.448	20180
867.579	20039
867.71	20115
867.841	20065
867.972	20244
868.103	20240
868.233	20126
868.364	20199
868.495	20256
868.625	20438
868.756	20507
868.886	20347
869.017	20427
869.147	20583
869.278	20434
869.408	20480
869.539	20450
869.669	20457
869.799	20488
869.929	20427
870.06	20530
870.19	20655
870.32	20758
870.45	20796
870.58	20800
870.71	20918
870.84	20902
870.97	20925
871.1	20667
871.23	20948
871.36	20906
871.489	21051
871.619	20994
871.749	20941
871.879	21165
872.008	21142
872.138	21020
872.267	21032
872.397	20929
872.526	20796
872.656	20883
872.785	20746
872.915	21081
873.044	21100
873.173	21100
873.303	21062
873.432	21070
873.561	21096
873.69	21024
873.819	21096
873.948	21226
874.077	21066
874.206	20982
874.335	21085
874.464	21104
874.593	21260
874.722	21268
874.851	21416
874.979	21264
875.108	21351
875.237	21230
875.365	21096
875.494	21283
875.623	21378
875.751	21260
875.88	21313
876.008	21435
876.136	21500
876.265	21637
876.393	21732
876.521	21762
876.65	21713
876.778	21804
876.906	21717
877.034	21644
877.162	21641
877.29	21682
877.418	21724
877.546	21644
877.674	21637
877.802	21713
877.93	21583
878.058	21618
878.185	21477
878.313	21583
878.441	21523
878.568	21481
878.696	21488
878.824	21671
878.951	21804
879.079	21812
879.206	22013
879.333	21755
879.461	21762
879.588	21686
879.715	21766
879.842	21930
879.97	21679
880.097	21477
880.224	21553
880.351	21488
880.478	21519
880.605	21523
880.732	21599
880.859	21793
880.986	21507
881.112	21500
881.239	21351
881.366	21214
881.493	21252
881.619	21047
881.746	21188
881.872	21096
881.999	21024
882.125	21020
882.252	21043
882.378	21020
882.505	21116
882.631	20906
882.757	20868
882.883	20849
883.01	20727
883.136	20651
883.262	20617
883.388	20587
883.514	20781
883.64	20754
883.766	20765
883.892	20465
884.018	20526
884.143	20750
884.269	20842
884.395	20503
884.52	20320
884.646	20431
884.772	20396
884.897	20381
885.023	20374
885.148	20450
885.274	20541
885.399	20514
885.524	20385
885.65	20476
885.775	20396
885.9	20396
886.025	20434
886.15	20503
886.275	20473
886.4	20256
886.525	20305
886.65	20332
886.775	20153
886.9	20408
887.025	20495
887.149	20438
887.274	20278
887.399	20168
887.523	20081
887.648	20138
887.773	20107
887.897	20389
888.021	20313
888.146	20103
888.27	20278
888.395	20294
888.519	20313
888.643	20263
888.767	20161
888.891	20096
889.015	19997
889.139	20065
889.263	20012
889.387	20157
889.511	20229
889.635	20111
889.759	19932
889.883	19974
890.006	20081
890.13	20039
890.254	19986
890.377	19849
890.501	19883
890.624	19757
890.748	19826
890.871	19651
890.995	19540
891.118	19487
891.241	19556
891.364	19563
891.488	19700
891.611	19624
891.734	19540
891.857	19655
891.98	19571
892.103	19670
892.226	19616
892.349	19537
892.471	19339
892.594	19445
892.717	19533
892.839	19472
892.962	19529
893.085	19601
893.207	19495
893.33	19468
893.452	19407
893.575	19514
893.697	19575
893.819	19597
893.941	19601
894.064	19525
894.186	19400
894.308	19392
894.43	19582
894.552	19571
894.674	19613
894.796	19369
894.918	19422
895.04	19537
895.161	19544
895.283	19464
895.405	19472
895.526	19491
895.648	19464
895.769	19483
895.891	19483
896.012	19662
896.134	19499
896.255	19548
896.376	19502
896.498	19476
896.619	19540
896.74	19537
896.861	19476
896.982	19833
897.103	19909
897.224	19784
897.345	19731
897.466	19700
897.587	19677
897.708	19833
897.828	19693
897.949	19651
898.07	19537
898.19	19624
898.311	19772
898.431	19624
898.552	19685
898.672	19769
898.792	19772
898.913	19795
899.033	19616
899.153	19537
899.273	19445
899.393	19586
899.513	19476
899.633	19556
899.753	19483
899.873	19502
899.993	19521
900.113	19381
900.232	19419
900.352	19392
900.472	19343
900.591	19240
900.711	19324
900.83	19095
900.95	19324
901.069	19259
901.189	19046
901.308	18810
901.427	18973
901.546	18943
901.665	18875
901.784	18947
901.904	18719
902.023	18639
902.141	18486
902.26	18407
902.379	18532
902.498	18403
902.617	18429
902.735	18460
902.854	18448
902.973	18292
903.091	18076
903.21	18057
903.328	18034
903.446	17977
903.565	17840
903.683	17927
903.801	17798
903.919	17840
904.038	17726
904.156	17657
904.274	17779
904.392	17638
904.51	17627
904.627	17707
904.745	17710
904.863	17695
904.981	17551
905.098	17311
905.216	17204
905.334	17250
905.451	17311
905.569	17307
905.686	17330
905.803	17311
905.921	17121
906.038	17239
906.155	17102
906.272	17045
906.389	16923
906.506	16927
906.623	16869
906.74	16858
906.857	16721
906.974	16660
907.091	16991
907.208	16968
907.324	16881
907.441	16755
907.557	16603
907.674	16554
907.79	16466
907.907	16497
908.023	16622
908.139	16622
908.256	16500
908.372	16527
908.488	16451
908.604	16405
908.72	16204
908.836	16325
908.952	16200
909.068	16363
909.184	16363
909.3	16272
909.415	16287
909.531	16367
909.647	15979
909.762	15994
909.878	16067
909.993	16090
910.108	15960
910.224	15918
910.339	15968
910.454	15861
910.57	15823
910.685	15762
910.8	16067
910.915	15899
911.03	15827
911.145	15667
911.259	15717
911.374	15614
911.489	15564
911.604	15473
911.718	15245
911.833	15405
911.947	15310
912.062	15367
912.176	15420
912.291	15458
912.405	15374
912.519	15682
912.633	15599
912.748	15450
912.862	15359
912.976	15237
913.09	15100
913.204	15131
913.318	15252
913.431	15321
913.545	15199
913.659	15294
913.772	15218
913.886	15051
914	14982
914.113	14986
914.226	15150
914.34	14979
914.453	14941
914.566	14998
914.68	14876
914.793	14819
914.906	14678
915.019	14598
915.132	14480
915.245	14606
915.358	14583
915.47	14674
915.583	14552
915.696	14602
915.809	14697
915.921	14743
916.034	14583
916.146	14499
916.259	14632
916.371	14571
916.483	14518
916.595	14427
916.708	14442
916.82	14522
916.932	14465
917.044	14431
917.156	14423
917.268	14301
917.38	14366
917.491	14301
917.603	14317
917.715	14370
917.826	14358
917.938	14267
918.049	14065
918.161	14218
918.272	14362
918.384	14362
918.495	14202
918.606	14138
918.717	14084
918.828	14062
918.939	14107
919.05	13928
919.161	14046
919.272	13887
919.383	13917
919.494	14008
919.604	14225
919.715	14039
919.826	14073
919.936	14020
920.047	14092
920.157	14020
920.267	14294
920.378	14027
920.488	13906
920.598	14180
920.708	14355
920.818	14161
920.928	14115
921.038	14282
921.148	14229
921.258	14027
921.368	13776
921.477	13772
921.587	13845
921.697	13662
921.806	13738
921.916	13708
922.025	13445
922.134	13483
922.244	13415
922.353	13426
922.462	13312
922.571	13282
922.68	13065
922.789	12966
922.898	13107
923.007	12985
923.116	13152
923.224	13072
923.333	13023
923.442	12928
923.55	12916
923.659	12833
923.767	12935
923.876	12768
923.984	12856
924.092	12867
924.201	12863
924.309	12871
924.417	12840
924.525	12753
924.633	12802
924.741	13670
924.849	12555
924.956	12658
925.064	12585
925.172	12475
925.279	12513
925.387	12639
925.494	12441
925.602	12673
925.709	12426
925.816	12456
925.924	12464
926.031	12540
926.138	12441
926.245	12429
926.352	12437
926.459	12452
926.566	12570
926.673	12418
926.779	12281
926.886	12247
926.993	12224
927.099	12121
927.206	12030
927.312	12163
927.419	12114
927.525	12087
927.631	12095
927.737	12007
927.843	11954
927.95	11832
928.056	11961
928.162	12022
928.267	12041
928.373	12631
928.479	12064
928.585	11843
928.69	11859
928.796	11950
928.901	11874
929.007	11707
929.112	11813
929.218	11786
929.323	11733
929.428	11718
929.533	11874
929.638	11657
929.743	11710
929.848	11676
929.953	11703
930.058	11535
930.163	11444
930.267	11448
930.372	11581
930.477	11368
930.581	11562
930.685	11459
930.79	11170
930.894	11254
930.998	11284
931.103	11452
931.207	11010
931.311	10980
931.415	10923
931.519	10668
931.623	10679
