Data from test_V78500241_739.txt Node
Date: Fri Mar 25 15:15:00 CST 2022
User: usil
Spectrometer: V785-0024
Trigger mode: 0
Integration Time (sec): 4.000000E-1
Scans to average: 1
Nonlinearity correction enabled: false
Boxcar width: 0
Storing dark spectrum: false
XAxis mode: Wavelengths
Number of Pixels in Spectrum: 1024
>>>>>Begin Spectral Data<<<<<
801.071	27850
801.214	27675
801.356	27534
801.499	27401
801.641	27260
801.783	27116
801.926	27348
802.068	27188
802.211	27070
802.353	27104
802.496	26975
802.638	26872
802.78	26963
802.923	26864
803.065	26868
803.208	26982
803.35	26975
803.492	26876
803.635	27005
803.777	27119
803.919	27051
804.061	27485
804.204	27154
804.346	26963
804.488	27085
804.63	27039
804.773	26952
804.915	27066
805.057	27081
805.199	27013
805.341	27157
805.483	27340
805.626	27119
805.768	27077
805.91	27306
806.052	27279
806.194	27154
806.336	27504
806.478	27348
806.62	27287
806.762	27435
806.904	27530
807.046	27732
807.188	27583
807.33	27709
807.472	27629
807.614	27614
807.756	27614
807.898	27473
808.04	27530
808.182	27351
808.324	27462
808.465	27652
808.607	27770
808.749	27842
808.891	27918
809.033	28025
809.174	27949
809.316	27804
809.458	27865
809.6	28013
809.741	28040
809.883	28063
810.025	28097
810.166	28261
810.308	28173
810.45	28112
810.591	28139
810.733	27972
810.875	27983
811.016	27743
811.158	27781
811.299	27876
811.441	27880
811.582	28048
811.724	27785
811.865	27812
812.007	27816
812.148	27800
812.29	27983
812.431	28002
812.573	28158
812.714	28276
812.855	28478
812.997	28565
813.138	28702
813.279	28557
813.421	28497
813.562	28451
813.703	28322
813.845	28204
813.986	27781
814.127	27652
814.268	27656
814.41	27595
814.551	27622
814.692	27580
814.833	27557
814.974	27538
815.115	27698
815.256	27424
815.397	27401
815.539	27557
815.68	27443
815.821	27321
815.962	27283
816.103	27412
816.244	27302
816.385	27131
816.526	27096
816.666	27028
816.807	26876
816.948	26857
817.089	26948
817.23	26746
817.371	26804
817.512	26937
817.653	26838
817.793	26872
817.934	26902
818.075	26838
818.216	26781
818.356	26830
818.497	26727
818.638	26655
818.778	26644
818.919	26488
819.06	26644
819.2	26811
819.341	26777
819.481	26731
819.622	27039
819.762	27188
819.903	27074
820.043	26940
820.184	27055
820.324	26940
820.465	27024
820.605	26861
820.746	26872
820.886	26876
821.026	26929
821.167	27024
821.307	26956
821.447	26781
821.588	26705
821.728	26712
821.868	26427
822.008	26396
822.149	26221
822.289	26317
822.429	26039
822.569	26107
822.709	25902
822.849	25811
822.99	25871
823.13	25776
823.27	25868
823.41	25734
823.55	25556
823.69	25609
823.83	25658
823.97	25468
824.11	25403
824.25	25445
824.389	25312
824.529	25662
824.669	25400
824.809	25666
824.949	25552
825.089	25525
825.228	25624
825.368	25251
825.508	25297
825.648	25464
825.787	25350
825.927	25434
826.067	25255
826.206	25381
826.346	25377
826.485	25384
826.625	25403
826.765	25457
826.904	25392
827.044	25183
827.183	25088
827.323	24996
827.462	25118
827.601	25061
827.741	25027
827.88	24966
828.02	24970
828.159	25103
828.298	25031
828.437	25050
828.577	24977
828.716	25148
828.855	24943
828.994	24859
829.134	24791
829.273	24859
829.412	24779
829.551	24677
829.69	24757
829.829	24894
829.968	24703
830.107	24757
830.246	24681
830.385	24654
830.524	24574
830.663	24509
830.802	24437
830.941	24479
831.08	24418
831.219	24399
831.357	24460
831.496	24486
831.635	24403
831.774	24315
831.913	24224
832.051	24194
832.19	23999
832.329	24106
832.467	24034
832.606	24030
832.744	24034
832.883	23992
833.022	24083
833.16	23904
833.299	24057
833.437	24045
833.576	24133
833.714	24197
833.852	24201
833.991	24144
834.129	24152
834.267	24300
834.406	24064
834.544	24171
834.682	24053
834.821	24068
834.959	24205
835.097	23999
835.235	24038
835.373	24133
835.511	24011
835.65	24041
835.788	23939
835.926	23805
836.064	23672
836.202	23783
836.34	23965
836.478	23942
836.615	24018
836.753	23946
836.891	23954
837.029	23923
837.167	23923
837.305	23935
837.443	23790
837.58	23665
837.718	23916
837.856	23714
837.993	23794
838.131	23684
838.269	23623
838.406	23676
838.544	23501
838.681	23402
838.819	23402
838.956	23102
839.094	23181
839.231	23280
839.369	23433
839.506	23608
839.643	23585
839.781	23216
839.918	23200
840.055	23189
840.193	23079
840.33	23143
840.467	23060
840.604	23197
840.742	23360
840.879	22980
841.016	22892
841.153	23105
841.29	23124
841.427	23174
841.564	23170
841.701	23098
841.838	23136
841.975	23132
842.112	22972
842.249	22877
842.385	22911
842.522	23048
842.659	22923
842.796	22858
842.933	22828
843.069	22862
843.206	22835
843.343	22976
843.479	22885
843.616	22911
843.752	22748
843.889	22774
844.025	22900
844.162	22626
844.298	22812
844.435	22645
844.571	22626
844.708	22637
844.844	22946
844.98	22877
845.117	22805
845.253	22611
845.389	22557
845.525	22607
845.661	22455
845.798	22459
845.934	22535
846.07	22272
846.206	22466
846.342	22527
846.478	22344
846.614	22044
846.75	22154
846.886	21960
847.022	22154
847.158	22162
847.294	22166
847.429	22188
847.565	22090
847.701	22436
847.837	21968
847.972	21873
848.108	21960
848.244	21945
848.379	21751
848.515	21724
848.65	21842
848.786	21713
848.921	21797
849.057	21793
849.192	21831
849.328	21732
849.463	21800
849.598	21732
849.734	21679
849.869	21561
850.004	21492
850.14	21564
850.275	21507
850.41	21389
850.545	21401
850.68	21462
850.815	21576
850.95	21469
851.085	21819
851.22	21618
851.355	21526
851.49	21519
851.625	21485
851.76	21469
851.895	21439
852.03	21443
852.165	21447
852.299	21622
852.434	21553
852.569	21507
852.703	21587
852.838	21595
852.973	21686
853.107	21705
853.242	21298
853.376	21291
853.511	21005
853.645	21321
853.78	21355
853.914	21351
854.048	21306
854.183	21256
854.317	21435
854.451	21523
854.585	21340
854.72	21310
854.854	21450
854.988	21298
855.122	21359
855.256	21195
855.39	21264
855.524	21367
855.658	21389
855.792	21393
855.926	21370
856.06	21351
856.194	21431
856.327	21378
856.461	21321
856.595	21233
856.729	21344
856.862	21500
856.996	21336
857.13	21367
857.263	21450
857.397	21378
857.53	21325
857.664	21249
857.797	21336
857.931	21431
858.064	21344
858.197	21359
858.331	21256
858.464	21268
858.597	21157
858.731	21408
858.864	21199
858.997	21367
859.13	21313
859.263	21355
859.396	21420
859.529	21245
859.662	21348
859.795	21321
859.928	21332
860.061	21420
860.194	21534
860.327	21336
860.46	21336
860.592	21435
860.725	21443
860.858	21519
860.99	21348
861.123	21332
861.256	21184
861.388	21317
861.521	22010
861.653	21294
861.786	21047
861.918	21127
862.05	21184
862.183	21222
862.315	21154
862.447	21351
862.58	21279
862.712	21024
862.844	20941
862.976	21237
863.108	21138
863.24	21443
863.372	20880
863.504	21047
863.636	21100
863.768	21070
863.9	21020
864.032	20868
864.164	20967
864.296	21036
864.428	21154
864.559	21100
864.691	21070
864.823	20914
864.954	21085
865.086	21017
865.217	20963
865.349	20899
865.48	20743
865.612	20929
865.743	21093
865.875	20899
866.006	20899
866.137	20914
866.269	20887
866.4	20948
866.531	20815
866.662	20777
866.793	20815
866.924	20895
867.055	20956
867.186	20746
867.317	20773
867.448	20868
867.579	20883
867.71	20777
867.841	20826
867.972	20861
868.103	20708
868.233	20990
868.364	20777
868.495	20971
868.625	21142
868.756	21176
868.886	21020
869.017	21131
869.147	21096
869.278	21203
869.408	21161
869.539	20998
869.669	21203
869.799	21074
869.929	21135
870.06	21192
870.19	21450
870.32	21431
870.45	21504
870.58	21443
870.71	21580
870.84	21553
870.97	21416
871.1	21351
871.23	21656
871.36	21625
871.489	21591
871.619	21713
871.749	21679
871.879	21686
872.008	21797
872.138	21671
872.267	21698
872.397	21610
872.526	21530
872.656	21576
872.785	21473
872.915	21614
873.044	21667
873.173	21762
873.303	21781
873.432	21766
873.561	21739
873.69	21698
873.819	21682
873.948	21823
874.077	21682
874.206	21652
874.335	21679
874.464	21762
874.593	21911
874.722	21876
874.851	21968
874.979	21949
875.108	22010
875.237	21918
875.365	21876
875.494	21903
875.623	22013
875.751	21972
875.88	22013
876.008	21945
876.136	22109
876.265	22306
876.393	22428
876.521	22413
876.65	22363
876.778	22261
876.906	22306
877.034	22265
877.162	22360
877.29	22272
877.418	22268
877.546	22162
877.674	22417
877.802	22166
877.93	22238
878.058	22200
878.185	22173
878.313	22226
878.441	22162
878.568	22154
878.696	22166
878.824	22310
878.951	22318
879.079	22531
879.206	22615
879.333	22447
879.461	22265
879.588	22333
879.715	22432
879.842	22557
879.97	22337
880.097	22086
880.224	22154
880.351	22158
880.478	22147
880.605	22067
880.732	22074
880.859	22223
880.986	22086
881.112	22074
881.239	21945
881.366	21846
881.493	21770
881.619	21789
881.746	21652
881.872	21667
881.999	21698
882.125	21561
882.252	21629
882.378	21572
882.505	21679
882.631	21538
882.757	21397
882.883	21450
883.01	21382
883.136	21367
883.262	21302
883.388	21195
883.514	21325
883.64	21428
883.766	21207
883.892	21211
884.018	21218
884.143	21370
884.269	21378
884.395	21093
884.52	21055
884.646	20986
884.772	20967
884.897	20925
885.023	20994
885.148	21093
885.274	21165
885.399	21154
885.524	21036
885.65	20986
885.775	21028
885.9	21058
886.025	21154
886.15	21108
886.275	20952
886.4	20899
886.525	21077
886.65	20906
886.775	20788
886.9	21058
887.025	21203
887.149	20990
887.274	20705
887.399	20716
887.523	20773
887.648	20872
887.773	20731
887.897	20823
888.021	20792
888.146	20731
888.27	20948
888.395	20819
888.519	20758
888.643	20807
888.767	20819
888.891	20731
889.015	20594
889.139	20602
889.263	20640
889.387	20575
889.511	20804
889.635	20678
889.759	20549
889.883	20522
890.006	20606
890.13	20602
890.254	20602
890.377	20434
890.501	20396
890.624	20324
890.748	20415
890.871	20320
890.995	20149
891.118	20092
891.241	20172
891.364	20199
891.488	20225
891.611	20103
891.734	20153
891.857	20180
891.98	20092
892.103	20199
892.226	20134
892.349	20096
892.471	19902
892.594	19986
892.717	20206
892.839	20020
892.962	20001
893.085	20180
893.207	20096
893.33	19967
893.452	19963
893.575	20012
893.697	20092
893.819	20259
893.941	20336
894.064	20206
894.186	19845
894.308	19974
894.43	20081
894.552	20263
894.674	20199
894.796	19974
894.918	20027
895.04	20100
895.161	20164
895.283	20031
895.405	19928
895.526	19993
895.648	20005
895.769	20027
895.891	20005
896.012	19993
896.134	20100
896.255	20065
896.376	19993
896.498	20069
896.619	20126
896.74	20065
896.861	20069
896.982	20374
897.103	20488
897.224	20317
897.345	20164
897.466	20294
897.587	20286
897.708	20374
897.828	20339
897.949	20237
898.07	20168
898.19	20191
898.311	20336
898.431	20286
898.552	20305
898.672	20210
898.792	20221
898.913	20237
899.033	20176
899.153	20077
899.273	19928
899.393	19970
899.513	20119
899.633	20050
899.753	20039
899.873	19970
899.993	19997
900.113	19978
900.232	20001
900.352	19902
900.472	19799
900.591	19822
900.711	19864
900.83	19788
900.95	19868
901.069	19913
901.189	19685
901.308	19407
901.427	19430
901.546	19457
901.665	19434
901.784	19400
901.904	19285
902.023	19122
902.141	19061
902.26	18947
902.379	19076
902.498	18989
902.617	18848
902.735	18795
902.854	18795
902.973	18894
903.091	18673
903.21	18589
903.328	18532
903.446	18471
903.565	18448
903.683	18407
903.801	18292
903.919	18418
904.038	18281
904.156	18079
904.274	18228
904.392	18121
904.51	18083
904.627	18194
904.745	18171
904.863	18152
904.981	18019
905.098	17775
905.216	17718
905.334	17870
905.451	17927
905.569	17843
905.686	17733
905.803	17885
905.921	17668
906.038	17581
906.155	17581
906.272	17463
906.389	17539
906.506	17410
906.623	17440
906.74	17265
906.857	17334
906.974	17280
907.091	17459
907.208	17406
907.324	17417
907.441	17239
907.557	17124
907.674	16987
907.79	16991
907.907	17014
908.023	16976
908.139	17151
908.256	16987
908.372	17056
908.488	16987
908.604	16740
908.72	16767
908.836	16778
908.952	16774
909.068	16755
909.184	16858
909.3	16725
909.415	16820
909.531	16763
909.647	16546
909.762	16462
909.878	16390
909.993	16569
910.108	16413
910.224	16428
910.339	16440
910.454	16348
910.57	16287
910.685	16131
910.8	16516
910.915	16371
911.03	16344
911.145	16147
911.259	16074
911.374	16063
911.489	15941
911.604	16032
911.718	15892
911.833	15842
911.947	15857
912.062	15606
912.176	15835
912.291	15865
912.405	15789
912.519	16055
912.633	15994
912.748	15838
912.862	15739
912.976	15713
913.09	15648
913.204	15610
913.318	15686
913.431	15663
913.545	15705
913.659	15770
913.772	15629
913.886	15428
914	15500
914.113	15580
914.226	15599
914.34	15336
914.453	15416
914.566	15580
914.68	15310
914.793	15287
914.906	15157
915.019	15116
915.132	15001
915.245	15036
915.358	15150
915.47	15112
915.583	15100
915.696	15135
915.809	15055
915.921	15123
916.034	14982
916.146	14994
916.259	15001
916.371	15013
916.483	15070
916.595	15001
916.708	14921
916.82	14963
916.932	14807
917.044	14785
917.156	14872
917.268	14731
917.38	14777
917.491	14648
917.603	14659
917.715	14735
917.826	14804
917.938	14663
918.049	14583
918.161	14659
918.272	14804
918.384	14765
918.495	14613
918.606	14522
918.717	14404
918.828	14446
918.939	14537
919.05	14385
919.161	14571
919.272	14267
919.383	14313
919.494	14590
919.604	14575
919.715	14465
919.826	14336
919.936	14518
920.047	14533
920.157	14438
920.267	14686
920.378	14480
920.488	14423
920.598	14598
920.708	14667
920.818	14617
920.928	14583
921.038	14727
921.148	14724
921.258	14358
921.368	14248
921.477	14195
921.587	14191
921.697	14043
921.806	14187
921.916	14161
922.025	13837
922.134	13734
922.244	13822
922.353	13826
922.462	13685
922.571	13636
922.68	13392
922.789	13495
922.898	13529
923.007	13422
923.116	13445
923.224	13407
923.333	13434
923.442	13381
923.55	13259
923.659	13335
923.767	13251
923.876	13213
923.984	13308
924.092	13244
924.201	13194
924.309	13206
924.417	13251
924.525	13072
924.633	13145
924.741	13864
924.849	12859
924.956	13107
925.064	12916
925.172	12863
925.279	12859
925.387	12966
925.494	12928
925.602	13012
925.709	12886
925.816	12753
925.924	12848
926.031	12981
926.138	12833
926.245	13008
926.352	12715
926.459	12859
926.566	12924
926.673	12772
926.779	12658
926.886	12597
926.993	12494
927.099	12525
927.206	12357
927.312	12445
927.419	12502
927.525	12399
927.631	12494
927.737	12334
927.843	12346
927.95	12152
928.056	12285
928.162	12346
928.267	12251
928.373	12905
928.479	12270
928.585	12117
928.69	12308
928.796	12296
928.901	12201
929.007	12011
929.112	12125
929.218	12182
929.323	11950
929.428	12038
929.533	12087
929.638	11935
929.743	11950
929.848	11935
929.953	11954
930.058	11847
930.163	11726
930.267	11809
930.372	11843
930.477	11634
930.581	11878
930.685	11775
930.79	11562
930.894	11611
930.998	11543
931.103	11707
931.207	11337
931.311	11227
931.415	11159
931.519	10930
931.623	10976
