Data from test_V78500241_206.txt Node
Date: Fri Mar 25 15:11:17 CST 2022
User: usil
Spectrometer: V785-0024
Trigger mode: 0
Integration Time (sec): 4.000000E-1
Scans to average: 1
Nonlinearity correction enabled: false
Boxcar width: 0
Storing dark spectrum: false
XAxis mode: Wavelengths
Number of Pixels in Spectrum: 1024
>>>>>Begin Spectral Data<<<<<
801.071	27804
801.214	27930
801.356	27705
801.499	27629
801.641	27492
801.783	27538
801.926	27496
802.068	27526
802.211	27336
802.353	27340
802.496	27096
802.638	27169
802.78	27032
802.923	26998
803.065	27013
803.208	26960
803.35	27222
803.492	27150
803.635	27211
803.777	27055
803.919	27173
804.061	27557
804.204	27226
804.346	27047
804.488	27093
804.63	27207
804.773	26906
804.915	27005
805.057	27169
805.199	27112
805.341	27188
805.483	27329
805.626	27249
805.768	27074
805.91	27287
806.052	27420
806.194	27207
806.336	27454
806.478	27173
806.62	27161
806.762	27310
806.904	27603
807.046	27694
807.188	27561
807.33	27572
807.472	27580
807.614	27412
807.756	27701
807.898	27549
808.04	27329
808.182	27481
808.324	27397
808.465	27416
808.607	27507
808.749	27838
808.891	27880
809.033	28105
809.174	27770
809.316	27926
809.458	27812
809.6	27873
809.741	27968
809.883	27926
810.025	28082
810.166	27979
810.308	28048
810.45	27991
810.591	27979
810.733	27880
810.875	27930
811.016	27694
811.158	27701
811.299	27682
811.441	27762
811.582	27816
811.724	27732
811.865	27732
812.007	27698
812.148	27831
812.29	27770
812.431	27895
812.573	28086
812.714	28181
812.855	28242
812.997	28329
813.138	28500
813.279	28382
813.421	28200
813.562	28234
813.703	28017
813.845	27941
813.986	27694
814.127	27492
814.268	27355
814.41	27534
814.551	27431
814.692	27427
814.833	27291
814.974	27405
815.115	27272
815.256	27245
815.397	27260
815.539	27291
815.68	27055
815.821	27138
815.962	27173
816.103	27131
816.244	27089
816.385	26868
816.526	26857
816.666	26602
816.807	26549
816.948	26720
817.089	26659
817.23	26503
817.371	26480
817.512	26590
817.653	26556
817.793	26495
817.934	26507
818.075	26461
818.216	26465
818.356	26446
818.497	26438
818.638	26191
818.778	26362
818.919	26275
819.06	26324
819.2	26419
819.341	26495
819.481	26480
819.622	26701
819.762	26857
819.903	26804
820.043	26609
820.184	26579
820.324	26526
820.465	26568
820.605	26503
820.746	26564
820.886	26438
821.026	26556
821.167	26511
821.307	26549
821.447	26556
821.588	26275
821.728	26343
821.868	25974
822.008	25898
822.149	26005
822.289	25947
822.429	25670
822.569	25590
822.709	25643
822.849	25403
822.99	25293
823.13	25502
823.27	25483
823.41	25308
823.55	25164
823.69	25236
823.83	25171
823.97	25099
824.11	25065
824.25	25088
824.389	25057
824.529	25099
824.669	24992
824.809	25175
824.949	25110
825.089	25156
825.228	25114
825.368	24859
825.508	24970
825.648	24848
825.787	24916
825.927	24776
826.067	24757
826.206	24745
826.346	24829
826.485	24848
826.625	24890
826.765	24932
826.904	24878
827.044	24745
827.183	24635
827.323	24426
827.462	24479
827.601	24551
827.741	24536
827.88	24597
828.02	24490
828.159	24460
828.298	24620
828.437	24555
828.577	24483
828.716	24688
828.855	24395
828.994	24296
829.134	24228
829.273	24239
829.412	24129
829.551	24182
829.69	24311
829.829	24186
829.968	24342
830.107	24228
830.246	24171
830.385	23961
830.524	24129
830.663	24015
830.802	23843
830.941	23817
831.08	23665
831.219	23851
831.357	23935
831.496	23954
831.635	23790
831.774	23726
831.913	23585
832.051	23745
832.19	23630
832.329	23581
832.467	23478
832.606	23463
832.744	23307
832.883	23368
833.022	23482
833.16	23356
833.299	23493
833.437	23585
833.576	23486
833.714	23493
833.852	23524
833.991	23509
834.129	23577
834.267	23554
834.406	23482
834.544	23615
834.682	23429
834.821	23463
834.959	23615
835.097	23433
835.235	23570
835.373	23459
835.511	23573
835.65	23402
835.788	23261
835.926	23246
836.064	23033
836.202	23140
836.34	23410
836.478	23425
836.615	23383
836.753	23273
836.891	23299
837.029	23368
837.167	23273
837.305	23250
837.443	23204
837.58	23098
837.718	23311
837.856	23212
837.993	23025
838.131	23185
838.269	22911
838.406	23083
838.544	22896
838.681	22850
838.819	22706
838.956	22622
839.094	22565
839.231	22592
839.369	22896
839.506	22782
839.643	22797
839.781	22679
839.918	22417
840.055	22672
840.193	22386
840.33	22447
840.467	22557
840.604	22588
840.742	22763
840.879	22398
841.016	22497
841.153	22337
841.29	22546
841.427	22519
841.564	22588
841.701	22527
841.838	22375
841.975	22348
842.112	22440
842.249	22325
842.385	22181
842.522	22535
842.659	22306
842.796	22192
842.933	22196
843.069	22185
843.206	22253
843.343	22337
843.479	22291
843.616	22322
843.752	21998
843.889	21956
844.025	22086
844.162	21991
844.298	22131
844.435	21850
844.571	22021
844.708	22109
844.844	22150
844.98	22109
845.117	22093
845.253	21983
845.389	21838
845.525	21922
845.661	21781
845.798	21762
845.934	21686
846.07	21675
846.206	21671
846.342	21835
846.478	21568
846.614	21454
846.75	21424
846.886	21416
847.022	21507
847.158	21439
847.294	21431
847.429	21378
847.565	21428
847.701	21694
847.837	21180
847.972	21154
848.108	21252
848.244	21287
848.379	21108
848.515	21089
848.65	21036
848.786	21096
848.921	21039
849.057	21222
849.192	21081
849.328	21036
849.463	21062
849.598	20986
849.734	20910
849.869	20872
850.004	20769
850.14	20826
850.275	20823
850.41	20807
850.545	20727
850.68	20712
850.815	20845
850.95	20678
851.085	20975
851.22	20838
851.355	20720
851.49	20804
851.625	20724
851.76	20667
851.895	20712
852.03	20769
852.165	20663
852.299	20857
852.434	20819
852.569	20777
852.703	20762
852.838	20682
852.973	20895
853.107	20880
853.242	20689
853.376	20648
853.511	20427
853.645	20598
853.78	20853
853.914	20587
854.048	20526
854.183	20556
854.317	20484
854.451	20811
854.585	20537
854.72	20526
854.854	20705
854.988	20446
855.122	20560
855.256	20385
855.39	20575
855.524	20693
855.658	20701
855.792	20511
855.926	20518
856.06	20655
856.194	20644
856.327	20495
856.461	20587
856.595	20526
856.729	20488
856.862	20663
856.996	20629
857.13	20750
857.263	20606
857.397	20640
857.53	20552
857.664	20545
857.797	20583
857.931	20629
858.064	20617
858.197	20648
858.331	20507
858.464	20556
858.597	20480
858.731	20446
858.864	20564
858.997	20446
859.13	20503
859.263	20473
859.396	20552
859.529	20518
859.662	20533
859.795	20488
859.928	20518
860.061	20625
860.194	20705
860.327	20636
860.46	20522
860.592	20625
860.725	20689
860.858	20530
860.99	20674
861.123	20454
861.256	20454
861.388	20404
861.521	21245
861.653	20396
861.786	20355
861.918	20427
862.05	20423
862.183	20621
862.315	20629
862.447	20537
862.58	20602
862.712	20362
862.844	20210
862.976	20248
863.108	20301
863.24	20724
863.372	20275
863.504	20336
863.636	20176
863.768	20271
863.9	20233
864.032	20119
864.164	20240
864.296	20309
864.428	20374
864.559	20244
864.691	20336
864.823	20347
864.954	20195
865.086	20153
865.217	20248
865.349	20111
865.48	20142
865.612	20073
865.743	20256
865.875	20100
866.006	20096
866.137	20172
866.269	20199
866.4	20149
866.531	20115
866.662	20062
866.793	20039
866.924	20081
867.055	19955
867.186	20111
867.317	19967
867.448	19917
867.579	20035
867.71	20130
867.841	19940
867.972	20005
868.103	20172
868.233	20058
868.364	20153
868.495	20202
868.625	20149
868.756	20332
868.886	20195
869.017	20328
869.147	20400
869.278	20473
869.408	20237
869.539	20393
869.669	20404
869.799	20286
869.929	20393
870.06	20446
870.19	20636
870.32	20606
870.45	20830
870.58	20727
870.71	20834
870.84	20830
870.97	20693
871.1	20693
871.23	20830
871.36	20891
871.489	20754
871.619	20880
871.749	20823
871.879	20864
872.008	20971
872.138	21005
872.267	20880
872.397	20739
872.526	20731
872.656	20724
872.785	20823
872.915	20838
873.044	21005
873.173	20902
873.303	20906
873.432	21112
873.561	21024
873.69	20906
873.819	21009
873.948	21116
874.077	20876
874.206	20826
874.335	20891
874.464	21062
874.593	21241
874.722	21142
874.851	21165
874.979	21192
875.108	21294
875.237	21135
875.365	21055
875.494	21119
875.623	21203
875.751	21100
875.88	21077
876.008	21268
876.136	21435
876.265	21595
876.393	21793
876.521	21568
876.65	21603
876.778	21724
876.906	21454
877.034	21466
877.162	21526
877.29	21466
877.418	21564
877.546	21466
877.674	21519
877.802	21393
877.93	21496
878.058	21606
878.185	21272
878.313	21511
878.441	21481
878.568	21336
878.696	21466
878.824	21519
878.951	21564
879.079	21679
879.206	21789
879.333	21591
879.461	21481
879.588	21637
879.715	21599
879.842	21717
879.97	21587
880.097	21424
880.224	21382
880.351	21336
880.478	21389
880.605	21374
880.732	21332
880.859	21564
880.986	21428
881.112	21351
881.239	21260
881.366	21108
881.493	20990
881.619	20880
881.746	21043
881.872	20944
881.999	20910
882.125	20834
882.252	20925
882.378	20982
882.505	21013
882.631	20834
882.757	20617
882.883	20693
883.01	20651
883.136	20530
883.262	20564
883.388	20469
883.514	20659
883.64	20705
883.766	20629
883.892	20415
884.018	20514
884.143	20659
884.269	20613
884.395	20396
884.52	20389
884.646	20374
884.772	20202
884.897	20210
885.023	20267
885.148	20374
885.274	20381
885.399	20438
885.524	20415
885.65	20267
885.775	20294
885.9	20298
886.025	20404
886.15	20332
886.275	20195
886.4	20218
886.525	20149
886.65	20290
886.775	20317
886.9	20404
887.025	20511
887.149	20248
887.274	20119
887.399	20096
887.523	20107
887.648	20020
887.773	19932
887.897	20111
888.021	20103
888.146	20005
888.27	20119
888.395	20202
888.519	20088
888.643	20050
888.767	20115
888.891	19902
889.015	19868
889.139	19959
889.263	19898
889.387	19852
889.511	20031
889.635	19898
889.759	19826
889.883	19803
890.006	19856
890.13	20012
890.254	19864
890.377	19658
890.501	19693
890.624	19597
890.748	19685
890.871	19445
890.995	19411
891.118	19495
891.241	19567
891.364	19354
891.488	19540
891.611	19502
891.734	19586
891.857	19449
891.98	19521
892.103	19460
892.226	19552
892.349	19495
892.471	19274
892.594	19282
892.717	19449
892.839	19396
892.962	19457
893.085	19491
893.207	19426
893.33	19285
893.452	19293
893.575	19548
893.697	19282
893.819	19529
893.941	19563
894.064	19476
894.186	19232
894.308	19358
894.43	19438
894.552	19586
894.674	19373
894.796	19293
894.918	19293
895.04	19263
895.161	19499
895.283	19434
895.405	19316
895.526	19365
895.648	19358
895.769	19438
895.891	19358
896.012	19495
896.134	19445
896.255	19491
896.376	19358
896.498	19407
896.619	19453
896.74	19434
896.861	19388
896.982	19734
897.103	19894
897.224	19681
897.345	19590
897.466	19548
897.587	19594
897.708	19666
897.828	19723
897.949	19487
898.07	19407
898.19	19491
898.311	19639
898.431	19537
898.552	19571
898.672	19559
898.792	19620
898.913	19521
899.033	19460
899.153	19400
899.273	19316
899.393	19316
899.513	19388
899.633	19335
899.753	19468
899.873	19312
899.993	19327
900.113	19194
900.232	19282
900.352	19320
900.472	19209
900.591	19221
900.711	19232
900.83	19183
900.95	19228
901.069	19206
901.189	19065
901.308	18821
901.427	18703
901.546	18867
901.665	18821
901.784	18795
901.904	18646
902.023	18536
902.141	18285
902.26	18251
902.379	18346
902.498	18281
902.617	18197
902.735	18327
902.854	18247
902.973	18095
903.091	17950
903.21	17935
903.328	17939
903.446	17798
903.565	17752
903.683	17824
903.801	17543
903.919	17661
904.038	17726
904.156	17543
904.274	17627
904.392	17459
904.51	17490
904.627	17436
904.745	17524
904.863	17562
904.981	17258
905.098	17292
905.216	17178
905.334	17334
905.451	17284
905.569	17086
905.686	17197
905.803	17143
905.921	16968
906.038	17056
906.155	16987
906.272	16858
906.389	16854
906.506	16618
906.623	16790
906.74	16755
906.857	16615
906.974	16603
907.091	16717
907.208	16809
907.324	16687
907.441	16603
907.557	16375
907.674	16474
907.79	16299
907.907	16409
908.023	16322
908.139	16382
908.256	16325
908.372	16325
908.488	16268
908.604	16177
908.72	16093
908.836	16154
908.952	16048
909.068	16097
909.184	16173
909.3	16200
909.415	16051
909.531	16150
909.647	15793
909.762	15739
909.878	15827
909.993	15850
910.108	15766
910.224	15819
910.339	15873
910.454	15667
910.57	15694
910.685	15485
910.8	15930
910.915	15743
911.03	15633
911.145	15435
911.259	15424
911.374	15485
911.489	15405
911.604	15329
911.718	15116
911.833	15230
911.947	15024
912.062	15028
912.176	15150
912.291	15131
912.405	15180
912.519	15275
912.633	15294
912.748	15203
912.862	15085
912.976	14986
913.09	14826
913.204	14967
913.318	14864
913.431	15142
913.545	15043
913.659	15165
913.772	14925
913.886	14876
914	14785
914.113	14895
914.226	14937
914.34	14811
914.453	14765
914.566	14834
914.68	14625
914.793	14701
914.906	14461
915.019	14412
915.132	14412
915.245	14454
915.358	14476
915.47	14400
915.583	14408
915.696	14393
915.809	14514
915.921	14575
916.034	14423
916.146	14461
916.259	14313
916.371	14320
916.483	14332
916.595	14202
916.708	14191
916.82	14252
916.932	14218
917.044	14221
917.156	14157
917.268	14081
917.38	14100
917.491	14199
917.603	14103
917.715	14176
917.826	14221
917.938	14043
918.049	13917
918.161	13967
918.272	14202
918.384	14206
918.495	14130
918.606	13871
918.717	13761
918.828	13940
918.939	13890
919.05	13837
919.161	13883
919.272	13620
919.383	13731
919.494	13871
919.604	14145
919.715	13833
919.826	13769
919.936	13788
920.047	13959
920.157	13803
920.267	14005
920.378	13818
920.488	13894
920.598	13970
920.708	14168
920.818	13986
920.928	14027
921.038	14081
921.148	14039
921.258	13776
921.368	13704
921.477	13624
921.587	13620
921.697	13537
921.806	13540
921.916	13460
922.025	13240
922.134	13232
922.244	13236
922.353	13373
922.462	13202
922.571	13072
922.68	12993
922.789	12977
922.898	12913
923.007	12875
923.116	12909
923.224	12924
923.333	12844
923.442	12738
923.55	12749
923.659	12776
923.767	12806
923.876	12646
923.984	12730
924.092	12681
924.201	12662
924.309	12681
924.417	12654
924.525	12544
924.633	12688
924.741	13381
924.849	12437
924.956	12528
925.064	12338
925.172	12357
925.279	12388
925.387	12327
925.494	12422
925.602	12486
925.709	12399
925.816	12251
925.924	12308
926.031	12437
926.138	12292
926.245	12448
926.352	12311
926.459	12361
926.566	12372
926.673	12262
926.779	12117
926.886	12079
926.993	11965
927.099	11988
927.206	11931
927.312	11958
927.419	11950
927.525	11961
927.631	11958
927.737	11779
927.843	11843
927.95	11707
928.056	11775
928.162	11760
928.267	11809
928.373	12327
928.479	11847
928.585	11608
928.69	11733
928.796	11802
928.901	11653
929.007	11512
929.112	11608
929.218	11512
929.323	11596
929.428	11490
929.533	11512
929.638	11509
929.743	11471
929.848	11528
929.953	11566
930.058	11490
930.163	11216
930.267	11261
930.372	11360
930.477	11136
930.581	11463
930.685	11242
930.79	11041
930.894	11193
930.998	11037
931.103	11178
931.207	10763
931.311	10755
931.415	10675
931.519	10527
931.623	10485
