Data from test_V78500241_3304.txt Node
Date: Fri Mar 25 15:32:52 CST 2022
User: usil
Spectrometer: V785-0024
Trigger mode: 0
Integration Time (sec): 4.000000E-1
Scans to average: 1
Nonlinearity correction enabled: false
Boxcar width: 0
Storing dark spectrum: false
XAxis mode: Wavelengths
Number of Pixels in Spectrum: 1024
>>>>>Begin Spectral Data<<<<<
801.071	27131
801.214	27081
801.356	27005
801.499	26834
801.641	26792
801.783	26720
801.926	26769
802.068	26632
802.211	26640
802.353	26503
802.496	26492
802.638	26374
802.78	26427
802.923	26172
803.065	26237
803.208	26180
803.35	26225
803.492	26396
803.635	26621
803.777	26377
803.919	26526
804.061	26826
804.204	26450
804.346	26355
804.488	26355
804.63	26465
804.773	26358
804.915	26609
805.057	26556
805.199	26400
805.341	26594
805.483	26579
805.626	26579
805.768	26533
805.91	26476
806.052	26773
806.194	26655
806.336	26849
806.478	26602
806.62	26492
806.762	26689
806.904	26819
807.046	27180
807.188	27093
807.33	27127
807.472	27028
807.614	26960
807.756	27039
807.898	26849
808.04	26689
808.182	26838
808.324	26921
808.465	26796
808.607	27032
808.749	27192
808.891	27348
809.033	27306
809.174	27169
809.316	27214
809.458	27085
809.6	27165
809.741	27332
809.883	27416
810.025	27530
810.166	27348
810.308	27534
810.45	27526
810.591	27405
810.733	27348
810.875	27233
811.016	27116
811.158	27100
811.299	27291
811.441	27310
811.582	27477
811.724	27252
811.865	26990
812.007	27154
812.148	27233
812.29	27093
812.431	27306
812.573	27538
812.714	27553
812.855	27709
812.997	27774
813.138	27838
813.279	27789
813.421	27724
813.562	27599
813.703	27629
813.845	27378
813.986	27009
814.127	26990
814.268	26921
814.41	26727
814.551	26906
814.692	27017
814.833	26746
814.974	26838
815.115	26849
815.256	26750
815.397	26697
815.539	26735
815.68	26488
815.821	26621
815.962	26587
816.103	26434
816.244	26499
816.385	26370
816.526	26415
816.666	26221
816.807	26046
816.948	26199
817.089	26218
817.23	26130
817.371	25944
817.512	26149
817.653	26122
817.793	26065
817.934	26092
818.075	26043
818.216	26252
818.356	26008
818.497	26073
818.638	25799
818.778	25890
818.919	25818
819.06	25909
819.2	25970
819.341	26062
819.481	26043
819.622	26229
819.762	26412
819.903	26309
820.043	26328
820.184	26305
820.324	26168
820.465	26309
820.605	26225
820.746	26210
820.886	26008
821.026	26149
821.167	26294
821.307	26153
821.447	26065
821.588	26035
821.728	25894
821.868	25605
822.008	25597
822.149	25552
822.289	25624
822.429	25289
822.569	25202
822.709	25148
822.849	25103
822.99	25095
823.13	25076
823.27	25023
823.41	24821
823.55	24722
823.69	24909
823.83	24913
823.97	24833
824.11	24856
824.25	24601
824.389	24719
824.529	24650
824.669	24601
824.809	24734
824.949	24871
825.089	24684
825.228	24631
825.368	24570
825.508	24635
825.648	24547
825.787	24623
825.927	24612
826.067	24578
826.206	24555
826.346	24471
826.485	24559
826.625	24532
826.765	24681
826.904	24525
827.044	24319
827.183	24365
827.323	24235
827.462	24308
827.601	24369
827.741	24228
827.88	24247
828.02	24220
828.159	24296
828.298	24323
828.437	24224
828.577	24213
828.716	24300
828.855	24178
828.994	23996
829.134	23973
829.273	23931
829.412	23882
829.551	23824
829.69	23954
829.829	23958
829.968	24136
830.107	24076
830.246	24015
830.385	23935
830.524	23847
830.663	23874
830.802	23840
830.941	23634
831.08	23573
831.219	23676
831.357	23741
831.496	23783
831.635	23570
831.774	23581
831.913	23566
832.051	23353
832.19	23360
832.329	23433
832.467	23178
832.606	23128
832.744	23265
832.883	23246
833.022	23193
833.16	23231
833.299	23273
833.437	23318
833.576	23391
833.714	23341
833.852	23531
833.991	23330
834.129	23398
834.267	23383
834.406	23296
834.544	23398
834.682	23433
834.821	23326
834.959	23509
835.097	23337
835.235	23444
835.373	23311
835.511	23299
835.65	23204
835.788	23258
835.926	23086
836.064	22938
836.202	23067
836.34	23086
836.478	23284
836.615	23265
836.753	23372
836.891	23322
837.029	23181
837.167	23284
837.305	23083
837.443	23121
837.58	23067
837.718	23052
837.856	23079
837.993	22949
838.131	23113
838.269	22915
838.406	23006
838.544	22896
838.681	22759
838.819	22679
838.956	22485
839.094	22557
839.231	22561
839.369	22752
839.506	23041
839.643	22885
839.781	22535
839.918	22584
840.055	22500
840.193	22421
840.33	22375
840.467	22390
840.604	22451
840.742	22748
840.879	22417
841.016	22546
841.153	22394
841.29	22531
841.427	22504
841.564	22592
841.701	22352
841.838	22322
841.975	22405
842.112	22478
842.249	22303
842.385	22207
842.522	22546
842.659	22272
842.796	22207
842.933	22249
843.069	22249
843.206	22169
843.343	22390
843.479	22234
843.616	22204
843.752	22082
843.889	22017
844.025	22059
844.162	22093
844.298	22044
844.435	22017
844.571	21888
844.708	22082
844.844	22177
844.98	22185
845.117	22188
845.253	21926
845.389	21888
845.525	21934
845.661	21865
845.798	21751
845.934	21759
846.07	21728
846.206	21743
846.342	21766
846.478	21808
846.614	21542
846.75	21469
846.886	21477
847.022	21511
847.158	21408
847.294	21515
847.429	21542
847.565	21526
847.701	21770
847.837	21218
847.972	21138
848.108	21283
848.244	21287
848.379	21154
848.515	21108
848.65	21085
848.786	21123
848.921	21058
849.057	21180
849.192	21222
849.328	21108
849.463	21055
849.598	21058
849.734	20956
849.869	20956
850.004	20807
850.14	20891
850.275	20864
850.41	20872
850.545	20792
850.68	20891
850.815	20769
850.95	20849
851.085	20941
851.22	20967
851.355	20800
851.49	20823
851.625	20883
851.76	20849
851.895	20792
852.03	20796
852.165	20788
852.299	20864
852.434	20944
852.569	20933
852.703	20773
852.838	20933
852.973	20883
853.107	20960
853.242	20830
853.376	20792
853.511	20526
853.645	20617
853.78	20804
853.914	20697
854.048	20686
854.183	20606
854.317	20678
854.451	20872
854.585	20724
854.72	20678
854.854	20746
854.988	20598
855.122	20659
855.256	20518
855.39	20686
855.524	20754
855.658	20815
855.792	20727
855.926	20663
856.06	20712
856.194	20712
856.327	20705
856.461	20552
856.595	20511
856.729	20556
856.862	20800
856.996	20785
857.13	20739
857.263	20705
857.397	20758
857.53	20648
857.664	20689
857.797	20708
857.931	20792
858.064	20762
858.197	20781
858.331	20663
858.464	20587
858.597	20530
858.731	20594
858.864	20602
858.997	20571
859.13	20549
859.263	20708
859.396	20743
859.529	20659
859.662	20545
859.795	20476
859.928	20670
860.061	20887
860.194	20914
860.327	20667
860.46	20644
860.592	20777
860.725	20758
860.858	20792
860.99	20712
861.123	20587
861.256	20568
861.388	20697
861.521	21165
861.653	20484
861.786	20454
861.918	20374
862.05	20590
862.183	20636
862.315	20659
862.447	20754
862.58	20689
862.712	20476
862.844	20427
862.976	20434
863.108	20419
863.24	20880
863.372	20298
863.504	20442
863.636	20355
863.768	20533
863.9	20374
864.032	20347
864.164	20313
864.296	20374
864.428	20438
864.559	20389
864.691	20541
864.823	20396
864.954	20282
865.086	20400
865.217	20278
865.349	20275
865.48	20275
865.612	20225
865.743	20347
865.875	20244
866.006	20240
866.137	20271
866.269	20396
866.4	20286
866.531	20206
866.662	20263
866.793	20210
866.924	20157
867.055	20282
867.186	20176
867.317	20275
867.448	20111
867.579	20218
867.71	20065
867.841	20142
867.972	20263
868.103	20229
868.233	20187
868.364	20130
868.495	20252
868.625	20457
868.756	20564
868.886	20412
869.017	20507
869.147	20499
869.278	20682
869.408	20469
869.539	20450
869.669	20461
869.799	20473
869.929	20526
870.06	20583
870.19	20796
870.32	20686
870.45	20830
870.58	20826
870.71	21009
870.84	21020
870.97	20895
871.1	20811
871.23	20956
871.36	21066
871.489	21058
871.619	21039
871.749	21112
871.879	21180
872.008	21241
872.138	21112
872.267	21070
872.397	21028
872.526	20921
872.656	20876
872.785	20971
872.915	21093
873.044	21264
873.173	21100
873.303	21184
873.432	21062
873.561	21237
873.69	21089
873.819	21043
873.948	21199
874.077	20960
874.206	21096
874.335	21138
874.464	21169
874.593	21291
874.722	21367
874.851	21374
874.979	21325
875.108	21477
875.237	21340
875.365	21329
875.494	21329
875.623	21408
875.751	21260
875.88	21447
876.008	21466
876.136	21504
876.265	21823
876.393	21827
876.521	21846
876.65	21819
876.778	21701
876.906	21663
877.034	21732
877.162	21682
877.29	21701
877.418	21759
877.546	21797
877.674	21797
877.802	21694
877.93	21625
878.058	21473
878.185	21580
878.313	21583
878.441	21667
878.568	21386
878.696	21572
878.824	21701
878.951	21641
879.079	21808
879.206	21926
879.333	21956
879.461	21713
879.588	21846
879.715	21960
879.842	22006
879.97	21816
880.097	21530
880.224	21538
880.351	21542
880.478	21644
880.605	21443
880.732	21424
880.859	21618
880.986	21599
881.112	21656
881.239	21310
881.366	21283
881.493	21089
881.619	21058
881.746	21024
881.872	21154
881.999	21013
882.125	20956
882.252	21116
882.378	21157
882.505	21127
882.631	21017
882.757	20743
882.883	20883
883.01	20819
883.136	20678
883.262	20663
883.388	20552
883.514	20731
883.64	20819
883.766	20739
883.892	20571
884.018	20537
884.143	20765
884.269	20807
884.395	20568
884.52	20370
884.646	20454
884.772	20393
884.897	20355
885.023	20473
885.148	20480
885.274	20609
885.399	20545
885.524	20476
885.65	20492
885.775	20552
885.9	20473
886.025	20568
886.15	20446
886.275	20473
886.4	20389
886.525	20415
886.65	20434
886.775	20301
886.9	20480
887.025	20682
887.149	20446
887.274	20237
887.399	20153
887.523	20191
887.648	20130
887.773	20187
887.897	20332
888.021	20275
888.146	20161
888.27	20290
888.395	20358
888.519	20206
888.643	20355
888.767	20278
888.891	20130
889.015	19967
889.139	20130
889.263	20008
889.387	20176
889.511	20225
889.635	20161
889.759	20005
889.883	20024
890.006	20046
890.13	20134
890.254	19997
890.377	19989
890.501	19780
890.624	19746
890.748	19864
890.871	19666
890.995	19552
891.118	19540
891.241	19635
891.364	19559
891.488	19811
891.611	19647
891.734	19605
891.857	19719
891.98	19685
892.103	19723
892.226	19704
892.349	19559
892.471	19567
892.594	19510
892.717	19480
892.839	19438
892.962	19472
893.085	19643
893.207	19571
893.33	19445
893.452	19350
893.575	19582
893.697	19377
893.819	19738
893.941	19700
894.064	19628
894.186	19457
894.308	19514
894.43	19540
894.552	19666
894.674	19594
894.796	19384
894.918	19620
895.04	19590
895.161	19537
895.283	19620
895.405	19472
895.526	19472
895.648	19464
895.769	19616
895.891	19605
896.012	19624
896.134	19575
896.255	19491
896.376	19476
896.498	19590
896.619	19605
896.74	19594
896.861	19635
896.982	19944
897.103	20046
897.224	19814
897.345	19776
897.466	19696
897.587	19818
897.708	19852
897.828	19731
897.949	19742
898.07	19624
898.19	19674
898.311	19913
898.431	19765
898.552	19780
898.672	19875
898.792	19822
898.913	19746
899.033	19666
899.153	19559
899.273	19400
899.393	19563
899.513	19544
899.633	19487
899.753	19609
899.873	19468
899.993	19540
900.113	19472
900.232	19499
900.352	19491
900.472	19373
900.591	19129
900.711	19278
900.83	19251
900.95	19422
901.069	19365
901.189	19107
901.308	19065
901.427	18928
901.546	18810
901.665	18863
901.784	19031
901.904	18802
902.023	18661
902.141	18407
902.26	18380
902.379	18464
902.498	18410
902.617	18456
902.735	18437
902.854	18414
902.973	18285
903.091	18167
903.21	18174
903.328	18022
903.446	17935
903.565	17897
903.683	17931
903.801	17912
903.919	18003
904.038	17783
904.156	17649
904.274	17764
904.392	17630
904.51	17691
904.627	17699
904.745	17722
904.863	17752
904.981	17478
905.098	17200
905.216	17395
905.334	17379
905.451	17440
905.569	17227
905.686	17471
905.803	17372
905.921	17162
906.038	17212
906.155	17162
906.272	17064
906.389	17029
906.506	16881
906.623	16923
906.74	17018
906.857	16748
906.974	16782
907.091	16930
907.208	17025
907.324	16850
907.441	16797
907.557	16687
907.674	16615
907.79	16508
907.907	16508
908.023	16615
908.139	16611
908.256	16615
908.372	16455
908.488	16489
908.604	16436
908.72	16204
908.836	16379
908.952	16322
909.068	16356
909.184	16500
909.3	16253
909.415	16352
909.531	16314
909.647	16173
909.762	16063
909.878	15907
909.993	16078
910.108	16036
910.224	15873
910.339	16071
910.454	15998
910.57	15926
910.685	15835
910.8	16147
910.915	16010
911.03	15865
911.145	15724
911.259	15701
911.374	15690
911.489	15488
911.604	15500
911.718	15332
911.833	15466
911.947	15310
912.062	15222
912.176	15424
912.291	15511
912.405	15500
912.519	15564
912.633	15545
912.748	15447
912.862	15401
912.976	15252
913.09	15154
913.204	15108
913.318	15207
913.431	15260
913.545	15363
913.659	15325
913.772	15176
913.886	15123
914	14998
914.113	15142
914.226	15138
914.34	15165
914.453	14921
914.566	15051
914.68	14918
914.793	14941
914.906	14792
915.019	14598
915.132	14629
915.245	14648
915.358	14727
915.47	14674
915.583	14724
915.696	14583
915.809	14724
915.921	14712
916.034	14659
916.146	14575
916.259	14503
916.371	14606
916.483	14651
916.595	14461
916.708	14488
916.82	14560
916.932	14415
917.044	14507
917.156	14488
917.268	14366
917.38	14408
917.491	14309
917.603	14313
917.715	14415
917.826	14431
917.938	14252
918.049	14180
918.161	14282
918.272	14339
918.384	14469
918.495	14240
918.606	14100
918.717	14005
918.828	14058
918.939	14107
919.05	14035
919.161	14168
919.272	13868
919.383	13947
919.494	14123
919.604	14225
919.715	13940
919.826	13997
919.936	14103
920.047	14119
920.157	14005
920.267	14278
920.378	14043
920.488	14084
920.598	14206
920.708	14389
920.818	14218
920.928	14145
921.038	14290
921.148	14324
921.258	14031
921.368	13932
921.477	13833
921.587	13799
921.697	13746
921.806	13818
921.916	13727
922.025	13540
922.134	13411
922.244	13445
922.353	13533
922.462	13339
922.571	13304
922.68	13110
922.789	13118
922.898	13122
923.007	13057
923.116	13179
923.224	13053
923.333	13072
923.442	12989
923.55	12977
923.659	13023
923.767	12977
923.876	13012
923.984	12973
924.092	12848
924.201	12909
924.309	12894
924.417	12894
924.525	12787
924.633	12905
924.741	13727
924.849	12559
924.956	12745
925.064	12582
925.172	12532
925.279	12521
925.387	12540
925.494	12521
925.602	12639
925.709	12570
925.816	12429
925.924	12502
926.031	12597
926.138	12506
926.245	12525
926.352	12380
926.459	12479
926.566	12658
926.673	12445
926.779	12308
926.886	12243
926.993	12235
927.099	12201
927.206	12114
927.312	12106
927.419	12117
927.525	12117
927.631	12178
927.737	11958
927.843	11984
927.95	11851
928.056	12026
928.162	11946
928.267	12019
928.373	12467
928.479	12087
928.585	11821
928.69	11920
928.796	11988
928.901	11840
929.007	11695
929.112	11840
929.218	11783
929.323	11695
929.428	11707
929.533	11737
929.638	11657
929.743	11676
929.848	11726
929.953	11695
930.058	11433
930.163	11334
930.267	11376
930.372	11535
930.477	11322
930.581	11554
930.685	11376
930.79	11280
930.894	11258
930.998	11265
931.103	11425
931.207	10980
931.311	10987
931.415	10839
931.519	10774
931.623	10618
