Data from test_V78500241_1507.txt Node
Date: Fri Mar 25 15:20:21 CST 2022
User: usil
Spectrometer: V785-0024
Trigger mode: 0
Integration Time (sec): 4.000000E-1
Scans to average: 1
Nonlinearity correction enabled: false
Boxcar width: 0
Storing dark spectrum: false
XAxis mode: Wavelengths
Number of Pixels in Spectrum: 1024
>>>>>Begin Spectral Data<<<<<
801.071	28082
801.214	27930
801.356	27804
801.499	27705
801.641	27679
801.783	27587
801.926	27625
802.068	27595
802.211	27705
802.353	27412
802.496	27256
802.638	27439
802.78	27401
802.923	27173
803.065	27241
803.208	27180
803.35	27283
803.492	27272
803.635	27427
803.777	27355
803.919	27420
804.061	27819
804.204	27549
804.346	27439
804.488	27439
804.63	27466
804.773	27427
804.915	27561
805.057	27545
805.199	27591
805.341	27595
805.483	27599
805.626	27686
805.768	27667
805.91	27652
806.052	27587
806.194	27553
806.336	27793
806.478	27549
806.62	27690
806.762	27694
806.904	27869
807.046	28185
807.188	28040
807.33	27968
807.472	28070
807.614	27991
807.756	28090
807.898	27930
808.04	27861
808.182	27835
808.324	27987
808.465	27934
808.607	28150
808.749	28249
808.891	28379
809.033	28455
809.174	28344
809.316	28173
809.458	28303
809.6	28173
809.741	28421
809.883	28356
810.025	28664
810.166	28573
810.308	28573
810.45	28462
810.591	28455
810.733	28318
810.875	28249
811.016	28215
811.158	28086
811.299	28314
811.441	28497
811.582	28432
811.724	28223
811.865	28322
812.007	28230
812.148	28310
812.29	28287
812.431	28531
812.573	28660
812.714	28630
812.855	28744
812.997	28930
813.138	28923
813.279	28915
813.421	28702
813.562	28790
813.703	28664
813.845	28447
813.986	28181
814.127	28040
814.268	27918
814.41	27884
814.551	27964
814.692	28051
814.833	27884
814.974	27979
815.115	28002
815.256	27827
815.397	27899
815.539	27895
815.68	27827
815.821	27690
815.962	27705
816.103	27770
816.244	27656
816.385	27667
816.526	27530
816.666	27310
816.807	27230
816.948	27207
817.089	27405
817.23	27173
817.371	27249
817.512	27142
817.653	27176
817.793	27203
817.934	27283
818.075	27169
818.216	27313
818.356	27173
818.497	27154
818.638	27001
818.778	27020
818.919	27055
819.06	27062
819.2	27169
819.341	27112
819.481	27142
819.622	27405
819.762	27641
819.903	27397
820.043	27549
820.184	27363
820.324	27367
820.465	27336
820.605	27492
820.746	27450
820.886	27351
821.026	27313
821.167	27367
821.307	27389
821.447	27207
821.588	27142
821.728	27005
821.868	26902
822.008	26686
822.149	26819
822.289	26629
822.429	26457
822.569	26438
822.709	26393
822.849	26199
822.99	26240
823.13	26191
823.27	26111
823.41	26119
823.55	25986
823.69	25887
823.83	25936
823.97	26077
824.11	25906
824.25	25913
824.389	25902
824.529	25890
824.669	25852
824.809	25921
824.949	26005
825.089	25921
825.228	26020
825.368	25670
825.508	25761
825.648	25670
825.787	25639
825.927	25875
826.067	25643
826.206	25734
826.346	25791
826.485	25746
826.625	25753
826.765	25917
826.904	25639
827.044	25582
827.183	25597
827.323	25479
827.462	25472
827.601	25449
827.741	25491
827.88	25499
828.02	25301
828.159	25510
828.298	25460
828.437	25540
828.577	25285
828.716	25609
828.855	25297
828.994	25072
829.134	25183
829.273	25282
829.412	25034
829.551	25031
829.69	25259
829.829	25103
829.968	25251
830.107	25122
830.246	25168
830.385	25038
830.524	24913
830.663	24970
830.802	24913
830.941	24852
831.08	24703
831.219	24981
831.357	24745
831.496	24924
831.635	24722
831.774	24791
831.913	24589
832.051	24601
832.19	24502
832.329	24574
832.467	24502
832.606	24486
832.744	24361
832.883	24361
833.022	24467
833.16	24452
833.299	24498
833.437	24353
833.576	24490
833.714	24509
833.852	24517
833.991	24502
834.129	24604
834.267	24635
834.406	24578
834.544	24502
834.682	24475
834.821	24570
834.959	24623
835.097	24464
835.235	24661
835.373	24490
835.511	24525
835.65	24308
835.788	24407
835.926	24144
836.064	24136
836.202	24163
836.34	24330
836.478	24403
836.615	24239
836.753	24304
836.891	24361
837.029	24289
837.167	24247
837.305	24292
837.443	24121
837.58	24091
837.718	24353
837.856	24174
837.993	24209
838.131	24182
838.269	24083
838.406	24167
838.544	23908
838.681	23813
838.819	23600
838.956	23604
839.094	23722
839.231	23779
839.369	23737
839.506	24098
839.643	23843
839.781	23562
839.918	23661
840.055	23604
840.193	23687
840.33	23627
840.467	23615
840.604	23627
840.742	23828
840.879	23379
841.016	23440
841.153	23512
841.29	23581
841.427	23493
841.564	23490
841.701	23444
841.838	23406
841.975	23379
842.112	23509
842.249	23433
842.385	23258
842.522	23478
842.659	23364
842.796	23296
842.933	23132
843.069	23242
843.206	23254
843.343	23273
843.479	23261
843.616	23322
843.752	23136
843.889	23143
844.025	23162
844.162	23117
844.298	23258
844.435	22968
844.571	23143
844.708	23006
844.844	23204
844.98	23204
845.117	23193
845.253	23018
845.389	22885
845.525	22957
845.661	22961
845.798	22710
845.934	22835
846.07	22835
846.206	22809
846.342	22904
846.478	22873
846.614	22546
846.75	22538
846.886	22527
847.022	22691
847.158	22626
847.294	22542
847.429	22580
847.565	22512
847.701	22653
847.837	22253
847.972	22150
848.108	22207
848.244	22314
848.379	22101
848.515	22097
848.65	22078
848.786	22139
848.921	22166
849.057	22200
849.192	22002
849.328	22067
849.463	22154
849.598	22135
849.734	22036
849.869	21968
850.004	21819
850.14	21975
850.275	21953
850.41	21797
850.545	21793
850.68	21812
850.815	21827
850.95	21873
851.085	22048
851.22	21926
851.355	21918
851.49	21789
851.625	21812
851.76	21911
851.895	21838
852.03	21846
852.165	21880
852.299	21827
852.434	22010
852.569	21884
852.703	21728
852.838	21926
852.973	21979
853.107	21975
853.242	21880
853.376	21873
853.511	21682
853.645	21519
853.78	21884
853.914	21766
854.048	21762
854.183	21576
854.317	21808
854.451	21907
854.585	21622
854.72	21667
854.854	21736
854.988	21644
855.122	21648
855.256	21641
855.39	21835
855.524	21876
855.658	21724
855.792	21755
855.926	21717
856.06	21770
856.194	21732
856.327	21705
856.461	21538
856.595	21682
856.729	21770
856.862	21895
856.996	21789
857.13	21793
857.263	21899
857.397	21755
857.53	21667
857.664	21762
857.797	21762
857.931	21770
858.064	21724
858.197	21861
858.331	21736
858.464	21755
858.597	21454
858.731	21663
858.864	21694
858.997	21671
859.13	21671
859.263	21743
859.396	21679
859.529	21648
859.662	21564
859.795	21587
859.928	21770
860.061	21823
860.194	22013
860.327	21720
860.46	21709
860.592	21789
860.725	21789
860.858	21785
860.99	21701
861.123	21538
861.256	21698
861.388	21717
861.521	22188
861.653	21663
861.786	21496
861.918	21572
862.05	21583
862.183	21534
862.315	21591
862.447	21679
862.58	21530
862.712	21294
862.844	21405
862.976	21405
863.108	21504
863.24	21743
863.372	21469
863.504	21462
863.636	21378
863.768	21428
863.9	21382
864.032	21230
864.164	21340
864.296	21466
864.428	21507
864.559	21458
864.691	21428
864.823	21538
864.954	21340
865.086	21272
865.217	21310
865.349	21214
865.48	21302
865.612	21294
865.743	21283
865.875	21222
866.006	21329
866.137	21245
866.269	21348
866.4	21047
866.531	21222
866.662	21123
866.793	21329
866.924	21272
867.055	21310
867.186	21142
867.317	21222
867.448	21230
867.579	21096
867.71	21112
867.841	21188
867.972	21283
868.103	21165
868.233	21230
868.364	21135
868.495	21302
868.625	21473
868.756	21485
868.886	21226
869.017	21466
869.147	21542
869.278	21496
869.408	21473
869.539	21500
869.669	21473
869.799	21526
869.929	21583
870.06	21530
870.19	21698
870.32	21720
870.45	21663
870.58	21739
870.71	21953
870.84	21812
870.97	21785
871.1	21873
871.23	22013
871.36	22063
871.489	21964
871.619	21972
871.749	21953
871.879	22055
872.008	22177
872.138	22006
872.267	21983
872.397	21979
872.526	21895
872.656	21876
872.785	21869
872.915	22074
873.044	22158
873.173	22025
873.303	22162
873.432	22196
873.561	22173
873.69	22070
873.819	22048
873.948	22097
874.077	22036
874.206	22082
874.335	22036
874.464	22181
874.593	22261
874.722	22242
874.851	22272
874.979	22268
875.108	22363
875.237	22181
875.365	22181
875.494	22261
875.623	22295
875.751	22234
875.88	22230
876.008	22386
876.136	22478
876.265	22622
876.393	22786
876.521	22755
876.65	22755
876.778	22630
876.906	22694
877.034	22611
877.162	22573
877.29	22497
877.418	22672
877.546	22596
877.674	22615
877.802	22626
877.93	22592
878.058	22599
878.185	22405
878.313	22519
878.441	22493
878.568	22443
878.696	22565
878.824	22675
878.951	22660
879.079	22793
879.206	22976
879.333	22656
879.461	22660
879.588	22672
879.715	22748
879.842	22900
879.97	22645
880.097	22398
880.224	22398
880.351	22538
880.478	22508
880.605	22451
880.732	22375
880.859	22599
880.986	22436
881.112	22497
881.239	22268
881.366	22101
881.493	22074
881.619	22055
881.746	22036
881.872	21972
881.999	21865
882.125	22048
882.252	22158
882.378	21903
882.505	22082
882.631	21987
882.757	21717
882.883	21800
883.01	21751
883.136	21713
883.262	21492
883.388	21599
883.514	21743
883.64	21755
883.766	21648
883.892	21576
884.018	21454
884.143	21671
884.269	21747
884.395	21416
884.52	21348
884.646	21424
884.772	21321
884.897	21260
885.023	21481
885.148	21424
885.274	21431
885.399	21526
885.524	21252
885.65	21428
885.775	21401
885.9	21332
886.025	21382
886.15	21507
886.275	21310
886.4	21317
886.525	21233
886.65	21306
886.775	21123
886.9	21443
887.025	21469
887.149	21344
887.274	21237
887.399	21138
887.523	21138
887.648	21127
887.773	21001
887.897	21184
888.021	21096
888.146	21039
888.27	21138
888.395	21116
888.519	21112
888.643	21070
888.767	21199
888.891	20944
889.015	20929
889.139	21043
889.263	20906
889.387	21043
889.511	20998
889.635	20941
889.759	20910
889.883	20861
890.006	20857
890.13	21001
890.254	20735
890.377	20754
890.501	20644
890.624	20651
890.748	20769
890.871	20598
890.995	20450
891.118	20381
891.241	20492
891.364	20503
891.488	20564
891.611	20450
891.734	20492
891.857	20427
891.98	20457
892.103	20389
892.226	20469
892.349	20400
892.471	20233
892.594	20400
892.717	20396
892.839	20256
892.962	20328
893.085	20415
893.207	20465
893.33	20351
893.452	20317
893.575	20419
893.697	20370
893.819	20495
893.941	20590
894.064	20473
894.186	20221
894.308	20256
894.43	20469
894.552	20431
894.674	20419
894.796	20290
894.918	20309
895.04	20252
895.161	20374
895.283	20256
895.405	20267
895.526	20336
895.648	20225
895.769	20355
895.891	20317
896.012	20503
896.134	20488
896.255	20339
896.376	20362
896.498	20336
896.619	20339
896.74	20324
896.861	20522
896.982	20720
897.103	20758
897.224	20648
897.345	20598
897.466	20473
897.587	20545
897.708	20659
897.828	20568
897.949	20396
898.07	20389
898.19	20499
898.311	20606
898.431	20583
898.552	20511
898.672	20579
898.792	20686
898.913	20590
899.033	20408
899.153	20438
899.273	20233
899.393	20328
899.513	20412
899.633	20358
899.753	20286
899.873	20244
899.993	20343
900.113	20320
900.232	20431
900.352	20202
900.472	20176
900.591	20035
900.711	20214
900.83	19951
900.95	20027
901.069	20024
901.189	20001
901.308	19715
901.427	19689
901.546	19715
901.665	19658
901.784	19693
901.904	19521
902.023	19460
902.141	19202
902.26	19190
902.379	19278
902.498	19114
902.617	19118
902.735	19168
902.854	19171
902.973	19088
903.091	18970
903.21	18863
903.328	18886
903.446	18700
903.565	18738
903.683	18677
903.801	18578
903.919	18673
904.038	18574
904.156	18426
904.274	18585
904.392	18429
904.51	18433
904.627	18426
904.745	18513
904.863	18429
904.981	18258
905.098	17946
905.216	18072
905.334	18007
905.451	18152
905.569	18125
905.686	18110
905.803	18049
905.921	17904
906.038	17980
906.155	17935
906.272	17707
906.389	17851
906.506	17699
906.623	17703
906.74	17630
906.857	17497
906.974	17486
907.091	17729
907.208	17646
907.324	17642
907.441	17509
907.557	17387
907.674	17269
907.79	17250
907.907	17387
908.023	17356
908.139	17414
908.256	17265
908.372	17212
908.488	17277
908.604	17037
908.72	17056
908.836	17166
908.952	16938
909.068	17166
909.184	17155
909.3	17037
909.415	17075
909.531	17003
909.647	16752
909.762	16713
909.878	16596
909.993	16626
910.108	16713
910.224	16771
910.339	16759
910.454	16698
910.57	16637
910.685	16500
910.8	16835
910.915	16637
911.03	16660
911.145	16462
911.259	16291
911.374	16242
911.489	16276
911.604	16261
911.718	16124
911.833	16131
911.947	16002
912.062	15979
912.176	16040
912.291	16101
912.405	16105
912.519	16215
912.633	16329
912.748	16128
912.862	16048
912.976	15926
913.09	15884
913.204	15869
913.318	15903
913.431	15880
913.545	15937
913.659	16101
913.772	15884
913.886	15709
914	15675
914.113	15663
914.226	15854
914.34	15781
914.453	15603
914.566	15759
914.68	15587
914.793	15542
914.906	15344
915.019	15405
915.132	15260
915.245	15226
915.358	15275
915.47	15294
915.583	15154
915.696	15272
915.809	15393
915.921	15443
916.034	15173
916.146	15211
916.259	15104
916.371	15252
916.483	15226
916.595	15272
916.708	15176
916.82	15108
916.932	15074
917.044	15112
917.156	14975
917.268	14906
917.38	14979
917.491	14914
917.603	14883
917.715	14902
917.826	14994
917.938	14914
918.049	14758
918.161	14925
918.272	14994
918.384	14990
918.495	14952
918.606	14705
918.717	14632
918.828	14667
918.939	14765
919.05	14590
919.161	14655
919.272	14492
919.383	14575
919.494	14735
919.604	14941
919.715	14629
919.826	14545
919.936	14613
920.047	14686
920.157	14644
920.267	14842
920.378	14648
920.488	14640
920.598	14781
920.708	14986
920.818	14842
920.928	14826
921.038	14887
921.148	14823
921.258	14648
921.368	14461
921.477	14469
921.587	14309
921.697	14317
921.806	14393
921.916	14180
922.025	14069
922.134	14069
922.244	14005
922.353	14031
922.462	13963
922.571	13769
922.68	13712
922.789	13689
922.898	13601
923.007	13491
923.116	13776
923.224	13689
923.333	13613
923.442	13643
923.55	13506
923.659	13537
923.767	13525
923.876	13403
923.984	13487
924.092	13403
924.201	13415
924.309	13373
924.417	13411
924.525	13324
924.633	13301
924.741	14054
924.849	13198
924.956	13247
925.064	13156
925.172	13099
925.279	13141
925.387	13175
925.494	13099
925.602	13217
925.709	12981
925.816	12928
925.924	13038
926.031	13027
926.138	13038
926.245	13012
926.352	12901
926.459	13004
926.566	13175
926.673	13050
926.779	12833
926.886	12840
926.993	12795
927.099	12673
927.206	12597
927.312	12540
927.419	12654
927.525	12692
927.631	12650
927.737	12631
927.843	12448
927.95	12388
928.056	12490
928.162	12471
928.267	12574
928.373	13000
928.479	12502
928.585	12315
928.69	12441
928.796	12369
928.901	12327
929.007	12140
929.112	12251
929.218	12285
929.323	12136
929.428	12098
929.533	12308
929.638	12057
929.743	12155
929.848	12194
929.953	12110
930.058	12026
930.163	11885
930.267	11889
930.372	12019
930.477	11809
930.581	12015
930.685	11824
930.79	11748
930.894	11836
930.998	11661
931.103	11927
931.207	11448
931.311	11444
931.415	11296
931.519	11098
931.623	11155
