Data from test_V78500241_416.txt Node
Date: Fri Mar 25 15:12:45 CST 2022
User: usil
Spectrometer: V785-0024
Trigger mode: 0
Integration Time (sec): 4.000000E-1
Scans to average: 1
Nonlinearity correction enabled: false
Boxcar width: 0
Storing dark spectrum: false
XAxis mode: Wavelengths
Number of Pixels in Spectrum: 1024
>>>>>Begin Spectral Data<<<<<
801.071	27116
801.214	27184
801.356	26769
801.499	26880
801.641	26750
801.783	26743
801.926	26807
802.068	26735
802.211	26621
802.353	26583
802.496	26438
802.638	26492
802.78	26423
802.923	26328
803.065	26229
803.208	26332
803.35	26290
803.492	26526
803.635	26545
803.777	26427
803.919	26587
804.061	26792
804.204	26632
804.346	26492
804.488	26370
804.63	26537
804.773	26431
804.915	26480
805.057	26689
805.199	26465
805.341	26735
805.483	26716
805.626	26473
805.768	26355
805.91	26583
806.052	26689
806.194	26640
806.336	26743
806.478	26754
806.62	26659
806.762	26727
806.904	26914
807.046	27058
807.188	26994
807.33	26994
807.472	27066
807.614	26849
807.756	26975
807.898	26781
808.04	26853
808.182	26811
808.324	26712
808.465	26842
808.607	27062
808.749	27024
808.891	27287
809.033	27466
809.174	27310
809.316	27218
809.458	27313
809.6	27226
809.741	27226
809.883	27420
810.025	27435
810.166	27500
810.308	27351
810.45	27416
810.591	27378
810.733	27332
810.875	27131
811.016	27150
811.158	27135
811.299	27214
811.441	27291
811.582	27203
811.724	27150
811.865	27104
812.007	27055
812.148	27283
812.29	27192
812.431	27310
812.573	27458
812.714	27530
812.855	27797
812.997	27690
813.138	27922
813.279	27953
813.421	27800
813.562	27675
813.703	27469
813.845	27424
813.986	27161
814.127	27017
814.268	26933
814.41	27081
814.551	26853
814.692	27036
814.833	26819
814.974	26834
815.115	26815
815.256	26724
815.397	26689
815.539	26758
815.68	26678
815.821	26644
815.962	26743
816.103	26488
816.244	26438
816.385	26355
816.526	26358
816.666	26206
816.807	26145
816.948	26233
817.089	26145
817.23	26088
817.371	26084
817.512	26210
817.653	26077
817.793	25974
817.934	26096
818.075	26046
818.216	26305
818.356	26077
818.497	25986
818.638	25951
818.778	25868
818.919	25917
819.06	26020
819.2	26027
819.341	26027
819.481	26111
819.622	26240
819.762	26549
819.903	26309
820.043	26438
820.184	26244
820.324	26176
820.465	26366
820.605	26298
820.746	26225
820.886	26176
821.026	26153
821.167	26218
821.307	26336
821.447	26221
821.588	26256
821.728	25799
821.868	25681
822.008	25731
822.149	25639
822.289	25483
822.429	25464
822.569	25187
822.709	25282
822.849	25126
822.99	25114
823.13	25088
823.27	25133
823.41	24981
823.55	24722
823.69	24954
823.83	24954
823.97	24928
824.11	24616
824.25	24696
824.389	24681
824.529	24791
824.669	24677
824.809	24924
824.949	24783
825.089	24848
825.228	24745
825.368	24547
825.508	24559
825.648	24631
825.787	24578
825.927	24734
826.067	24604
826.206	24547
826.346	24627
826.485	24528
826.625	24593
826.765	24783
826.904	24688
827.044	24384
827.183	24540
827.323	24334
827.462	24308
827.601	24277
827.741	24365
827.88	24403
828.02	24152
828.159	24502
828.298	24319
828.437	24445
828.577	24289
828.716	24486
828.855	24174
828.994	24060
829.134	24125
829.273	24057
829.412	24011
829.551	23954
829.69	24110
829.829	24076
829.968	24152
830.107	24194
830.246	24087
830.385	24007
830.524	24003
830.663	23901
830.802	23760
830.941	23566
831.08	23611
831.219	23824
831.357	23630
831.496	23927
831.635	23608
831.774	23474
831.913	23501
832.051	23497
832.19	23554
832.329	23566
832.467	23421
832.606	23265
832.744	23250
832.883	23356
833.022	23284
833.16	23440
833.299	23391
833.437	23376
833.576	23551
833.714	23448
833.852	23493
833.991	23398
834.129	23554
834.267	23360
834.406	23417
834.544	23410
834.682	23497
834.821	23387
834.959	23520
835.097	23391
835.235	23417
835.373	23406
835.511	23307
835.65	23303
835.788	23239
835.926	23151
836.064	23033
836.202	23109
836.34	23315
836.478	23452
836.615	23261
836.753	23356
836.891	23235
837.029	23273
837.167	23185
837.305	23155
837.443	23189
837.58	23143
837.718	23151
837.856	23204
837.993	23048
838.131	23193
838.269	23079
838.406	23067
838.544	22869
838.681	22900
838.819	22691
838.956	22626
839.094	22580
839.231	22656
839.369	22793
839.506	23006
839.643	22839
839.781	22736
839.918	22596
840.055	22554
840.193	22664
840.33	22577
840.467	22607
840.604	22523
840.742	22820
840.879	22299
841.016	22489
841.153	22493
841.29	22733
841.427	22550
841.564	22573
841.701	22550
841.838	22550
841.975	22421
842.112	22428
842.249	22265
842.385	22272
842.522	22523
842.659	22421
842.796	22287
842.933	22268
843.069	22188
843.206	22272
843.343	22329
843.479	22246
843.616	22253
843.752	22025
843.889	22112
844.025	22215
844.162	22059
844.298	22143
844.435	22067
844.571	22032
844.708	22067
844.844	22215
844.98	22238
845.117	22143
845.253	22040
845.389	22067
845.525	21991
845.661	21781
845.798	21816
845.934	21770
846.07	21819
846.206	21831
846.342	21998
846.478	21724
846.614	21641
846.75	21511
846.886	21561
847.022	21511
847.158	21526
847.294	21401
847.429	21507
847.565	21534
847.701	21785
847.837	21397
847.972	21317
848.108	21275
848.244	21405
848.379	21230
848.515	21272
848.65	21013
848.786	21207
848.921	21192
849.057	21340
849.192	21207
849.328	21287
849.463	21108
849.598	21070
849.734	20998
849.869	21074
850.004	20826
850.14	20845
850.275	20921
850.41	20804
850.545	20796
850.68	20868
850.815	20880
850.95	20979
851.085	21093
851.22	21013
851.355	20895
851.49	21013
851.625	20785
851.76	20762
851.895	20785
852.03	20788
852.165	20815
852.299	20944
852.434	21009
852.569	20971
852.703	20800
852.838	20982
852.973	21020
853.107	21005
853.242	20811
853.376	20785
853.511	20617
853.645	20746
853.78	20826
853.914	20758
854.048	20750
854.183	20606
854.317	20716
854.451	20918
854.585	20826
854.72	20727
854.854	20765
854.988	20632
855.122	20724
855.256	20613
855.39	20678
855.524	20750
855.658	20754
855.792	20697
855.926	20587
856.06	20712
856.194	20838
856.327	20640
856.461	20617
856.595	20708
856.729	20743
856.862	20735
856.996	20727
857.13	20804
857.263	20811
857.397	20910
857.53	20636
857.664	20842
857.797	20925
857.931	20800
858.064	20792
858.197	20792
858.331	20758
858.464	20701
858.597	20629
858.731	20606
858.864	20693
858.997	20648
859.13	20663
859.263	20773
859.396	20754
859.529	20621
859.662	20735
859.795	20640
859.928	20899
860.061	20788
860.194	20956
860.327	20765
860.46	20796
860.592	20842
860.725	20880
860.858	20739
860.99	20590
861.123	20697
861.256	20686
861.388	20735
861.521	21481
861.653	20541
861.786	20568
861.918	20579
862.05	20556
862.183	20689
862.315	20602
862.447	20735
862.58	20545
862.712	20545
862.844	20362
862.976	20484
863.108	20488
863.24	20906
863.372	20385
863.504	20423
863.636	20442
863.768	20457
863.9	20408
864.032	20404
864.164	20415
864.296	20457
864.428	20488
864.559	20499
864.691	20484
864.823	20362
864.954	20393
865.086	20362
865.217	20336
865.349	20259
865.48	20271
865.612	20438
865.743	20400
865.875	20351
866.006	20298
866.137	20309
866.269	20301
866.4	20438
866.531	20244
866.662	20256
866.793	20202
866.924	20355
867.055	20286
867.186	20191
867.317	20218
867.448	20214
867.579	20248
867.71	20107
867.841	20256
867.972	20324
868.103	20275
868.233	20256
868.364	20267
868.495	20275
868.625	20415
868.756	20632
868.886	20465
869.017	20446
869.147	20651
869.278	20644
869.408	20545
869.539	20545
869.669	20537
869.799	20503
869.929	20579
870.06	20522
870.19	20735
870.32	20857
870.45	20914
870.58	21077
870.71	21085
870.84	21013
870.97	21013
871.1	20891
871.23	21135
871.36	21184
871.489	21009
871.619	21138
871.749	21138
871.879	21264
872.008	21237
872.138	21077
872.267	21077
872.397	20963
872.526	20925
872.656	20952
872.785	20781
872.915	21116
873.044	21169
873.173	21218
873.303	21195
873.432	21222
873.561	21252
873.69	21249
873.819	21161
873.948	21169
874.077	21138
874.206	21066
874.335	21348
874.464	21237
874.593	21237
874.722	21428
874.851	21412
874.979	21332
875.108	21302
875.237	21382
875.365	21321
875.494	21302
875.623	21332
875.751	21378
875.88	21542
876.008	21557
876.136	21439
876.265	21804
876.393	21812
876.521	21934
876.65	21808
876.778	21854
876.906	21759
877.034	21641
877.162	21682
877.29	21633
877.418	21793
877.546	21774
877.674	21667
877.802	21709
877.93	21667
878.058	21770
878.185	21572
878.313	21622
878.441	21709
878.568	21580
878.696	21656
878.824	21682
878.951	21838
879.079	21922
879.206	22002
879.333	21895
879.461	21747
879.588	21785
879.715	21903
879.842	21880
879.97	21854
880.097	21599
880.224	21542
880.351	21591
880.478	21534
880.605	21561
880.732	21641
880.859	21732
880.986	21587
881.112	21473
881.239	21447
881.366	21348
881.493	21222
881.619	21184
881.746	21119
881.872	21176
881.999	21116
882.125	21138
882.252	21146
882.378	21066
882.505	21165
882.631	21043
882.757	20933
882.883	20902
883.01	20899
883.136	20785
883.262	20804
883.388	20739
883.514	20921
883.64	20933
883.766	20796
883.892	20617
884.018	20609
884.143	20701
884.269	20785
884.395	20571
884.52	20518
884.646	20518
884.772	20488
884.897	20457
885.023	20518
885.148	20587
885.274	20648
885.399	20533
885.524	20507
885.65	20533
885.775	20480
885.9	20492
886.025	20530
886.15	20492
886.275	20507
886.4	20408
886.525	20415
886.65	20301
886.775	20419
886.9	20667
887.025	20785
887.149	20549
887.274	20294
887.399	20282
887.523	20248
887.648	20221
887.773	20187
887.897	20309
888.021	20271
888.146	20221
888.27	20324
888.395	20324
888.519	20259
888.643	20248
888.767	20393
888.891	20115
889.015	20062
889.139	20134
889.263	20088
889.387	20161
889.511	20206
889.635	20191
889.759	20020
889.883	20020
890.006	20077
890.13	20191
890.254	20050
890.377	20012
890.501	19841
890.624	19658
890.748	19883
890.871	19753
890.995	19685
891.118	19601
891.241	19700
891.364	19544
891.488	19818
891.611	19761
891.734	19670
891.857	19704
891.98	19609
892.103	19715
892.226	19594
892.349	19658
892.471	19491
892.594	19590
892.717	19578
892.839	19632
892.962	19605
893.085	19655
893.207	19670
893.33	19415
893.452	19487
893.575	19552
893.697	19499
893.819	19689
893.941	19715
894.064	19616
894.186	19480
894.308	19422
894.43	19616
894.552	19704
894.674	19662
894.796	19438
894.918	19483
895.04	19578
895.161	19712
895.283	19582
895.405	19521
895.526	19575
895.648	19635
895.769	19605
895.891	19575
896.012	19666
896.134	19609
896.255	19662
896.376	19582
896.498	19514
896.619	19559
896.74	19533
896.861	19655
896.982	19883
897.103	20062
897.224	19837
897.345	19898
897.466	19841
897.587	19856
897.708	19928
897.828	19868
897.949	19791
898.07	19643
898.19	19696
898.311	19776
898.431	19674
898.552	19776
898.672	19909
898.792	19864
898.913	19693
899.033	19746
899.153	19639
899.273	19518
899.393	19609
899.513	19586
899.633	19518
899.753	19468
899.873	19460
899.993	19613
900.113	19502
900.232	19518
900.352	19373
900.472	19388
900.591	19316
900.711	19377
900.83	19244
900.95	19392
901.069	19537
901.189	19190
901.308	19008
901.427	18913
901.546	18901
901.665	18985
901.784	18993
901.904	18757
902.023	18684
902.141	18544
902.26	18361
902.379	18589
902.498	18357
902.617	18338
902.735	18433
902.854	18376
902.973	18403
903.091	18083
903.21	18178
903.328	18136
903.446	18003
903.565	17939
903.683	17897
903.801	17805
903.919	17889
904.038	17897
904.156	17703
904.274	17707
904.392	17642
904.51	17676
904.627	17627
904.745	17707
904.863	17668
904.981	17478
905.098	17486
905.216	17353
905.334	17364
905.451	17421
905.569	17258
905.686	17398
905.803	17345
905.921	17185
906.038	17269
906.155	17208
906.272	17052
906.389	17048
906.506	16942
906.623	16965
906.74	16889
906.857	16843
906.974	16805
907.091	17045
907.208	17098
907.324	16987
907.441	16809
907.557	16664
907.674	16641
907.79	16626
907.907	16649
908.023	16577
908.139	16611
908.256	16592
908.372	16474
908.488	16607
908.604	16478
908.72	16291
908.836	16382
908.952	16394
909.068	16367
909.184	16485
909.3	16405
909.415	16382
909.531	16276
909.647	16124
909.762	16154
909.878	16090
909.993	16051
910.108	16097
910.224	16093
910.339	16082
910.454	16051
910.57	16006
910.685	15899
910.8	16177
910.915	16185
911.03	15911
911.145	15800
911.259	15564
911.374	15705
911.489	15652
911.604	15580
911.718	15469
911.833	15382
911.947	15428
912.062	15222
912.176	15443
912.291	15405
912.405	15340
912.519	15591
912.633	15599
912.748	15469
912.862	15370
912.976	15249
913.09	15161
913.204	15165
913.318	15332
913.431	15340
913.545	15291
913.659	15321
913.772	15207
913.886	15089
914	14994
914.113	15188
914.226	15142
914.34	15036
914.453	15009
914.566	15093
914.68	14990
914.793	14857
914.906	14781
915.019	14621
915.132	14632
915.245	14773
915.358	14781
915.47	14629
915.583	14625
915.696	14693
915.809	14819
915.921	14811
916.034	14686
916.146	14594
916.259	14583
916.371	14594
916.483	14552
916.595	14446
916.708	14495
916.82	14495
916.932	14499
917.044	14514
917.156	14351
917.268	14309
917.38	14370
917.491	14309
917.603	14362
917.715	14412
917.826	14484
917.938	14336
918.049	14187
918.161	14343
918.272	14374
918.384	14415
918.495	14351
918.606	14221
918.717	14012
918.828	14221
918.939	14172
919.05	14046
919.161	14145
919.272	13887
919.383	13959
919.494	14164
919.604	14385
919.715	14084
919.826	13959
919.936	14024
920.047	14077
920.157	14176
920.267	14305
920.378	14016
920.488	14092
920.598	14229
920.708	14313
920.818	14176
920.928	14142
921.038	14454
921.148	14351
921.258	14130
921.368	13887
921.477	13871
921.587	13769
921.697	13693
921.806	13845
921.916	13704
922.025	13575
922.134	13548
922.244	13422
922.353	13434
922.462	13419
922.571	13369
922.68	13187
922.789	13069
922.898	13118
923.007	13084
923.116	13156
923.224	13099
923.333	13065
923.442	12962
923.55	12958
923.659	13061
923.767	12977
923.876	12878
923.984	12966
924.092	12886
924.201	12924
924.309	12901
924.417	12886
924.525	12791
924.633	12856
924.741	13757
924.849	12585
924.956	12719
925.064	12582
925.172	12536
925.279	12547
925.387	12578
925.494	12601
925.602	12837
925.709	12650
925.816	12426
925.924	12506
926.031	12669
926.138	12589
926.245	12547
926.352	12448
926.459	12437
926.566	12589
926.673	12525
926.779	12346
926.886	12273
926.993	12228
927.099	12251
927.206	12213
927.312	12182
927.419	12232
927.525	12110
927.631	12243
927.737	12034
927.843	12026
927.95	11851
928.056	12019
928.162	12072
928.267	12114
928.373	12620
928.479	12060
928.585	11824
928.69	11980
928.796	11923
928.901	11790
929.007	11714
929.112	11882
929.218	11836
929.323	11707
929.428	11764
929.533	11832
929.638	11596
929.743	11646
929.848	11764
929.953	11684
930.058	11543
930.163	11406
930.267	11440
930.372	11581
930.477	11341
930.581	11558
930.685	11478
930.79	11318
930.894	11395
930.998	11326
931.103	11433
931.207	11113
931.311	11064
931.415	10995
931.519	10721
931.623	10736
