Data from test_V78500241_3390.txt Node
Date: Fri Mar 25 15:33:28 CST 2022
User: usil
Spectrometer: V785-0024
Trigger mode: 0
Integration Time (sec): 4.000000E-1
Scans to average: 1
Nonlinearity correction enabled: false
Boxcar width: 0
Storing dark spectrum: false
XAxis mode: Wavelengths
Number of Pixels in Spectrum: 1024
>>>>>Begin Spectral Data<<<<<
801.071	27214
801.214	27119
801.356	26952
801.499	27017
801.641	26727
801.783	26735
801.926	26895
802.068	26712
802.211	26716
802.353	26625
802.496	26339
802.638	26332
802.78	26393
802.923	26404
803.065	26267
803.208	26221
803.35	26343
803.492	26541
803.635	26640
803.777	26442
803.919	26541
804.061	26864
804.204	26640
804.346	26503
804.488	26381
804.63	26507
804.773	26412
804.915	26598
805.057	26689
805.199	26484
805.341	26613
805.483	26811
805.626	26579
805.768	26701
805.91	26708
806.052	26644
806.194	26526
806.336	26746
806.478	26682
806.62	26613
806.762	26720
806.904	26895
807.046	27173
807.188	27005
807.33	26910
807.472	27108
807.614	26998
807.756	26910
807.898	26849
808.04	26864
808.182	26754
808.324	26842
808.465	26925
808.607	27211
808.749	27207
808.891	27302
809.033	27233
809.174	27306
809.316	27142
809.458	27150
809.6	27203
809.741	27310
809.883	27367
810.025	27370
810.166	27629
810.308	27542
810.45	27272
810.591	27477
810.733	27142
810.875	27245
811.016	27066
811.158	27192
811.299	27283
811.441	27393
811.582	27256
811.724	27237
811.865	27169
812.007	27188
812.148	27123
812.29	27237
812.431	27408
812.573	27511
812.714	27599
812.855	27720
812.997	27663
813.138	27892
813.279	27819
813.421	27618
813.562	27599
813.703	27481
813.845	27355
813.986	27184
814.127	27055
814.268	26899
814.41	26891
814.551	26785
814.692	26887
814.833	26815
814.974	26857
815.115	26895
815.256	26739
815.397	26720
815.539	26720
815.68	26670
815.821	26594
815.962	26655
816.103	26552
816.244	26476
816.385	26362
816.526	26358
816.666	26161
816.807	26161
816.948	26153
817.089	26161
817.23	26046
817.371	26092
817.512	26202
817.653	26073
817.793	25883
817.934	26115
818.075	26202
818.216	26046
818.356	26084
818.497	25955
818.638	25913
818.778	25723
818.919	25849
819.06	25955
819.2	25936
819.341	26050
819.481	26077
819.622	26161
819.762	26476
819.903	26381
820.043	26271
820.184	26309
820.324	26115
820.465	26381
820.605	26271
820.746	26126
820.886	26081
821.026	26172
821.167	26084
821.307	26252
821.447	26043
821.588	26008
821.728	25879
821.868	25807
822.008	25681
822.149	25582
822.289	25670
822.429	25327
822.569	25320
822.709	25316
822.849	25057
822.99	25023
823.13	25103
823.27	24958
823.41	24859
823.55	24764
823.69	24962
823.83	24901
823.97	24814
824.11	24757
824.25	24783
824.389	24810
824.529	24779
824.669	24745
824.809	24719
824.949	24696
825.089	24783
825.228	24791
825.368	24513
825.508	24525
825.648	24475
825.787	24570
825.927	24505
826.067	24422
826.206	24631
826.346	24692
826.485	24620
826.625	24517
826.765	24646
826.904	24700
827.044	24433
827.183	24311
827.323	24308
827.462	24300
827.601	24388
827.741	24213
827.88	24270
828.02	24182
828.159	24292
828.298	24369
828.437	24353
828.577	24273
828.716	24353
828.855	24178
828.994	24007
829.134	24057
829.273	24022
829.412	23950
829.551	24030
829.69	23992
829.829	23897
829.968	24045
830.107	23931
830.246	24034
830.385	23931
830.524	23939
830.663	23786
830.802	23741
830.941	23748
831.08	23486
831.219	23775
831.357	23726
831.496	23931
831.635	23604
831.774	23570
831.913	23493
832.051	23528
832.19	23452
832.329	23433
832.467	23288
832.606	23311
832.744	23235
832.883	23311
833.022	23273
833.16	23235
833.299	23364
833.437	23258
833.576	23391
833.714	23398
833.852	23543
833.991	23436
834.129	23490
834.267	23486
834.406	23452
834.544	23353
834.682	23436
834.821	23387
834.959	23577
835.097	23425
835.235	23471
835.373	23315
835.511	23436
835.65	23162
835.788	23235
835.926	23105
836.064	22968
836.202	23022
836.34	23189
836.478	23307
836.615	23181
836.753	23200
836.891	23258
837.029	23277
837.167	23090
837.305	23060
837.443	23079
837.58	22949
837.718	23155
837.856	23162
837.993	23006
838.131	23143
838.269	22892
838.406	23018
838.544	22949
838.681	22725
838.819	22793
838.956	22557
839.094	22656
839.231	22481
839.369	22733
839.506	23006
839.643	22713
839.781	22615
839.918	22535
840.055	22413
840.193	22538
840.33	22428
840.467	22470
840.604	22599
840.742	22816
840.879	22329
841.016	22432
841.153	22356
841.29	22565
841.427	22542
841.564	22481
841.701	22409
841.838	22386
841.975	22459
842.112	22367
842.249	22325
842.385	22249
842.522	22493
842.659	22360
842.796	22325
842.933	22181
843.069	22211
843.206	22154
843.343	22295
843.479	22234
843.616	22158
843.752	22048
843.889	22131
844.025	22169
844.162	22040
844.298	22124
844.435	21987
844.571	21979
844.708	22029
844.844	22101
844.98	22200
845.117	22200
845.253	21819
845.389	21850
845.525	21861
845.661	21816
845.798	21732
845.934	21816
846.07	21648
846.206	21816
846.342	21895
846.478	21876
846.614	21572
846.75	21595
846.886	21564
847.022	21656
847.158	21553
847.294	21450
847.429	21477
847.565	21519
847.701	21785
847.837	21321
847.972	21154
848.108	21317
848.244	21294
848.379	21131
848.515	21047
848.65	21062
848.786	21222
848.921	21138
849.057	21154
849.192	21154
849.328	21039
849.463	21169
849.598	21112
849.734	21001
849.869	20994
850.004	20895
850.14	20986
850.275	20830
850.41	20853
850.545	20944
850.68	20712
850.815	20811
850.95	20739
851.085	20975
851.22	20998
851.355	20826
851.49	20845
851.625	20857
851.76	20800
851.895	20834
852.03	20731
852.165	20971
852.299	20956
852.434	20830
852.569	20838
852.703	20823
852.838	20880
852.973	21005
853.107	20990
853.242	20872
853.376	20762
853.511	20583
853.645	20621
853.78	20842
853.914	20674
854.048	20590
854.183	20750
854.317	20758
854.451	20838
854.585	20724
854.72	20674
854.854	20617
854.988	20712
855.122	20632
855.256	20526
855.39	20644
855.524	20754
855.658	20834
855.792	20765
855.926	20785
856.06	20625
856.194	20727
856.327	20674
856.461	20541
856.595	20598
856.729	20640
856.862	20842
856.996	20785
857.13	20743
857.263	20826
857.397	20902
857.53	20720
857.664	20750
857.797	20731
857.931	20804
858.064	20693
858.197	20796
858.331	20716
858.464	20720
858.597	20575
858.731	20621
858.864	20629
858.997	20655
859.13	20670
859.263	20705
859.396	20773
859.529	20735
859.662	20674
859.795	20655
859.928	20632
860.061	20819
860.194	20948
860.327	20682
860.46	20765
860.592	20765
860.725	20838
860.858	20960
860.99	20640
861.123	20667
861.256	20609
861.388	20777
861.521	21332
861.653	20602
861.786	20537
861.918	20598
862.05	20644
862.183	20701
862.315	20788
862.447	20880
862.58	20727
862.712	20431
862.844	20282
862.976	20492
863.108	20499
863.24	20807
863.372	20271
863.504	20355
863.636	20339
863.768	20457
863.9	20377
864.032	20355
864.164	20454
864.296	20446
864.428	20587
864.559	20473
864.691	20503
864.823	20389
864.954	20290
865.086	20473
865.217	20286
865.349	20259
865.48	20404
865.612	20278
865.743	20621
865.875	20366
866.006	20248
866.137	20396
866.269	20290
866.4	20278
866.531	20180
866.662	20221
866.793	20320
866.924	20328
867.055	20298
867.186	20336
867.317	20191
867.448	20229
867.579	20122
867.71	20214
867.841	20119
867.972	20377
868.103	20218
868.233	20229
868.364	20339
868.495	20324
868.625	20488
868.756	20568
868.886	20320
869.017	20454
869.147	20686
869.278	20556
869.408	20575
869.539	20511
869.669	20602
869.799	20495
869.929	20708
870.06	20583
870.19	20853
870.32	20739
870.45	20925
870.58	20811
870.71	20979
870.84	20994
870.97	20941
871.1	20823
871.23	20990
871.36	21036
871.489	21036
871.619	21039
871.749	21142
871.879	21036
872.008	21245
872.138	21055
872.267	21032
872.397	21062
872.526	20849
872.656	20921
872.785	20876
872.915	21093
873.044	21249
873.173	21138
873.303	21150
873.432	21230
873.561	21218
873.69	21119
873.819	21157
873.948	21207
874.077	21047
874.206	21047
874.335	21089
874.464	21332
874.593	21382
874.722	21237
874.851	21272
874.979	21420
875.108	21435
875.237	21408
875.365	21294
875.494	21233
875.623	21542
875.751	21443
875.88	21359
876.008	21477
876.136	21671
876.265	21755
876.393	21895
876.521	21873
876.65	21884
876.778	21675
876.906	21667
877.034	21747
877.162	21759
877.29	21755
877.418	21743
877.546	21694
877.674	21698
877.802	21641
877.93	21747
878.058	21599
878.185	21663
878.313	21652
878.441	21755
878.568	21561
878.696	21667
878.824	21793
878.951	21850
879.079	21861
879.206	21926
879.333	21812
879.461	21656
879.588	21793
879.715	21846
879.842	21972
879.97	21892
880.097	21538
880.224	21663
880.351	21614
880.478	21526
880.605	21523
880.732	21466
880.859	21789
880.986	21496
881.112	21679
881.239	21443
881.366	21268
881.493	21226
881.619	21047
881.746	21039
881.872	21230
881.999	21047
882.125	21051
882.252	21028
882.378	21165
882.505	21211
882.631	20982
882.757	20941
882.883	20883
883.01	20815
883.136	20838
883.262	20701
883.388	20655
883.514	20910
883.64	20830
883.766	20739
883.892	20503
884.018	20727
884.143	20632
884.269	20731
884.395	20537
884.52	20434
884.646	20446
884.772	20351
884.897	20339
885.023	20495
885.148	20503
885.274	20621
885.399	20457
885.524	20503
885.65	20511
885.775	20514
885.9	20351
886.025	20552
886.15	20514
886.275	20492
886.4	20294
886.525	20404
886.65	20404
886.775	20385
886.9	20590
887.025	20762
887.149	20434
887.274	20313
887.399	20214
887.523	20351
887.648	20244
887.773	20088
887.897	20328
888.021	20252
888.146	20183
888.27	20294
888.395	20290
888.519	20347
888.643	20336
888.767	20358
888.891	20149
889.015	19925
889.139	20248
889.263	20084
889.387	20168
889.511	20214
889.635	20214
889.759	20039
889.883	20100
890.006	20050
890.13	20237
890.254	19925
890.377	20210
890.501	19742
890.624	19909
890.748	19871
890.871	19795
890.995	19548
891.118	19438
891.241	19597
891.364	19681
891.488	19841
891.611	19731
891.734	19674
891.857	19906
891.98	19719
892.103	19685
892.226	19712
892.349	19666
892.471	19476
892.594	19434
892.717	19616
892.839	19510
892.962	19628
893.085	19746
893.207	19624
893.33	19487
893.452	19525
893.575	19696
893.697	19586
893.819	19712
893.941	19875
894.064	19727
894.186	19567
894.308	19552
894.43	19628
894.552	19674
894.674	19632
894.796	19567
894.918	19628
895.04	19628
895.161	19662
895.283	19586
895.405	19480
895.526	19655
895.648	19575
895.769	19605
895.891	19609
896.012	19750
896.134	19559
896.255	19670
896.376	19590
896.498	19537
896.619	19537
896.74	19662
896.861	19548
896.982	19890
897.103	20100
897.224	19776
897.345	19814
897.466	19689
897.587	19902
897.708	19970
897.828	19837
897.949	19776
898.07	19655
898.19	19788
898.311	19890
898.431	19814
898.552	19795
898.672	19909
898.792	19871
898.913	19833
899.033	19731
899.153	19590
899.273	19548
899.393	19552
899.513	19689
899.633	19651
899.753	19731
899.873	19605
899.993	19605
900.113	19441
900.232	19613
900.352	19567
900.472	19400
900.591	19316
900.711	19419
900.83	19324
900.95	19400
901.069	19449
901.189	19297
901.308	19046
901.427	18943
901.546	18954
901.665	19023
901.784	18977
901.904	18768
902.023	18703
902.141	18494
902.26	18502
902.379	18525
902.498	18532
902.617	18509
902.735	18475
902.854	18441
902.973	18315
903.091	18117
903.21	18159
903.328	18186
903.446	18079
903.565	17977
903.683	17992
903.801	17920
903.919	17847
904.038	17977
904.156	17687
904.274	17832
904.392	17729
904.51	17695
904.627	17687
904.745	17737
904.863	17767
904.981	17467
905.098	17387
905.216	17376
905.334	17429
905.451	17383
905.569	17315
905.686	17558
905.803	17372
905.921	17189
906.038	17216
906.155	17239
906.272	17132
906.389	17010
906.506	16965
906.623	16976
906.74	16938
906.857	16805
906.974	16790
907.091	17010
907.208	17071
907.324	16995
907.441	16850
907.557	16752
907.674	16725
907.79	16599
907.907	16706
908.023	16717
908.139	16615
908.256	16691
908.372	16653
908.488	16516
908.604	16440
908.72	16390
908.836	16462
908.952	16348
909.068	16402
909.184	16481
909.3	16329
909.415	16432
909.531	16386
909.647	16173
909.762	16074
909.878	16116
909.993	16128
910.108	16071
910.224	16078
910.339	16010
910.454	15922
910.57	15937
910.685	15911
910.8	16135
910.915	16051
911.03	15934
911.145	15797
911.259	15709
911.374	15778
911.489	15652
911.604	15599
911.718	15462
911.833	15454
911.947	15344
912.062	15355
912.176	15534
912.291	15462
912.405	15389
912.519	15652
912.633	15637
912.748	15557
912.862	15420
912.976	15317
913.09	15199
913.204	15268
913.318	15287
913.431	15370
913.545	15428
913.659	15405
913.772	15275
913.886	14994
914	15055
914.113	15245
914.226	15199
914.34	15146
914.453	15001
914.566	15116
914.68	15055
914.793	15020
914.906	14739
915.019	14644
915.132	14602
915.245	14720
915.358	14781
915.47	14686
915.583	14735
915.696	14708
915.809	14750
915.921	14834
916.034	14659
916.146	14610
916.259	14629
916.371	14575
916.483	14621
916.595	14621
916.708	14522
916.82	14629
916.932	14438
917.044	14446
917.156	14514
917.268	14400
917.38	14370
917.491	14385
917.603	14286
917.715	14366
917.826	14492
917.938	14210
918.049	14286
918.161	14233
918.272	14358
918.384	14503
918.495	14343
918.606	14199
918.717	14039
918.828	14123
918.939	14088
919.05	14073
919.161	14100
919.272	13883
919.383	14161
919.494	14191
919.604	14313
919.715	14176
919.826	13993
919.936	14100
920.047	14229
920.157	14134
920.267	14313
920.378	14119
920.488	14069
920.598	14271
920.708	14476
920.818	14240
920.928	14191
921.038	14541
921.148	14339
921.258	14115
921.368	13967
921.477	13871
921.587	13875
921.697	13674
921.806	13868
921.916	13795
922.025	13521
922.134	13472
922.244	13533
922.353	13597
922.462	13415
922.571	13331
922.68	13183
922.789	13164
922.898	13190
923.007	13126
923.116	13206
923.224	13156
923.333	13198
923.442	13000
923.55	12996
923.659	13012
923.767	13099
923.876	12943
923.984	12993
924.092	12932
924.201	12913
924.309	12882
924.417	13053
924.525	12783
924.633	12810
924.741	13742
924.849	12684
924.956	12825
925.064	12574
925.172	12521
925.279	12597
925.387	12566
925.494	12578
925.602	12715
925.709	12578
925.816	12517
925.924	12486
926.031	12547
926.138	12525
926.245	12604
926.352	12448
926.459	12563
926.566	12563
926.673	12433
926.779	12361
926.886	12384
926.993	12197
927.099	12095
927.206	12155
927.312	12079
927.419	12216
927.525	12224
927.631	12167
927.737	12068
927.843	12068
927.95	11950
928.056	12026
928.162	11999
928.267	12041
928.373	12566
928.479	12034
928.585	11885
928.69	11996
928.796	11958
928.901	11897
929.007	11718
929.112	11904
929.218	11771
929.323	11817
929.428	11737
929.533	11832
929.638	11608
929.743	11703
929.848	11767
929.953	11570
930.058	11638
930.163	11398
930.267	11349
930.372	11516
930.477	11326
930.581	11627
930.685	11440
930.79	11307
930.894	11315
930.998	11299
931.103	11387
931.207	11075
931.311	10957
931.415	10915
931.519	10721
931.623	10755
