Data from test_V78500241_1314.txt Node
Date: Fri Mar 25 15:19:00 CST 2022
User: usil
Spectrometer: V785-0024
Trigger mode: 0
Integration Time (sec): 4.000000E-1
Scans to average: 1
Nonlinearity correction enabled: false
Boxcar width: 0
Storing dark spectrum: false
XAxis mode: Wavelengths
Number of Pixels in Spectrum: 1024
>>>>>Begin Spectral Data<<<<<
801.071	28021
801.214	27918
801.356	27743
801.499	27641
801.641	27523
801.783	27462
801.926	27709
802.068	27420
802.211	27439
802.353	27473
802.496	27420
802.638	27176
802.78	27218
802.923	27192
803.065	27070
803.208	27123
803.35	27218
803.492	27359
803.635	27344
803.777	27275
803.919	27374
804.061	27686
804.204	27336
804.346	27237
804.488	27344
804.63	27336
804.773	27325
804.915	27367
805.057	27595
805.199	27363
805.341	27370
805.483	27728
805.626	27439
805.768	27500
805.91	27492
806.052	27523
806.194	27526
806.336	27717
806.478	27572
806.62	27481
806.762	27507
806.904	27732
807.046	28032
807.188	27937
807.33	27831
807.472	27991
807.614	27884
807.756	27960
807.898	27937
808.04	27797
808.182	27743
808.324	27804
808.465	27861
808.607	28128
808.749	28230
808.891	28284
809.033	28386
809.174	28207
809.316	28173
809.458	28150
809.6	28090
809.741	28131
809.883	28314
810.025	28481
810.166	28512
810.308	28455
810.45	28508
810.591	28428
810.733	28246
810.875	28177
811.016	28162
811.158	28025
811.299	28310
811.441	28268
811.582	28360
811.724	28257
811.865	28082
812.007	28082
812.148	28120
812.29	28249
812.431	28291
812.573	28440
812.714	28546
812.855	28771
812.997	28896
813.138	28892
813.279	28725
813.421	28702
813.562	28679
813.703	28542
813.845	28333
813.986	28154
814.127	27987
814.268	27930
814.41	27934
814.551	27808
814.692	27911
814.833	27705
814.974	27842
815.115	27945
815.256	27743
815.397	27778
815.539	27633
815.68	27625
815.821	27591
815.962	27842
816.103	27717
816.244	27633
816.385	27492
816.526	27412
816.666	27279
816.807	27279
816.948	27279
817.089	27393
817.23	27184
817.371	27195
817.512	27157
817.653	27188
817.793	27089
817.934	27245
818.075	27135
818.216	27211
818.356	27146
818.497	27104
818.638	26830
818.778	26823
818.919	27028
819.06	27009
819.2	26899
819.341	27093
819.481	27184
819.622	27405
819.762	27424
819.903	27389
820.043	27264
820.184	27291
820.324	27214
820.465	27386
820.605	27294
820.746	27192
820.886	27100
821.026	27116
821.167	27169
821.307	27173
821.447	27081
821.588	27055
821.728	27081
821.868	26750
822.008	26640
822.149	26598
822.289	26636
822.429	26488
822.569	26290
822.709	26351
822.849	26100
822.99	26100
823.13	26134
823.27	26122
823.41	25845
823.55	25871
823.69	25966
823.83	26138
823.97	25894
824.11	25696
824.25	25620
824.389	25879
824.529	25932
824.669	25917
824.809	25871
824.949	25871
825.089	25761
825.228	25944
825.368	25674
825.508	25814
825.648	25715
825.787	25788
825.927	25689
826.067	25575
826.206	25620
826.346	25696
826.485	25761
826.625	25693
826.765	25761
826.904	25651
827.044	25381
827.183	25419
827.323	25339
827.462	25411
827.601	25468
827.741	25381
827.88	25605
828.02	25259
828.159	25373
828.298	25460
828.437	25525
828.577	25247
828.716	25479
828.855	25358
828.994	25129
829.134	25107
829.273	25171
829.412	25084
829.551	25015
829.69	25084
829.829	25118
829.968	25114
830.107	25171
830.246	25072
830.385	25008
830.524	25034
830.663	24886
830.802	24859
830.941	24745
831.08	24692
831.219	24810
831.357	24776
831.496	24848
831.635	24715
831.774	24620
831.913	24608
832.051	24437
832.19	24505
832.329	24505
832.467	24486
832.606	24209
832.744	24395
832.883	24346
833.022	24285
833.16	24388
833.299	24441
833.437	24384
833.576	24532
833.714	24658
833.852	24391
833.991	24502
834.129	24502
834.267	24395
834.406	24395
834.544	24502
834.682	24426
834.821	24403
834.959	24582
835.097	24369
835.235	24509
835.373	24273
835.511	24414
835.65	24213
835.788	24399
835.926	24163
836.064	24136
836.202	24018
836.34	24342
836.478	24315
836.615	24144
836.753	24125
836.891	24296
837.029	24209
837.167	24167
837.305	24178
837.443	24186
837.58	24087
837.718	24148
837.856	23992
837.993	24049
838.131	24110
838.269	23965
838.406	24110
838.544	23999
838.681	23832
838.819	23783
838.956	23634
839.094	23691
839.231	23611
839.369	23779
839.506	23923
839.643	23748
839.781	23554
839.918	23493
840.055	23585
840.193	23528
840.33	23444
840.467	23482
840.604	23531
840.742	23767
840.879	23398
841.016	23379
841.153	23410
841.29	23554
841.427	23364
841.564	23417
841.701	23452
841.838	23398
841.975	23436
842.112	23341
842.249	23208
842.385	23231
842.522	23360
842.659	23292
842.796	23086
842.933	23216
843.069	23056
843.206	23159
843.343	23353
843.479	23197
843.616	23284
843.752	23083
843.889	23079
844.025	23178
844.162	23006
844.298	23071
844.435	22987
844.571	22900
844.708	23006
844.844	23113
844.98	23033
845.117	23132
845.253	22984
845.389	22927
845.525	22869
845.661	22900
845.798	22733
845.934	22862
846.07	22862
846.206	22763
846.342	22862
846.478	22645
846.614	22531
846.75	22428
846.886	22413
847.022	22531
847.158	22523
847.294	22542
847.429	22531
847.565	22504
847.701	22752
847.837	22150
847.972	22246
848.108	22303
848.244	22242
848.379	22032
848.515	22044
848.65	22074
848.786	22120
848.921	22029
849.057	22276
849.192	22147
849.328	22090
849.463	22158
849.598	21994
849.734	21907
849.869	21789
850.004	21770
850.14	21846
850.275	21861
850.41	21869
850.545	21724
850.68	21888
850.815	21781
850.95	21789
851.085	22029
851.22	21956
851.355	21785
851.49	21789
851.625	21720
851.76	21717
851.895	21713
852.03	21766
852.165	21876
852.299	21751
852.434	21956
852.569	21865
852.703	21808
852.838	21899
852.973	22017
853.107	21785
853.242	21827
853.376	21709
853.511	21587
853.645	21557
853.78	21755
853.914	21587
854.048	21656
854.183	21641
854.317	21648
854.451	21827
854.585	21568
854.72	21618
854.854	21713
854.988	21393
855.122	21751
855.256	21519
855.39	21534
855.524	21667
855.658	21644
855.792	21709
855.926	21717
856.06	21599
856.194	21663
856.327	21663
856.461	21652
856.595	21587
856.729	21705
856.862	21644
856.996	21595
857.13	21739
857.263	21823
857.397	21755
857.53	21614
857.664	21698
857.797	21644
857.931	21797
858.064	21618
858.197	21778
858.331	21625
858.464	21603
858.597	21568
858.731	21587
858.864	21648
858.997	21682
859.13	21717
859.263	21603
859.396	21724
859.529	21625
859.662	21641
859.795	21568
859.928	21633
860.061	21785
860.194	21762
860.327	21679
860.46	21576
860.592	21705
860.725	21838
860.858	21736
860.99	21656
861.123	21671
861.256	21538
861.388	21629
861.521	22310
861.653	21454
861.786	21568
861.918	21542
862.05	21477
862.183	21622
862.315	21504
862.447	21709
862.58	21473
862.712	21332
862.844	21294
862.976	21329
863.108	21310
863.24	21736
863.372	21268
863.504	21374
863.636	21325
863.768	21275
863.9	21389
864.032	21325
864.164	21405
864.296	21306
864.428	21424
864.559	21443
864.691	21424
864.823	21397
864.954	21443
865.086	21344
865.217	21184
865.349	21188
865.48	21131
865.612	21283
865.743	21294
865.875	21298
866.006	21192
866.137	21279
866.269	21154
866.4	21161
866.531	21104
866.662	21100
866.793	21074
866.924	21104
867.055	21214
867.186	21272
867.317	21074
867.448	21062
867.579	21176
867.71	21096
867.841	21089
867.972	21169
868.103	21093
868.233	21195
868.364	21173
868.495	21348
868.625	21416
868.756	21572
868.886	21386
869.017	21466
869.147	21603
869.278	21545
869.408	21370
869.539	21416
869.669	21614
869.799	21515
869.929	21477
870.06	21587
870.19	21751
870.32	21686
870.45	21644
870.58	21808
870.71	21930
870.84	21880
870.97	21641
871.1	21713
871.23	21945
871.36	21979
871.489	21892
871.619	21915
871.749	21911
871.879	21968
872.008	22185
872.138	21968
872.267	21998
872.397	21842
872.526	21804
872.656	21835
872.785	21854
872.915	22128
873.044	22128
873.173	21960
873.303	22112
873.432	22109
873.561	22040
873.69	22078
873.819	22074
873.948	22051
874.077	22051
874.206	22029
874.335	21998
874.464	22169
874.593	22230
874.722	22185
874.851	22314
874.979	22234
875.108	22344
875.237	22219
875.365	22063
875.494	22287
875.623	22333
875.751	22299
875.88	22150
876.008	22478
876.136	22432
876.265	22626
876.393	22740
876.521	22717
876.65	22569
876.778	22702
876.906	22504
877.034	22557
877.162	22672
877.29	22607
877.418	22675
877.546	22592
877.674	22580
877.802	22649
877.93	22504
878.058	22493
878.185	22436
878.313	22611
878.441	22508
878.568	22470
878.696	22489
878.824	22592
878.951	22615
879.079	22755
879.206	22710
879.333	22679
879.461	22634
879.588	22820
879.715	22698
879.842	22782
879.97	22626
880.097	22360
880.224	22527
880.351	22306
880.478	22508
880.605	22318
880.732	22386
880.859	22535
880.986	22367
881.112	22485
881.239	22276
881.366	22158
881.493	22013
881.619	21880
881.746	22128
881.872	21838
881.999	21937
882.125	21941
882.252	21998
882.378	21937
882.505	22074
882.631	21945
882.757	21781
882.883	21739
883.01	21701
883.136	21599
883.262	21572
883.388	21568
883.514	21732
883.64	21652
883.766	21583
883.892	21477
884.018	21519
884.143	21542
884.269	21671
884.395	21378
884.52	21393
884.646	21226
884.772	21207
884.897	21173
885.023	21367
885.148	21408
885.274	21348
885.399	21378
885.524	21321
885.65	21275
885.775	21389
885.9	21424
886.025	21412
886.15	21370
886.275	21245
886.4	21192
886.525	21226
886.65	21256
886.775	21222
886.9	21431
887.025	21511
887.149	21226
887.274	21058
887.399	21173
887.523	21108
887.648	20921
887.773	20982
887.897	21028
888.021	21142
888.146	21020
888.27	21199
888.395	21036
888.519	21245
888.643	21211
888.767	21176
888.891	20948
889.015	20899
889.139	20826
889.263	20941
889.387	21039
889.511	20975
889.635	20948
889.759	20838
889.883	20979
890.006	20914
890.13	20990
890.254	20937
890.377	20811
890.501	20560
890.624	20571
890.748	20773
890.871	20564
890.995	20457
891.118	20480
891.241	20545
891.364	20488
891.488	20503
891.611	20499
891.734	20507
891.857	20552
891.98	20526
892.103	20590
892.226	20412
892.349	20389
892.471	20313
892.594	20347
892.717	20461
892.839	20286
892.962	20465
893.085	20457
893.207	20415
893.33	20278
893.452	20214
893.575	20450
893.697	20294
893.819	20473
893.941	20457
894.064	20571
894.186	20305
894.308	20263
894.43	20480
894.552	20454
894.674	20385
894.796	20294
894.918	20248
895.04	20332
895.161	20358
895.283	20396
895.405	20351
895.526	20446
895.648	20309
895.769	20469
895.891	20381
896.012	20412
896.134	20237
896.255	20332
896.376	20298
896.498	20336
896.619	20343
896.74	20317
896.861	20404
896.982	20727
897.103	20724
897.224	20644
897.345	20651
897.466	20541
897.587	20461
897.708	20708
897.828	20678
897.949	20518
898.07	20476
898.19	20560
898.311	20571
898.431	20457
898.552	20617
898.672	20629
898.792	20655
898.913	20579
899.033	20389
899.153	20427
899.273	20282
899.393	20252
899.513	20495
899.633	20309
899.753	20328
899.873	20195
899.993	20259
900.113	20229
900.232	20324
900.352	20225
900.472	20176
900.591	20062
900.711	20153
900.83	20050
900.95	20107
901.069	20237
901.189	20008
901.308	19750
901.427	19658
901.546	19639
901.665	19769
901.784	19677
901.904	19586
902.023	19445
902.141	19206
902.26	19274
902.379	19206
902.498	19194
902.617	19069
902.735	19183
902.854	19088
902.973	19114
903.091	18905
903.21	18875
903.328	18947
903.446	18757
903.565	18650
903.683	18715
903.801	18597
903.919	18677
904.038	18692
904.156	18433
904.274	18506
904.392	18517
904.51	18407
904.627	18467
904.745	18422
904.863	18399
904.981	18327
905.098	18178
905.216	18117
905.334	18144
905.451	18091
905.569	18019
905.686	18163
905.803	18144
905.921	17783
906.038	17950
906.155	17885
906.272	17809
906.389	17733
906.506	17718
906.623	17691
906.74	17619
906.857	17402
906.974	17589
907.091	17699
907.208	17691
907.324	17661
907.441	17474
907.557	17383
907.674	17406
907.79	17288
907.907	17246
908.023	17254
908.139	17254
908.256	17322
908.372	17303
908.488	17193
908.604	17098
908.72	17151
908.836	17132
908.952	17052
909.068	17048
909.184	17212
909.3	17029
909.415	17121
909.531	17033
909.647	16763
909.762	16740
909.878	16744
909.993	16748
910.108	16706
910.224	16721
910.339	16786
910.454	16599
910.57	16637
910.685	16535
910.8	16755
910.915	16691
911.03	16599
911.145	16485
911.259	16405
911.374	16375
911.489	16204
911.604	16185
911.718	16051
911.833	16048
911.947	15941
912.062	15857
912.176	16078
912.291	16025
912.405	16097
912.519	16306
912.633	16185
912.748	16181
912.862	15987
912.976	15941
913.09	15804
913.204	15880
913.318	15979
913.431	15972
913.545	15934
913.659	16002
913.772	15854
913.886	15823
914	15663
914.113	15793
914.226	15808
914.34	15770
914.453	15610
914.566	15701
914.68	15610
914.793	15428
914.906	15424
915.019	15321
915.132	15218
915.245	15272
915.358	15241
915.47	15336
915.583	15306
915.696	15329
915.809	15412
915.921	15473
916.034	15291
916.146	15230
916.259	15264
916.371	15272
916.483	15291
916.595	15165
916.708	15184
916.82	15169
916.932	15074
917.044	14986
917.156	15043
917.268	14967
917.38	14952
917.491	14880
917.603	14918
917.715	15039
917.826	15047
917.938	14853
918.049	14739
918.161	14979
918.272	14971
918.384	14998
918.495	14792
918.606	14701
918.717	14701
918.828	14750
918.939	14678
919.05	14701
919.161	14739
919.272	14568
919.383	14518
919.494	14651
919.604	14845
919.715	14720
919.826	14629
919.936	14625
920.047	14731
920.157	14674
920.267	14788
920.378	14701
920.488	14575
920.598	14868
920.708	14941
920.818	14819
920.928	14800
921.038	14921
921.148	14880
921.258	14594
921.368	14564
921.477	14454
921.587	14415
921.697	14244
921.806	14389
921.916	14366
922.025	14084
922.134	13921
922.244	14012
922.353	14081
922.462	13890
922.571	13772
922.68	13666
922.789	13670
922.898	13689
923.007	13674
923.116	13662
923.224	13685
923.333	13681
923.442	13518
923.55	13457
923.659	13518
923.767	13578
923.876	13297
923.984	13540
924.092	13403
924.201	13453
924.309	13415
924.417	13457
924.525	13362
924.633	13453
924.741	14290
924.849	13156
924.956	13206
925.064	13175
925.172	13012
925.279	13027
925.387	13118
925.494	13099
925.602	13266
925.709	13168
925.816	12939
925.924	13114
926.031	13031
926.138	12996
926.245	13076
926.352	12985
926.459	12985
926.566	13122
926.673	12970
926.779	12821
926.886	12810
926.993	12806
927.099	12608
927.206	12612
927.312	12517
927.419	12692
927.525	12654
927.631	12589
927.737	12547
927.843	12532
927.95	12323
928.056	12384
928.162	12563
928.267	12464
928.373	13095
928.479	12475
928.585	12311
928.69	12384
928.796	12433
928.901	12323
929.007	12251
929.112	12365
929.218	12334
929.323	12243
929.428	12258
929.533	12289
929.638	12083
929.743	12136
929.848	12175
929.953	12064
930.058	11996
930.163	11802
930.267	11885
930.372	12011
930.477	11927
930.581	12026
930.685	11950
930.79	11703
930.894	11783
930.998	11676
931.103	11836
931.207	11505
931.311	11528
931.415	11433
931.519	11212
931.623	11064
