Data from test_V78500241_2762.txt Node
Date: Fri Mar 25 15:29:05 CST 2022
User: usil
Spectrometer: V785-0024
Trigger mode: 0
Integration Time (sec): 4.000000E-1
Scans to average: 1
Nonlinearity correction enabled: false
Boxcar width: 0
Storing dark spectrum: false
XAxis mode: Wavelengths
Number of Pixels in Spectrum: 1024
>>>>>Begin Spectral Data<<<<<
801.071	27009
801.214	27020
801.356	26712
801.499	26560
801.641	26530
801.783	26568
801.926	26556
802.068	26602
802.211	26549
802.353	26408
802.496	26271
802.638	26396
802.78	26077
802.923	26077
803.065	26096
803.208	26164
803.35	26195
803.492	26320
803.635	26317
803.777	26126
803.919	26324
804.061	26754
804.204	26408
804.346	26195
804.488	26256
804.63	26332
804.773	26263
804.915	26240
805.057	26381
805.199	26381
805.341	26526
805.483	26507
805.626	26381
805.768	26282
805.91	26412
806.052	26339
806.194	26347
806.336	26648
806.478	26423
806.62	26442
806.762	26602
806.904	26655
807.046	26967
807.188	26883
807.33	26918
807.472	26982
807.614	26857
807.756	26815
807.898	26655
808.04	26640
808.182	26571
808.324	26648
808.465	26708
808.607	26781
808.749	27055
808.891	26982
809.033	27321
809.174	27112
809.316	27009
809.458	27062
809.6	26960
809.741	26921
809.883	27074
810.025	27241
810.166	27321
810.308	27233
810.45	27252
810.591	27291
810.733	27077
810.875	26952
811.016	26963
811.158	26834
811.299	27245
811.441	27093
811.582	27233
811.724	27058
811.865	26921
812.007	26925
812.148	26971
812.29	27112
812.431	27199
812.573	27268
812.714	27355
812.855	27370
812.997	27545
813.138	27709
813.279	27660
813.421	27412
813.562	27317
813.703	27363
813.845	27249
813.986	26876
814.127	26823
814.268	26727
814.41	26625
814.551	26613
814.692	26727
814.833	26693
814.974	26552
815.115	26613
815.256	26587
815.397	26484
815.539	26457
815.68	26396
815.821	26339
815.962	26446
816.103	26465
816.244	26381
816.385	26134
816.526	25993
816.666	25986
816.807	25925
816.948	25936
817.089	25955
817.23	25955
817.371	25966
817.512	25947
817.653	25963
817.793	25830
817.934	25864
818.075	25784
818.216	25852
818.356	25902
818.497	25734
818.638	25685
818.778	25742
818.919	25693
819.06	25685
819.2	25822
819.341	25978
819.481	25841
819.622	26035
819.762	26286
819.903	26149
820.043	26130
820.184	25966
820.324	25951
820.465	26065
820.605	26096
820.746	25966
820.886	25860
821.026	25902
821.167	26016
821.307	26107
821.447	25830
821.588	25860
821.728	25727
821.868	25537
822.008	25362
822.149	25358
822.289	25369
822.429	25072
822.569	25133
822.709	25084
822.849	24901
822.99	24810
823.13	24829
823.27	24814
823.41	24703
823.55	24707
823.69	24650
823.83	24741
823.97	24631
824.11	24509
824.25	24441
824.389	24388
824.529	24483
824.669	24563
824.809	24544
824.949	24540
825.089	24563
825.228	24460
825.368	24235
825.508	24270
825.648	24403
825.787	24407
825.927	24395
826.067	24338
826.206	24467
826.346	24350
826.485	24308
826.625	24414
826.765	24494
826.904	24350
827.044	24110
827.183	24133
827.323	24022
827.462	24106
827.601	23988
827.741	24110
827.88	23965
828.02	23889
828.159	24015
828.298	24015
828.437	23958
828.577	23958
828.716	24178
828.855	24030
828.994	23752
829.134	23684
829.273	23813
829.412	23756
829.551	23680
829.69	23703
829.829	23817
829.968	23931
830.107	23794
830.246	23855
830.385	23627
830.524	23638
830.663	23668
830.802	23604
830.941	23398
831.08	23410
831.219	23349
831.357	23524
831.496	23608
831.635	23372
831.774	23235
831.913	23216
832.051	23200
832.19	23200
832.329	23200
832.467	23159
832.606	22953
832.744	23064
832.883	23094
833.022	23048
833.16	23048
833.299	23090
833.437	23006
833.576	23105
833.714	23113
833.852	23159
833.991	23143
834.129	23117
834.267	23250
834.406	23189
834.544	23220
834.682	23075
834.821	23086
834.959	23337
835.097	23117
835.235	23181
835.373	23159
835.511	23098
835.65	22987
835.788	23117
835.926	22801
836.064	22660
836.202	22839
836.34	23029
836.478	23143
836.615	22896
836.753	22908
836.891	23086
837.029	23029
837.167	22904
837.305	22904
837.443	22828
837.58	22790
837.718	22873
837.856	22919
837.993	22782
838.131	22691
838.269	22615
838.406	22577
838.544	22729
838.681	22474
838.819	22428
838.956	22428
839.094	22181
839.231	22215
839.369	22523
839.506	22664
839.643	22599
839.781	22207
839.918	22192
840.055	22287
840.193	22318
840.33	22200
840.467	22177
840.604	22219
840.742	22645
840.879	22074
841.016	22177
841.153	22059
841.29	22318
841.427	22261
841.564	22158
841.701	22204
841.838	22162
841.975	22074
842.112	22166
842.249	22166
842.385	21968
842.522	22204
842.659	22017
842.796	21941
842.933	22006
843.069	22002
843.206	21964
843.343	22086
843.479	21979
843.616	21953
843.752	21793
843.889	21724
844.025	21899
844.162	21736
844.298	21835
844.435	21789
844.571	21660
844.708	21759
844.844	21854
844.98	21797
845.117	21789
845.253	21736
845.389	21610
845.525	21526
845.661	21682
845.798	21424
845.934	21644
846.07	21428
846.206	21443
846.342	21591
846.478	21500
846.614	21313
846.75	21192
846.886	21340
847.022	21329
847.158	21279
847.294	21279
847.429	21245
847.565	21169
847.701	21561
847.837	20994
847.972	20982
848.108	21104
848.244	21043
848.379	20883
848.515	20804
848.65	20788
848.786	20872
848.921	20941
849.057	20952
849.192	20872
849.328	20849
849.463	20834
849.598	20826
849.734	20777
849.869	20667
850.004	20701
850.14	20663
850.275	20575
850.41	20507
850.545	20556
850.68	20602
850.815	20648
850.95	20609
851.085	20781
851.22	20792
851.355	20571
851.49	20587
851.625	20480
851.76	20625
851.895	20484
852.03	20613
852.165	20625
852.299	20621
852.434	20636
852.569	20556
852.703	20693
852.838	20678
852.973	20746
853.107	20693
853.242	20526
853.376	20408
853.511	20294
853.645	20381
853.78	20499
853.914	20431
854.048	20381
854.183	20400
854.317	20454
854.451	20644
854.585	20442
854.72	20476
854.854	20492
854.988	20305
855.122	20381
855.256	20347
855.39	20423
855.524	20552
855.658	20484
855.792	20507
855.926	20454
856.06	20480
856.194	20507
856.327	20450
856.461	20317
856.595	20446
856.729	20469
856.862	20511
856.996	20446
857.13	20518
857.263	20442
857.397	20545
857.53	20476
857.664	20507
857.797	20556
857.931	20480
858.064	20530
858.197	20537
858.331	20492
858.464	20400
858.597	20320
858.731	20370
858.864	20339
858.997	20351
859.13	20419
859.263	20419
859.396	20541
859.529	20400
859.662	20396
859.795	20374
859.928	20396
860.061	20632
860.194	20708
860.327	20556
860.46	20473
860.592	20560
860.725	20598
860.858	20438
860.99	20362
861.123	20351
861.256	20324
861.388	20309
861.521	20986
861.653	20161
861.786	20199
861.918	20393
862.05	20294
862.183	20396
862.315	20427
862.447	20393
862.58	20309
862.712	20202
862.844	20187
862.976	20168
863.108	20233
863.24	20636
863.372	20142
863.504	20096
863.636	20153
863.768	20183
863.9	20176
864.032	20073
864.164	20092
864.296	20153
864.428	20195
864.559	20233
864.691	20218
864.823	20172
864.954	20130
865.086	20191
865.217	20020
865.349	20012
865.48	20012
865.612	20107
865.743	20081
865.875	20088
866.006	20043
866.137	20062
866.269	20016
866.4	19986
866.531	19883
866.662	19970
866.793	20024
866.924	19978
867.055	20073
867.186	20012
867.317	19997
867.448	19955
867.579	20020
867.71	19864
867.841	20096
867.972	19864
868.103	19947
868.233	19909
868.364	19989
868.495	20183
868.625	20202
868.756	20286
868.886	20100
869.017	20225
869.147	20355
869.278	20320
869.408	20313
869.539	20237
869.669	20275
869.799	20290
869.929	20412
870.06	20339
870.19	20511
870.32	20419
870.45	20480
870.58	20594
870.71	20781
870.84	20758
870.97	20663
871.1	20674
871.23	20758
871.36	20849
871.489	20762
871.619	20853
871.749	20796
871.879	20902
872.008	21043
872.138	20895
872.267	20948
872.397	20689
872.526	20670
872.656	20651
872.785	20609
872.915	20925
873.044	20857
873.173	20758
873.303	20834
873.432	20914
873.561	20906
873.69	20838
873.819	20773
873.948	20895
874.077	20891
874.206	20921
874.335	20868
874.464	20941
874.593	21207
874.722	21051
874.851	21142
874.979	21123
875.108	21150
875.237	20937
875.365	21020
875.494	21089
875.623	21226
875.751	20971
875.88	21039
876.008	21245
876.136	21340
876.265	21386
876.393	21614
876.521	21587
876.65	21549
876.778	21519
876.906	21454
877.034	21458
877.162	21439
877.29	21450
877.418	21412
877.546	21367
877.674	21462
877.802	21359
877.93	21401
878.058	21507
878.185	21359
878.313	21401
878.441	21447
878.568	21275
878.696	21420
878.824	21466
878.951	21610
879.079	21698
879.206	21686
879.333	21629
879.461	21447
879.588	21572
879.715	21507
879.842	21747
879.97	21473
880.097	21370
880.224	21275
880.351	21291
880.478	21272
880.605	21260
880.732	21351
880.859	21542
880.986	21252
881.112	21252
881.239	21169
881.366	21062
881.493	20902
881.619	20857
881.746	20948
881.872	20880
881.999	20849
882.125	20853
882.252	20941
882.378	20872
882.505	21028
882.631	20815
882.757	20697
882.883	20598
883.01	20594
883.136	20545
883.262	20473
883.388	20355
883.514	20632
883.64	20613
883.766	20473
883.892	20476
884.018	20495
884.143	20511
884.269	20712
884.395	20419
884.52	20237
884.646	20248
884.772	20244
884.897	20142
885.023	20252
885.148	20366
885.274	20450
885.399	20358
885.524	20271
885.65	20294
885.775	20332
885.9	20187
886.025	20320
886.15	20172
886.275	20320
886.4	20142
886.525	20172
886.65	20229
886.775	20199
886.9	20332
887.025	20427
887.149	20225
887.274	20077
887.399	19963
887.523	20073
887.648	20096
887.773	19982
887.897	20237
888.021	20043
888.146	20050
888.27	20122
888.395	20130
888.519	20050
888.643	20107
888.767	20103
888.891	19909
889.015	19871
889.139	19947
889.263	19959
889.387	19830
889.511	20161
889.635	19959
889.759	19864
889.883	19879
890.006	19833
890.13	19913
890.254	19807
890.377	19868
890.501	19681
890.624	19575
890.748	19734
890.871	19518
890.995	19434
891.118	19293
891.241	19384
891.364	19422
891.488	19491
891.611	19426
891.734	19293
891.857	19480
891.98	19460
892.103	19468
892.226	19415
892.349	19339
892.471	19164
892.594	19533
892.717	19388
892.839	19263
892.962	19396
893.085	19460
893.207	19327
893.33	19183
893.452	19183
893.575	19422
893.697	19400
893.819	19537
893.941	19457
894.064	19480
894.186	19289
894.308	19308
894.43	19343
894.552	19483
894.674	19464
894.796	19236
894.918	19228
895.04	19335
895.161	19312
895.283	19434
895.405	19426
895.526	19419
895.648	19278
895.769	19343
895.891	19369
896.012	19483
896.134	19400
896.255	19441
896.376	19381
896.498	19354
896.619	19441
896.74	19270
896.861	19457
896.982	19651
897.103	19788
897.224	19647
897.345	19685
897.466	19518
897.587	19578
897.708	19746
897.828	19666
897.949	19563
898.07	19449
898.19	19563
898.311	19651
898.431	19556
898.552	19609
898.672	19666
898.792	19620
898.913	19727
899.033	19472
899.153	19381
899.273	19343
899.393	19388
899.513	19369
899.633	19320
899.753	19388
899.873	19236
899.993	19445
900.113	19278
900.232	19445
900.352	19251
900.472	19236
900.591	19050
900.711	19255
900.83	19000
900.95	19187
901.069	19278
901.189	19031
901.308	18810
901.427	18753
901.546	18825
901.665	18829
901.784	18745
901.904	18601
902.023	18555
902.141	18334
902.26	18270
902.379	18289
902.498	18281
902.617	18152
902.735	18308
902.854	18308
902.973	18178
903.091	18015
903.21	17923
903.328	17912
903.446	17847
903.565	17752
903.683	17809
903.801	17592
903.919	17733
904.038	17718
904.156	17505
904.274	17627
904.392	17551
904.51	17425
904.627	17493
904.745	17619
904.863	17570
904.981	17417
905.098	17231
905.216	17083
905.334	17254
905.451	17250
905.569	17178
905.686	17307
905.803	17128
905.921	17022
906.038	17037
906.155	17071
906.272	16961
906.389	16900
906.506	16816
906.623	16839
906.74	16763
906.857	16558
906.974	16713
907.091	16782
907.208	16930
907.324	16820
907.441	16660
907.557	16432
907.674	16538
907.79	16432
907.907	16409
908.023	16394
908.139	16508
908.256	16421
908.372	16371
908.488	16371
908.604	16154
908.72	16230
908.836	16128
908.952	16177
909.068	16268
909.184	16268
909.3	16131
909.415	16204
909.531	16090
909.647	15975
909.762	15949
909.878	15781
909.993	15960
910.108	15835
910.224	15831
910.339	15888
910.454	15755
910.57	15743
910.685	15629
910.8	15972
910.915	15831
911.03	15739
911.145	15564
911.259	15504
911.374	15557
911.489	15443
911.604	15401
911.718	15176
911.833	15370
911.947	15245
912.062	15058
912.176	15355
912.291	15389
912.405	15252
912.519	15515
912.633	15511
912.748	15359
912.862	15283
912.976	15108
913.09	15047
913.204	15013
913.318	15028
913.431	15127
913.545	15169
913.659	15203
913.772	15020
913.886	14868
914	14861
914.113	14918
914.226	14994
914.34	14933
914.453	14750
914.566	14963
914.68	14758
914.793	14788
914.906	14594
915.019	14480
915.132	14396
915.245	14530
915.358	14469
915.47	14610
915.583	14480
915.696	14434
915.809	14682
915.921	14651
916.034	14434
916.146	14412
916.259	14355
916.371	14670
916.483	14556
916.595	14484
916.708	14393
916.82	14362
916.932	14381
917.044	14381
917.156	14294
917.268	14168
917.38	14183
917.491	14088
917.603	14187
917.715	14252
917.826	14339
917.938	14145
918.049	14081
918.161	14172
918.272	14336
918.384	14206
918.495	14111
918.606	14027
918.717	13860
918.828	14062
918.939	13978
919.05	13890
919.161	13909
919.272	13784
919.383	13864
919.494	14008
919.604	14164
919.715	13982
919.826	13845
919.936	13959
920.047	14058
920.157	13864
920.267	14111
920.378	13963
920.488	14016
920.598	14149
920.708	14225
920.818	14027
920.928	14100
921.038	14233
921.148	14176
921.258	14046
921.368	13807
921.477	13632
921.587	13693
921.697	13578
921.806	13712
921.916	13628
922.025	13419
922.134	13403
922.244	13320
922.353	13316
922.462	13263
922.571	13175
922.68	13080
922.789	12943
922.898	13072
923.007	12970
923.116	13012
923.224	13031
923.333	12916
923.442	12962
923.55	12875
923.659	12798
923.767	12916
923.876	12734
923.984	12852
924.092	12715
924.201	12825
924.309	12726
924.417	12753
924.525	12646
924.633	12631
924.741	13594
924.849	12509
924.956	12700
925.064	12498
925.172	12376
925.279	12445
925.387	12532
925.494	12464
925.602	12589
925.709	12498
925.816	12300
925.924	12319
926.031	12464
926.138	12304
926.245	12346
926.352	12239
926.459	12513
926.566	12433
926.673	12327
926.779	12197
926.886	12186
926.993	12007
927.099	12064
927.206	11935
927.312	12007
927.419	12011
927.525	11973
927.631	12076
927.737	11958
927.843	11882
927.95	11760
928.056	11863
928.162	11855
928.267	11885
928.373	12490
928.479	11897
928.585	11665
928.69	11885
928.796	11802
928.901	11741
929.007	11646
929.112	11646
929.218	11680
929.323	11558
929.428	11642
929.533	11764
929.638	11577
929.743	11482
929.848	11634
929.953	11566
930.058	11421
930.163	11273
930.267	11330
930.372	11383
930.477	11223
930.581	11543
930.685	11402
930.79	11216
930.894	11189
930.998	11174
931.103	11318
931.207	10995
931.311	10820
931.415	10862
931.519	10634
931.623	10561
