Data from test_V78500241_1938.txt Node
Date: Fri Mar 25 15:23:21 CST 2022
User: usil
Spectrometer: V785-0024
Trigger mode: 0
Integration Time (sec): 4.000000E-1
Scans to average: 1
Nonlinearity correction enabled: false
Boxcar width: 0
Storing dark spectrum: false
XAxis mode: Wavelengths
Number of Pixels in Spectrum: 1024
>>>>>Begin Spectral Data<<<<<
801.071	27599
801.214	27564
801.356	27435
801.499	27332
801.641	27291
801.783	27119
801.926	27188
802.068	27207
802.211	27226
802.353	27024
802.496	27013
802.638	26876
802.78	26830
802.923	26674
803.065	26773
803.208	26826
803.35	26902
803.492	26998
803.635	27100
803.777	26906
803.919	27032
804.061	27348
804.204	27013
804.346	26918
804.488	26899
804.63	27074
804.773	27028
804.915	27074
805.057	27146
805.199	27096
805.341	27218
805.483	27291
805.626	27268
805.768	27074
805.91	27085
806.052	27294
806.194	27062
806.336	27329
806.478	27294
806.62	27100
806.762	27180
806.904	27393
807.046	27717
807.188	27530
807.33	27496
807.472	27599
807.614	27694
807.756	27462
807.898	27450
808.04	27348
808.182	27515
808.324	27549
808.465	27553
808.607	27660
808.749	27724
808.891	27804
809.033	27968
809.174	27800
809.316	27728
809.458	27701
809.6	27816
809.741	27755
809.883	27892
810.025	28131
810.166	28074
810.308	28063
810.45	27979
810.591	27991
810.733	27880
810.875	27724
811.016	27751
811.158	27667
811.299	27728
811.441	27960
811.582	27743
811.724	27842
811.865	27732
812.007	27755
812.148	27690
812.29	27816
812.431	27945
812.573	28055
812.714	28177
812.855	28230
812.997	28401
813.138	28580
813.279	28295
813.421	28318
813.562	28215
813.703	28025
813.845	28002
813.986	27724
814.127	27576
814.268	27469
814.41	27485
814.551	27523
814.692	27557
814.833	27435
814.974	27329
815.115	27473
815.256	27340
815.397	27389
815.539	27340
815.68	27275
815.821	27310
815.962	27298
816.103	27184
816.244	27233
816.385	27013
816.526	27112
816.666	26868
816.807	26769
816.948	26800
817.089	26826
817.23	26830
817.371	26781
817.512	26823
817.653	26792
817.793	26602
817.934	26765
818.075	26720
818.216	26792
818.356	26750
818.497	26682
818.638	26457
818.778	26499
818.919	26484
819.06	26590
819.2	26590
819.341	26716
819.481	26686
819.622	26880
819.762	27100
819.903	27013
820.043	26952
820.184	26937
820.324	26883
820.465	26948
820.605	26857
820.746	26811
820.886	26667
821.026	26792
821.167	26823
821.307	26773
821.447	26788
821.588	26651
821.728	26648
821.868	26339
822.008	26225
822.149	26240
822.289	26195
822.429	25898
822.569	25898
822.709	25928
822.849	25761
822.99	25746
823.13	25715
823.27	25788
823.41	25620
823.55	25506
823.69	25556
823.83	25552
823.97	25483
824.11	25381
824.25	25407
824.389	25388
824.529	25400
824.669	25354
824.809	25476
824.949	25430
825.089	25449
825.228	25407
825.368	25320
825.508	25244
825.648	25293
825.787	25247
825.927	25392
826.067	25217
826.206	25202
826.346	25228
826.485	25202
826.625	25244
826.765	25411
826.904	25381
827.044	25168
827.183	25027
827.323	24897
827.462	24981
827.601	24966
827.741	24962
827.88	24985
828.02	24745
828.159	24814
828.298	24890
828.437	25084
828.577	24707
828.716	24913
828.855	24837
828.994	24623
829.134	24658
829.273	24719
829.412	24650
829.551	24555
829.69	24658
829.829	24661
829.968	24639
830.107	24677
830.246	24597
830.385	24578
830.524	24555
830.663	24601
830.802	24429
830.941	24338
831.08	24220
831.219	24369
831.357	24399
831.496	24681
831.635	24228
831.774	24087
831.913	24167
832.051	24136
832.19	24022
832.329	24022
832.467	24011
832.606	23817
832.744	23958
832.883	23931
833.022	23904
833.16	23863
833.299	24038
833.437	23904
833.576	24114
833.714	24079
833.852	24133
833.991	24152
834.129	24064
834.267	24018
834.406	24018
834.544	23958
834.682	23969
834.821	23965
834.959	24224
835.097	23893
835.235	23984
835.373	24060
835.511	23977
835.65	23866
835.788	23973
835.926	23893
836.064	23596
836.202	23672
836.34	23908
836.478	23988
836.615	23767
836.753	23904
836.891	23977
837.029	23847
837.167	23783
837.305	23737
837.443	23707
837.58	23741
837.718	23703
837.856	23748
837.993	23634
838.131	23691
838.269	23608
838.406	23531
838.544	23467
838.681	23265
838.819	23322
838.956	23269
839.094	23105
839.231	23269
839.369	23398
839.506	23531
839.643	23436
839.781	23220
839.918	23193
840.055	23090
840.193	23060
840.33	23102
840.467	23060
840.604	23128
840.742	23402
840.879	23006
841.016	22938
841.153	23052
841.29	23151
841.427	23052
841.564	23124
841.701	23033
841.838	23060
841.975	22987
842.112	22976
842.249	22946
842.385	22801
842.522	23105
842.659	22873
842.796	22831
842.933	22835
843.069	22850
843.206	22755
843.343	22949
843.479	22885
843.616	22904
843.752	22611
843.889	22675
844.025	22694
844.162	22729
844.298	22653
844.435	22694
844.571	22664
844.708	22607
844.844	22725
844.98	22877
845.117	22675
845.253	22622
845.389	22519
845.525	22535
845.661	22443
845.798	22375
845.934	22402
846.07	22466
846.206	22424
846.342	22523
846.478	22398
846.614	22139
846.75	22078
846.886	21979
847.022	22120
847.158	22173
847.294	22097
847.429	22025
847.565	22097
847.701	22337
847.837	21918
847.972	21755
848.108	21964
848.244	21941
848.379	21797
848.515	21599
848.65	21720
848.786	21766
848.921	21736
849.057	21926
849.192	21709
849.328	21694
849.463	21656
849.598	21610
849.734	21648
849.869	21526
850.004	21462
850.14	21416
850.275	21564
850.41	21389
850.545	21428
850.68	21458
850.815	21443
850.95	21488
851.085	21587
851.22	21595
851.355	21435
851.49	21473
851.625	21424
851.76	21481
851.895	21477
852.03	21424
852.165	21298
852.299	21458
852.434	21523
852.569	21515
852.703	21405
852.838	21492
852.973	21591
853.107	21576
853.242	21424
853.376	21310
853.511	21131
853.645	21211
853.78	21416
853.914	21408
854.048	21355
854.183	21260
854.317	21397
854.451	21549
854.585	21268
854.72	21306
854.854	21378
854.988	21192
855.122	21199
855.256	21199
855.39	21260
855.524	21374
855.658	21401
855.792	21249
855.926	21310
856.06	21397
856.194	21214
856.327	21214
856.461	21275
856.595	21199
856.729	21302
856.862	21310
856.996	21386
857.13	21291
857.263	21458
857.397	21355
857.53	21241
857.664	21367
857.797	21329
857.931	21408
858.064	21279
858.197	21408
858.331	21272
858.464	21165
858.597	21173
858.731	21222
858.864	21165
858.997	21294
859.13	21245
859.263	21184
859.396	21397
859.529	21245
859.662	21165
859.795	21332
859.928	21306
860.061	21454
860.194	21515
860.327	21397
860.46	21252
860.592	21389
860.725	21511
860.858	21435
860.99	21336
861.123	21192
861.256	21157
861.388	21104
861.521	21994
861.653	21195
861.786	21001
861.918	21043
862.05	21096
862.183	21142
862.315	21268
862.447	21268
862.58	21222
862.712	20929
862.844	20899
862.976	21108
863.108	21161
863.24	21454
863.372	20891
863.504	21051
863.636	20963
863.768	20975
863.9	21051
864.032	20906
864.164	21051
864.296	20994
864.428	21036
864.559	21013
864.691	21070
864.823	20975
864.954	20979
865.086	21024
865.217	20883
865.349	20739
865.48	21013
865.612	20891
865.743	21062
865.875	20994
866.006	20902
866.137	20788
866.269	20853
866.4	20861
866.531	20727
866.662	20823
866.793	20746
866.924	20796
867.055	20876
867.186	20929
867.317	20720
867.448	20686
867.579	20743
867.71	20743
867.841	20727
867.972	20773
868.103	20849
868.233	20815
868.364	20823
868.495	20948
868.625	21024
868.756	21093
868.886	20883
869.017	21047
869.147	21268
869.278	21116
869.408	21161
869.539	21047
869.669	21066
869.799	21135
869.929	21233
870.06	21169
870.19	21313
870.32	21408
870.45	21317
870.58	21397
870.71	21675
870.84	21553
870.97	21386
871.1	21515
871.23	21698
871.36	21603
871.489	21603
871.619	21492
871.749	21880
871.879	21637
872.008	21667
872.138	21542
872.267	21732
872.397	21519
872.526	21545
872.656	21443
872.785	21507
872.915	21709
873.044	21652
873.173	21698
873.303	21743
873.432	21857
873.561	21793
873.69	21663
873.819	21701
873.948	21705
874.077	21755
874.206	21610
874.335	21561
874.464	21717
874.593	21869
874.722	21892
874.851	21903
874.979	21941
875.108	21987
875.237	21812
875.365	21751
875.494	21941
875.623	21922
875.751	21945
875.88	21945
876.008	22017
876.136	22131
876.265	22276
876.393	22462
876.521	22379
876.65	22306
876.778	22211
876.906	22226
877.034	22219
877.162	22185
877.29	22196
877.418	22291
877.546	22116
877.674	22219
877.802	22253
877.93	22287
878.058	22185
878.185	22101
878.313	22169
878.441	22211
878.568	22093
878.696	22287
878.824	22333
878.951	22280
879.079	22455
879.206	22607
879.333	22295
879.461	22303
879.588	22375
879.715	22291
879.842	22386
879.97	22295
880.097	21964
880.224	22070
880.351	22211
880.478	22082
880.605	21926
880.732	22006
880.859	22322
880.986	22105
881.112	22044
881.239	21953
881.366	21789
881.493	21736
881.619	21644
881.746	21701
881.872	21648
881.999	21724
882.125	21686
882.252	21770
882.378	21667
882.505	21656
882.631	21477
882.757	21382
882.883	21504
883.01	21351
883.136	21370
883.262	21310
883.388	21116
883.514	21302
883.64	21405
883.766	21214
883.892	21108
884.018	21108
884.143	21283
884.269	21351
884.395	21127
884.52	21089
884.646	21001
884.772	21047
884.897	20918
885.023	20963
885.148	21062
885.274	21161
885.399	21093
885.524	21009
885.65	20933
885.775	20967
885.9	21039
886.025	21074
886.15	21062
886.275	20986
886.4	20960
886.525	21028
886.65	20853
886.775	20956
886.9	21001
887.025	21207
887.149	21055
887.274	20769
887.399	20701
887.523	20731
887.648	20686
887.773	20731
887.897	20720
888.021	20857
888.146	20667
888.27	20960
888.395	20849
888.519	20743
888.643	20705
888.767	20815
888.891	20648
889.015	20621
889.139	20625
889.263	20575
889.387	20720
889.511	20876
889.635	20617
889.759	20568
889.883	20651
890.006	20533
890.13	20724
890.254	20495
890.377	20419
890.501	20218
890.624	20282
890.748	20366
890.871	20145
890.995	20103
891.118	20092
891.241	20153
891.364	20161
891.488	20256
891.611	20263
891.734	20134
891.857	20157
891.98	20100
892.103	20199
892.226	20214
892.349	20084
892.471	19986
892.594	19997
892.717	20119
892.839	19894
892.962	20138
893.085	20195
893.207	19944
893.33	19940
893.452	19993
893.575	20081
893.697	20008
893.819	20088
893.941	20142
894.064	20111
894.186	19955
894.308	19967
894.43	20111
894.552	20240
894.674	20107
894.796	19993
894.918	19906
895.04	20046
895.161	20164
895.283	20111
895.405	20046
895.526	19947
895.648	20043
895.769	20020
895.891	20126
896.012	20183
896.134	20111
896.255	20054
896.376	20031
896.498	20024
896.619	20039
896.74	20206
896.861	20027
896.982	20313
897.103	20488
897.224	20317
897.345	20145
897.466	20244
897.587	20176
897.708	20366
897.828	20176
897.949	20176
898.07	20092
898.19	20259
898.311	20161
898.431	20065
898.552	20199
898.672	20332
898.792	20256
898.913	20259
899.033	20142
899.153	20012
899.273	20046
899.393	20024
899.513	19986
899.633	20024
899.753	20046
899.873	19883
899.993	20100
900.113	19906
900.232	19917
900.352	19951
900.472	19795
900.591	19712
900.711	19807
900.83	19689
900.95	19830
901.069	19868
901.189	19674
901.308	19476
901.427	19400
901.546	19335
901.665	19335
901.784	19426
901.904	19247
902.023	19236
902.141	18916
902.26	18913
902.379	18943
902.498	18932
902.617	18890
902.735	18916
902.854	18848
902.973	18837
903.091	18608
903.21	18589
903.328	18467
903.446	18437
903.565	18388
903.683	18334
903.801	18232
903.919	18285
904.038	18327
904.156	18140
904.274	18251
904.392	18049
904.51	18026
904.627	18133
904.745	18186
904.863	18155
904.981	17946
905.098	17752
905.216	17771
905.334	17798
905.451	17870
905.569	17771
905.686	17794
905.803	17802
905.921	17577
906.038	17630
906.155	17558
906.272	17493
906.389	17532
906.506	17311
906.623	17299
906.74	17334
906.857	17200
906.974	17227
907.091	17341
907.208	17429
907.324	17425
907.441	17170
907.557	17041
907.674	17094
907.79	16877
907.907	16972
908.023	17018
908.139	17075
908.256	17014
908.372	16927
908.488	16911
908.604	16843
908.72	16759
908.836	16774
908.952	16729
909.068	16835
909.184	16847
909.3	16733
909.415	16672
909.531	16843
909.647	16599
909.762	16531
909.878	16409
909.993	16527
910.108	16405
910.224	16428
910.339	16405
910.454	16280
910.57	16291
910.685	16261
910.8	16531
910.915	16348
911.03	16265
911.145	16154
911.259	16078
911.374	16040
911.489	15968
911.604	15934
911.718	15793
911.833	15945
911.947	15755
912.062	15629
912.176	15747
912.291	15732
912.405	15808
912.519	15991
912.633	15949
912.748	15865
912.862	15785
912.976	15633
913.09	15538
913.204	15561
913.318	15561
913.431	15690
913.545	15800
913.659	15701
913.772	15599
913.886	15545
914	15542
914.113	15599
914.226	15622
914.34	15450
914.453	15260
914.566	15515
914.68	15279
914.793	15348
914.906	15161
915.019	15089
915.132	15036
915.245	15017
915.358	14990
915.47	15116
915.583	15024
915.696	14986
915.809	15157
915.921	15146
916.034	14982
916.146	14921
916.259	14864
916.371	14967
916.483	15047
916.595	14895
916.708	14864
916.82	14887
916.932	14937
917.044	14765
917.156	14804
917.268	14659
917.38	14804
917.491	14720
917.603	14739
917.715	14826
917.826	14891
917.938	14701
918.049	14602
918.161	14651
918.272	14785
918.384	14883
918.495	14613
918.606	14571
918.717	14442
918.828	14488
918.939	14476
919.05	14400
919.161	14537
919.272	14362
919.383	14294
919.494	14431
919.604	14621
919.715	14408
919.826	14389
919.936	14465
920.047	14514
920.157	14377
920.267	14625
920.378	14438
920.488	14415
920.598	14659
920.708	14674
920.818	14594
920.928	14518
921.038	14693
921.148	14716
921.258	14427
921.368	14317
921.477	14191
921.587	14191
921.697	14043
921.806	14195
921.916	14027
922.025	13883
922.134	13864
922.244	13784
922.353	13852
922.462	13681
922.571	13765
922.68	13472
922.789	13438
922.898	13483
923.007	13499
923.116	13597
923.224	13491
923.333	13422
923.442	13343
923.55	13400
923.659	13308
923.767	13377
923.876	13316
923.984	13331
924.092	13198
924.201	13259
924.309	13301
924.417	13255
924.525	13152
924.633	13114
924.741	14054
924.849	12909
924.956	13088
925.064	12939
925.172	12821
925.279	12798
925.387	12916
925.494	12852
925.602	13122
925.709	12817
925.816	12867
925.924	12886
926.031	12905
926.138	12829
926.245	12837
926.352	12783
926.459	12924
926.566	12947
926.673	12798
926.779	12578
926.886	12654
926.993	12490
927.099	12452
927.206	12593
927.312	12509
927.419	12471
927.525	12566
927.631	12494
927.737	12399
927.843	12353
927.95	12224
928.056	12258
928.162	12323
928.267	12308
928.373	12863
928.479	12388
928.585	12171
928.69	12232
928.796	12395
928.901	12190
929.007	11999
929.112	12178
929.218	12117
929.323	12034
929.428	11973
929.533	12095
929.638	11859
929.743	11969
929.848	11977
929.953	11901
930.058	11805
930.163	11684
930.267	11722
930.372	11863
930.477	11668
930.581	11889
930.685	11703
930.79	11524
930.894	11608
930.998	11539
931.103	11668
931.207	11372
931.311	11265
931.415	11159
931.519	10938
931.623	10999
