Data from test_V78500241_1903.txt Node
Date: Fri Mar 25 15:23:06 CST 2022
User: usil
Spectrometer: V785-0024
Trigger mode: 0
Integration Time (sec): 4.000000E-1
Scans to average: 1
Nonlinearity correction enabled: false
Boxcar width: 0
Storing dark spectrum: false
XAxis mode: Wavelengths
Number of Pixels in Spectrum: 1024
>>>>>Begin Spectral Data<<<<<
801.071	27557
801.214	27351
801.356	27192
801.499	27047
801.641	26937
801.783	26952
801.926	27051
802.068	26944
802.211	26830
802.353	26933
802.496	26849
802.638	26788
802.78	26583
802.923	26503
803.065	26579
803.208	26526
803.35	26545
803.492	26781
803.635	26731
803.777	26663
803.919	26735
804.061	27074
804.204	26777
804.346	26693
804.488	26773
804.63	26807
804.773	26746
804.915	26739
805.057	26891
805.199	26659
805.341	26880
805.483	26952
805.626	26998
805.768	26705
805.91	26773
806.052	26823
806.194	26823
806.336	27119
806.478	26880
806.62	26967
806.762	26960
806.904	27116
807.046	27344
807.188	27245
807.33	27370
807.472	27275
807.614	27165
807.756	27203
807.898	27161
808.04	27039
808.182	27195
808.324	27199
808.465	27264
808.607	27298
808.749	27526
808.891	27686
809.033	27618
809.174	27622
809.316	27370
809.458	27519
809.6	27344
809.741	27412
809.883	27523
810.025	27789
810.166	27698
810.308	27644
810.45	27648
810.591	27625
810.733	27408
810.875	27443
811.016	27310
811.158	27302
811.299	27526
811.441	27694
811.582	27618
811.724	27454
811.865	27473
812.007	27382
812.148	27389
812.29	27496
812.431	27599
812.573	27884
812.714	27800
812.855	28086
812.997	27960
813.138	28109
813.279	28082
813.421	27895
813.562	28036
813.703	27778
813.845	27599
813.986	27405
814.127	27431
814.268	27036
814.41	27272
814.551	27077
814.692	27131
814.833	27127
814.974	27104
815.115	27173
815.256	26994
815.397	26861
815.539	27093
815.68	26990
815.821	26929
815.962	26910
816.103	26864
816.244	26921
816.385	26811
816.526	26754
816.666	26571
816.807	26415
816.948	26564
817.089	26541
817.23	26324
817.371	26343
817.512	26412
817.653	26396
817.793	26431
817.934	26298
818.075	26362
818.216	26507
818.356	26412
818.497	26305
818.638	26263
818.778	26256
818.919	26103
819.06	26221
819.2	26290
819.341	26511
819.481	26427
819.622	26602
819.762	26712
819.903	26659
820.043	26632
820.184	26598
820.324	26511
820.465	26530
820.605	26526
820.746	26453
820.886	26328
821.026	26492
821.167	26499
821.307	26602
821.447	26366
821.588	26374
821.728	26218
821.868	26126
822.008	25803
822.149	25997
822.289	25928
822.429	25704
822.569	25495
822.709	25685
822.849	25449
822.99	25415
823.13	25320
823.27	25403
823.41	25316
823.55	25114
823.69	25206
823.83	25202
823.97	25274
824.11	25031
824.25	25000
824.389	24924
824.529	25076
824.669	24928
824.809	25129
824.949	25145
825.089	25084
825.228	25198
825.368	24886
825.508	24757
825.648	24966
825.787	24954
825.927	24878
826.067	24867
826.206	24875
826.346	24886
826.485	24951
826.625	24878
826.765	25103
826.904	24943
827.044	24760
827.183	24684
827.323	24623
827.462	24585
827.601	24604
827.741	24726
827.88	24639
828.02	24563
828.159	24578
828.298	24707
828.437	24620
828.577	24380
828.716	24650
828.855	24544
828.994	24350
829.134	24384
829.273	24350
829.412	24220
829.551	24216
829.69	24266
829.829	24429
829.968	24403
830.107	24315
830.246	24228
830.385	24235
830.524	24292
830.663	24148
830.802	24167
830.941	23946
831.08	23760
831.219	23939
831.357	23977
831.496	24144
831.635	23935
831.774	23889
831.913	23821
832.051	23729
832.19	23737
832.329	23703
832.467	23657
832.606	23665
832.744	23520
832.883	23657
833.022	23455
833.16	23649
833.299	23566
833.437	23611
833.576	23573
833.714	23627
833.852	23615
833.991	23764
834.129	23866
834.267	23699
834.406	23600
834.544	23771
834.682	23566
834.821	23756
834.959	23771
835.097	23642
835.235	23573
835.373	23745
835.511	23745
835.65	23615
835.788	23577
835.926	23452
836.064	23398
836.202	23315
836.34	23493
836.478	23482
836.615	23531
836.753	23558
836.891	23611
837.029	23554
837.167	23566
837.305	23440
837.443	23482
837.58	23387
837.718	23528
837.856	23303
837.993	23341
838.131	23467
838.269	23315
838.406	23246
838.544	23136
838.681	23166
838.819	23010
838.956	22923
839.094	22744
839.231	22900
839.369	22968
839.506	23185
839.643	23128
839.781	23033
839.918	22889
840.055	22786
840.193	22725
840.33	22809
840.467	22824
840.604	22866
840.742	23083
840.879	22653
841.016	22508
841.153	22584
841.29	22987
841.427	22782
841.564	22828
841.701	22778
841.838	22740
841.975	22725
842.112	22565
842.249	22565
842.385	22592
842.522	22615
842.659	22546
842.796	22557
842.933	22573
843.069	22451
843.206	22428
843.343	22668
843.479	22637
843.616	22493
843.752	22322
843.889	22344
844.025	22440
844.162	22325
844.298	22276
844.435	22333
844.571	22318
844.708	22398
844.844	22504
844.98	22409
845.117	22390
845.253	22192
845.389	22185
845.525	22272
845.661	22048
845.798	22078
845.934	21998
846.07	21945
846.206	21991
846.342	22128
846.478	22067
846.614	21762
846.75	21728
846.886	21869
847.022	21797
847.158	21789
847.294	21778
847.429	21755
847.565	21705
847.701	21907
847.837	21405
847.972	21564
848.108	21629
848.244	21545
848.379	21321
848.515	21279
848.65	21317
848.786	21504
848.921	21367
849.057	21492
849.192	21534
849.328	21321
849.463	21279
849.598	21252
849.734	21241
849.869	21336
850.004	21066
850.14	21142
850.275	21135
850.41	21146
850.545	21089
850.68	21116
850.815	21058
850.95	21036
851.085	21336
851.22	21268
851.355	21138
851.49	21176
851.625	21062
851.76	21077
851.895	21047
852.03	21142
852.165	21135
852.299	21142
852.434	21192
852.569	21096
852.703	21237
852.838	21230
852.973	21203
853.107	21241
853.242	21032
853.376	21001
853.511	20842
853.645	20887
853.78	21024
853.914	20857
854.048	20994
854.183	20883
854.317	20967
854.451	21214
854.585	20891
854.72	20990
854.854	21032
854.988	20918
855.122	21036
855.256	20845
855.39	20952
855.524	20982
855.658	20979
855.792	20845
855.926	20895
856.06	20887
856.194	21055
856.327	20921
856.461	20899
856.595	20906
856.729	20743
856.862	20914
856.996	21032
857.13	20986
857.263	21013
857.397	20986
857.53	20948
857.664	21066
857.797	21036
857.931	21070
858.064	21009
858.197	20921
858.331	20914
858.464	20975
858.597	20887
858.731	20998
858.864	20937
858.997	20868
859.13	20887
859.263	21066
859.396	21077
859.529	21017
859.662	20937
859.795	20796
859.928	21032
860.061	21047
860.194	21180
860.327	20918
860.46	20815
860.592	21081
860.725	21074
860.858	21146
860.99	20918
861.123	20921
861.256	20842
861.388	20899
861.521	21622
861.653	20849
861.786	20807
861.918	20796
862.05	20724
862.183	20834
862.315	20937
862.447	20994
862.58	20819
862.712	20705
862.844	20533
862.976	20815
863.108	20689
863.24	21009
863.372	20613
863.504	20655
863.636	20659
863.768	20697
863.9	20701
864.032	20530
864.164	20568
864.296	20788
864.428	20697
864.559	20804
864.691	20724
864.823	20674
864.954	20609
865.086	20674
865.217	20629
865.349	20499
865.48	20571
865.612	20625
865.743	20781
865.875	20434
866.006	20511
866.137	20545
866.269	20537
866.4	20533
866.531	20575
866.662	20488
866.793	20454
866.924	20575
867.055	20488
867.186	20549
867.317	20499
867.448	20431
867.579	20473
867.71	20404
867.841	20415
867.972	20442
868.103	20587
868.233	20511
868.364	20488
868.495	20651
868.625	20667
868.756	20899
868.886	20655
869.017	20655
869.147	20929
869.278	20750
869.408	20815
869.539	20777
869.669	20842
869.799	20788
869.929	20853
870.06	20777
870.19	21096
870.32	20979
870.45	21112
870.58	21184
870.71	21241
870.84	21218
870.97	21135
871.1	21252
871.23	21184
871.36	21420
871.489	21325
871.619	21321
871.749	21287
871.879	21321
872.008	21405
872.138	21462
872.267	21272
872.397	21180
872.526	21169
872.656	21119
872.785	21188
872.915	21393
873.044	21329
873.173	21435
873.303	21466
873.432	21313
873.561	21473
873.69	21310
873.819	21435
873.948	21473
874.077	21317
874.206	21321
874.335	21302
874.464	21488
874.593	21591
874.722	21405
874.851	21595
874.979	21564
875.108	21549
875.237	21519
875.365	21443
875.494	21523
875.623	21671
875.751	21591
875.88	21637
876.008	21698
876.136	21785
876.265	22185
876.393	22040
876.521	22021
876.65	22029
876.778	22109
876.906	21918
877.034	21994
877.162	21983
877.29	21812
877.418	21949
877.546	22006
877.674	21960
877.802	21903
877.93	21998
878.058	22017
878.185	21766
878.313	21953
878.441	21827
878.568	21812
878.696	21861
878.824	22093
878.951	22086
879.079	22021
879.206	22261
879.333	22048
879.461	21930
879.588	22013
879.715	22021
879.842	22280
879.97	21979
880.097	21739
880.224	21732
880.351	21888
880.478	21686
880.605	21720
880.732	21785
880.859	21915
880.986	21743
881.112	21694
881.239	21648
881.366	21496
881.493	21405
881.619	21389
881.746	21279
881.872	21306
881.999	21405
882.125	21233
882.252	21325
882.378	21291
882.505	21393
882.631	21252
882.757	21077
882.883	21066
883.01	21077
883.136	21032
883.262	20902
883.388	20849
883.514	21032
883.64	21070
883.766	20975
883.892	20876
884.018	20819
884.143	20967
884.269	21032
884.395	20716
884.52	20705
884.646	20674
884.772	20617
884.897	20480
885.023	20785
885.148	20746
885.274	20895
885.399	20773
885.524	20712
885.65	20807
885.775	20743
885.9	20659
886.025	20815
886.15	20731
886.275	20705
886.4	20530
886.525	20731
886.65	20526
886.775	20617
886.9	20762
887.025	20918
887.149	20571
887.274	20362
887.399	20537
887.523	20549
887.648	20393
887.773	20446
887.897	20564
888.021	20522
888.146	20423
888.27	20606
888.395	20556
888.519	20499
888.643	20461
888.767	20492
888.891	20347
889.015	20278
889.139	20381
889.263	20183
889.387	20370
889.511	20488
889.635	20469
889.759	20298
889.883	20263
890.006	20423
890.13	20294
890.254	20134
890.377	20271
890.501	20020
890.624	20062
890.748	20054
890.871	19811
890.995	19894
891.118	19822
891.241	19788
891.364	19890
891.488	19970
891.611	19784
891.734	19788
891.857	19951
891.98	19814
892.103	19871
892.226	19864
892.349	19833
892.471	19658
892.594	19841
892.717	19784
892.839	19696
892.962	19746
893.085	19826
893.207	19727
893.33	19662
893.452	19742
893.575	19757
893.697	19776
893.819	19894
893.941	19894
894.064	19906
894.186	19616
894.308	19586
894.43	19761
894.552	19955
894.674	19894
894.796	19685
894.918	19822
895.04	19662
895.161	19864
895.283	19795
895.405	19750
895.526	19807
895.648	19708
895.769	19734
895.891	19864
896.012	19890
896.134	19795
896.255	19837
896.376	19761
896.498	19674
896.619	19898
896.74	19841
896.861	19856
896.982	20134
897.103	20145
897.224	19955
897.345	20134
897.466	19993
897.587	19959
897.708	20081
897.828	20012
897.949	19986
898.07	19822
898.19	19879
898.311	20115
898.431	20039
898.552	19936
898.672	20126
898.792	20092
898.913	20149
899.033	19917
899.153	19750
899.273	19772
899.393	19670
899.513	19635
899.633	19765
899.753	19761
899.873	19723
899.993	19651
900.113	19582
900.232	19727
900.352	19590
900.472	19590
900.591	19502
900.711	19544
900.83	19491
900.95	19635
901.069	19639
901.189	19472
901.308	19247
901.427	19095
901.546	19110
901.665	19156
901.784	19114
901.904	18996
902.023	18825
902.141	18741
902.26	18703
902.379	18681
902.498	18669
902.617	18551
902.735	18661
902.854	18654
902.973	18642
903.091	18334
903.21	18292
903.328	18239
903.446	18136
903.565	18129
903.683	18083
903.801	18068
903.919	18076
904.038	18026
904.156	17935
904.274	17950
904.392	17897
904.51	17851
904.627	17882
904.745	17904
904.863	17901
904.981	17661
905.098	17615
905.216	17577
905.334	17604
905.451	17554
905.569	17501
905.686	17547
905.803	17562
905.921	17288
906.038	17547
906.155	17383
906.272	17242
906.389	17273
906.506	17086
906.623	17056
906.74	17037
906.857	17033
906.974	17006
907.091	17147
907.208	17315
907.324	16987
907.441	16976
907.557	16892
907.674	16908
907.79	16809
907.907	16790
908.023	16873
908.139	16702
908.256	16763
908.372	16748
908.488	16664
908.604	16592
908.72	16558
908.836	16474
908.952	16523
909.068	16535
909.184	16618
909.3	16554
909.415	16577
909.531	16440
909.647	16318
909.762	16207
909.878	16147
909.993	16299
910.108	16265
910.224	16150
910.339	16246
910.454	16097
910.57	16055
910.685	15972
910.8	16246
910.915	16120
911.03	16036
911.145	15861
911.259	15770
911.374	15838
911.489	15827
911.604	15713
911.718	15595
911.833	15671
911.947	15382
912.062	15389
912.176	15545
912.291	15549
912.405	15561
912.519	15675
912.633	15759
912.748	15709
912.862	15553
912.976	15462
913.09	15260
913.204	15332
913.318	15408
913.431	15458
913.545	15462
913.659	15424
913.772	15344
913.886	15226
914	15199
914.113	15287
914.226	15321
914.34	15370
914.453	15093
914.566	15226
914.68	15116
914.793	15081
914.906	14918
915.019	14842
915.132	14712
915.245	14788
915.358	14849
915.47	14914
915.583	14811
915.696	14792
915.809	14948
915.921	14990
916.034	14823
916.146	14823
916.259	14785
916.371	14804
916.483	14823
916.595	14663
916.708	14697
916.82	14636
916.932	14670
917.044	14701
917.156	14579
917.268	14507
917.38	14537
917.491	14514
917.603	14511
917.715	14625
917.826	14583
917.938	14408
918.049	14362
918.161	14450
918.272	14720
918.384	14537
918.495	14484
918.606	14370
918.717	14172
918.828	14355
918.939	14374
919.05	14103
919.161	14290
919.272	14084
919.383	14126
919.494	14343
919.604	14537
919.715	14351
919.826	14134
919.936	14187
920.047	14244
920.157	14259
920.267	14389
920.378	14324
920.488	14149
920.598	14442
920.708	14594
920.818	14415
920.928	14370
921.038	14530
921.148	14499
921.258	14168
921.368	14088
921.477	13936
921.587	14103
921.697	13917
921.806	13947
921.916	13852
922.025	13700
922.134	13784
922.244	13556
922.353	13514
922.462	13502
922.571	13510
922.68	13304
922.789	13324
922.898	13362
923.007	13228
923.116	13282
923.224	13282
923.333	13278
923.442	13209
923.55	13076
923.659	13183
923.767	13206
923.876	13103
923.984	13206
924.092	13000
924.201	13084
924.309	13053
924.417	13038
924.525	13038
924.633	12894
924.741	13909
924.849	12802
924.956	12909
925.064	12776
925.172	12688
925.279	12700
925.387	12722
925.494	12810
925.602	12844
925.709	12711
925.816	12593
925.924	12681
926.031	12722
926.138	12684
926.245	12681
926.352	12574
926.459	12753
926.566	12646
926.673	12635
926.779	12502
926.886	12418
926.993	12437
927.099	12346
927.206	12319
927.312	12289
927.419	12353
927.525	12330
927.631	12372
927.737	12133
927.843	12205
927.95	12064
928.056	12197
928.162	12224
928.267	12171
928.373	12654
928.479	12190
928.585	11954
928.69	12110
928.796	12152
928.901	12007
929.007	11904
929.112	11935
929.218	11950
929.323	11935
929.428	11767
929.533	11965
929.638	11802
929.743	11783
929.848	11904
929.953	11813
930.058	11703
930.163	11566
930.267	11551
930.372	11752
930.477	11467
930.581	11684
930.685	11676
930.79	11459
930.894	11539
930.998	11440
931.103	11566
931.207	11220
931.311	11105
931.415	11014
931.519	10877
931.623	10729
