Data from test_V78500241_2767.txt Node
Date: Fri Mar 25 15:29:07 CST 2022
User: usil
Spectrometer: V785-0024
Trigger mode: 0
Integration Time (sec): 4.000000E-1
Scans to average: 1
Nonlinearity correction enabled: false
Boxcar width: 0
Storing dark spectrum: false
XAxis mode: Wavelengths
Number of Pixels in Spectrum: 1024
>>>>>Begin Spectral Data<<<<<
801.071	27214
801.214	27116
801.356	26868
801.499	26716
801.641	26568
801.783	26568
801.926	26651
802.068	26530
802.211	26499
802.353	26514
802.496	26347
802.638	26244
802.78	26309
802.923	26168
803.065	26084
803.208	26290
803.35	26237
803.492	26461
803.635	26412
803.777	26294
803.919	26355
804.061	26663
804.204	26469
804.346	26282
804.488	26298
804.63	26438
804.773	26339
804.915	26370
805.057	26488
805.199	26393
805.341	26438
805.483	26484
805.626	26419
805.768	26469
805.91	26393
806.052	26423
806.194	26450
806.336	26606
806.478	26499
806.62	26541
806.762	26609
806.904	26792
807.046	27131
807.188	26842
807.33	27020
807.472	27070
807.614	26921
807.756	26929
807.898	26712
808.04	26720
808.182	26739
808.324	26785
808.465	26826
808.607	26998
808.749	27119
808.891	27279
809.033	27268
809.174	27176
809.316	27241
809.458	27272
809.6	27077
809.741	27176
809.883	27313
810.025	27389
810.166	27348
810.308	27462
810.45	27214
810.591	27272
810.733	27135
810.875	26956
811.016	26971
811.158	27089
811.299	27074
811.441	27336
811.582	27351
811.724	27161
811.865	27028
812.007	27058
812.148	26982
812.29	27096
812.431	27123
812.573	27332
812.714	27420
812.855	27580
812.997	27652
813.138	27778
813.279	27770
813.421	27477
813.562	27564
813.703	27344
813.845	27340
813.986	27039
814.127	26902
814.268	26944
814.41	26750
814.551	26625
814.692	26872
814.833	26663
814.974	26693
815.115	26640
815.256	26686
815.397	26541
815.539	26617
815.68	26541
815.821	26549
815.962	26404
816.103	26545
816.244	26415
816.385	26240
816.526	26115
816.666	26077
816.807	26084
816.948	26035
817.089	26138
817.23	25997
817.371	26027
817.512	26107
817.653	25936
817.793	25932
817.934	25932
818.075	26005
818.216	26001
818.356	25993
818.497	25883
818.638	25712
818.778	25628
818.919	25685
819.06	25826
819.2	25955
819.341	25978
819.481	25982
819.622	26252
819.762	26298
819.903	26286
820.043	25959
820.184	26119
820.324	26043
820.465	26233
820.605	26088
820.746	25925
820.886	25890
821.026	26031
821.167	26012
821.307	26107
821.447	25982
821.588	25807
821.728	25883
821.868	25677
822.008	25438
822.149	25381
822.289	25339
822.429	25129
822.569	24977
822.709	25031
822.849	24833
822.99	24901
823.13	24787
823.27	24935
823.41	24951
823.55	24673
823.69	24844
823.83	24787
823.97	24810
824.11	24563
824.25	24399
824.389	24502
824.529	24658
824.669	24608
824.809	24631
824.949	24669
825.089	24608
825.228	24669
825.368	24372
825.508	24410
825.648	24426
825.787	24525
825.927	24490
826.067	24441
826.206	24464
826.346	24418
826.485	24509
826.625	24437
826.765	24620
826.904	24479
827.044	24117
827.183	24140
827.323	24254
827.462	24083
827.601	24174
827.741	24079
827.88	24213
828.02	24041
828.159	24038
828.298	24049
828.437	24076
828.577	24049
828.716	24262
828.855	24026
828.994	23859
829.134	23916
829.273	23866
829.412	23745
829.551	23798
829.69	23878
829.829	23855
829.968	23965
830.107	23897
830.246	23988
830.385	23771
830.524	23703
830.663	23691
830.802	23634
830.941	23440
831.08	23543
831.219	23509
831.357	23497
831.496	23752
831.635	23433
831.774	23402
831.913	23505
832.051	23280
832.19	23132
832.329	23379
832.467	23140
832.606	23124
832.744	23014
832.883	23090
833.022	23109
833.16	23208
833.299	23292
833.437	23098
833.576	23185
833.714	23113
833.852	23239
833.991	23117
834.129	23326
834.267	23311
834.406	23064
834.544	23212
834.682	23227
834.821	23265
834.959	23360
835.097	23071
835.235	23254
835.373	23174
835.511	23227
835.65	23022
835.788	22995
835.926	22889
836.064	22908
836.202	22927
836.34	23052
836.478	23060
836.615	23041
836.753	23041
836.891	23094
837.029	22896
837.167	22980
837.305	22957
837.443	23037
837.58	22889
837.718	22812
837.856	23022
837.993	22847
838.131	22831
838.269	22782
838.406	22824
838.544	22683
838.681	22523
838.819	22497
838.956	22371
839.094	22268
839.231	22402
839.369	22550
839.506	22679
839.643	22622
839.781	22405
839.918	22276
840.055	22261
840.193	22310
840.33	22265
840.467	22306
840.604	22310
840.742	22588
840.879	22169
841.016	22242
841.153	22200
841.29	22337
841.427	22246
841.564	22295
841.701	22329
841.838	22192
841.975	22169
842.112	22382
842.249	22177
842.385	22169
842.522	22211
842.659	22169
842.796	22112
842.933	22112
843.069	21983
843.206	21945
843.343	22112
843.479	21937
843.616	22002
843.752	21804
843.889	21804
844.025	22021
844.162	21785
844.298	21888
844.435	21869
844.571	21835
844.708	21865
844.844	21911
844.98	22063
845.117	22002
845.253	21797
845.389	21618
845.525	21739
845.661	21622
845.798	21504
845.934	21606
846.07	21500
846.206	21466
846.342	21587
846.478	21568
846.614	21249
846.75	21348
846.886	21340
847.022	21378
847.158	21351
847.294	21340
847.429	21256
847.565	21298
847.701	21511
847.837	21074
847.972	21005
848.108	21051
848.244	21146
848.379	20876
848.515	20815
848.65	20868
848.786	20967
848.921	20872
849.057	21043
849.192	20960
849.328	20845
849.463	20849
849.598	20861
849.734	20853
849.869	20659
850.004	20655
850.14	20720
850.275	20686
850.41	20556
850.545	20545
850.68	20552
850.815	20579
850.95	20720
851.085	20682
851.22	20811
851.355	20724
851.49	20670
851.625	20648
851.76	20712
851.895	20579
852.03	20560
852.165	20682
852.299	20693
852.434	20746
852.569	20705
852.703	20617
852.838	20735
852.973	20807
853.107	20705
853.242	20590
853.376	20518
853.511	20476
853.645	20385
853.78	20530
853.914	20457
854.048	20415
854.183	20522
854.317	20442
854.451	20781
854.585	20476
854.72	20575
854.854	20530
854.988	20423
855.122	20450
855.256	20374
855.39	20358
855.524	20450
855.658	20473
855.792	20602
855.926	20454
856.06	20503
856.194	20587
856.327	20499
856.461	20480
856.595	20408
856.729	20469
856.862	20602
856.996	20530
857.13	20461
857.263	20537
857.397	20499
857.53	20514
857.664	20495
857.797	20438
857.931	20598
858.064	20583
858.197	20587
858.331	20461
858.464	20438
858.597	20290
858.731	20393
858.864	20495
858.997	20427
859.13	20522
859.263	20564
859.396	20579
859.529	20438
859.662	20408
859.795	20457
859.928	20480
860.061	20632
860.194	20625
860.327	20507
860.46	20533
860.592	20613
860.725	20667
860.858	20602
860.99	20423
861.123	20347
861.256	20355
861.388	20560
861.521	21020
861.653	20400
861.786	20263
861.918	20320
862.05	20415
862.183	20381
862.315	20377
862.447	20438
862.58	20476
862.712	20237
862.844	20191
862.976	20183
863.108	20305
863.24	20682
863.372	20202
863.504	20164
863.636	20122
863.768	20172
863.9	20294
864.032	20221
864.164	20240
864.296	20202
864.428	20267
864.559	20305
864.691	20244
864.823	20252
864.954	20149
865.086	20214
865.217	20183
865.349	20005
865.48	20092
865.612	20058
865.743	20195
865.875	20221
866.006	19993
866.137	20043
866.269	20069
866.4	20130
866.531	20058
866.662	20138
866.793	20138
866.924	19989
867.055	20161
867.186	20096
867.317	19967
867.448	19947
867.579	19978
867.71	19906
867.841	20027
867.972	20073
868.103	20024
868.233	20046
868.364	20122
868.495	20069
868.625	20229
868.756	20351
868.886	20244
869.017	20301
869.147	20415
869.278	20301
869.408	20351
869.539	20225
869.669	20225
869.799	20298
869.929	20442
870.06	20415
870.19	20632
870.32	20636
870.45	20659
870.58	20727
870.71	20845
870.84	20667
870.97	20644
871.1	20587
871.23	20796
871.36	20914
871.489	20845
871.619	20804
871.749	20762
871.879	20914
872.008	21074
872.138	20956
872.267	20807
872.397	20705
872.526	20849
872.656	20739
872.785	20731
872.915	20788
873.044	21017
873.173	20868
873.303	20887
873.432	20883
873.561	20937
873.69	21058
873.819	20971
873.948	21001
874.077	20910
874.206	20849
874.335	20944
874.464	20948
874.593	21264
874.722	21150
874.851	21173
874.979	21279
875.108	21249
875.237	21203
875.365	21024
875.494	21203
875.623	21294
875.751	21081
875.88	21195
876.008	21306
876.136	21313
876.265	21583
876.393	21663
876.521	21709
876.65	21606
876.778	21542
876.906	21504
877.034	21564
877.162	21454
877.29	21378
877.418	21420
877.546	21549
877.674	21534
877.802	21515
877.93	21428
878.058	21428
878.185	21412
878.313	21336
878.441	21515
878.568	21412
878.696	21313
878.824	21572
878.951	21576
879.079	21713
879.206	21747
879.333	21614
879.461	21591
879.588	21622
879.715	21595
879.842	21739
879.97	21637
880.097	21397
880.224	21275
880.351	21386
880.478	21302
880.605	21351
880.732	21367
880.859	21538
880.986	21420
881.112	21355
881.239	21127
881.366	21085
881.493	21009
881.619	20883
881.746	20937
881.872	20864
881.999	20727
882.125	20864
882.252	20960
882.378	20891
882.505	21100
882.631	20758
882.757	20587
882.883	20861
883.01	20659
883.136	20571
883.262	20541
883.388	20511
883.514	20568
883.64	20602
883.766	20602
883.892	20336
884.018	20438
884.143	20495
884.269	20629
884.395	20317
884.52	20244
884.646	20324
884.772	20282
884.897	20263
885.023	20210
885.148	20332
885.274	20427
885.399	20332
885.524	20240
885.65	20351
885.775	20431
885.9	20332
886.025	20355
886.15	20404
886.275	20301
886.4	20153
886.525	20233
886.65	20278
886.775	20199
886.9	20286
887.025	20511
887.149	20195
887.274	20092
887.399	19974
887.523	20005
887.648	20050
887.773	19978
887.897	20138
888.021	20218
888.146	20035
888.27	20103
888.395	20046
888.519	20115
888.643	20111
888.767	20134
888.891	19955
889.015	19826
889.139	19860
889.263	19864
889.387	19944
889.511	19940
889.635	19887
889.759	19849
889.883	19826
890.006	19849
890.13	19989
890.254	19849
890.377	19791
890.501	19616
890.624	19552
890.748	19677
890.871	19457
890.995	19396
891.118	19422
891.241	19407
891.364	19537
891.488	19567
891.611	19438
891.734	19415
891.857	19460
891.98	19430
892.103	19491
892.226	19468
892.349	19449
892.471	19324
892.594	19350
892.717	19392
892.839	19343
892.962	19346
893.085	19396
893.207	19350
893.33	19316
893.452	19240
893.575	19392
893.697	19403
893.819	19567
893.941	19746
894.064	19502
894.186	19407
894.308	19324
894.43	19358
894.552	19590
894.674	19457
894.796	19289
894.918	19324
895.04	19343
895.161	19468
895.283	19441
895.405	19270
895.526	19365
895.648	19339
895.769	19365
895.891	19320
896.012	19415
896.134	19445
896.255	19343
896.376	19327
896.498	19464
896.619	19460
896.74	19373
896.861	19422
896.982	19761
897.103	19868
897.224	19628
897.345	19696
897.466	19559
897.587	19632
897.708	19666
897.828	19666
897.949	19548
898.07	19480
898.19	19544
898.311	19731
898.431	19590
898.552	19666
898.672	19776
898.792	19647
898.913	19556
899.033	19438
899.153	19487
899.273	19217
899.393	19358
899.513	19247
899.633	19308
899.753	19426
899.873	19225
899.993	19457
900.113	19362
900.232	19339
900.352	19308
900.472	19251
900.591	19213
900.711	19289
900.83	19194
900.95	19301
901.069	19217
901.189	19057
901.308	18791
901.427	18719
901.546	18776
901.665	18875
901.784	18814
901.904	18760
902.023	18574
902.141	18311
902.26	18300
902.379	18365
902.498	18205
902.617	18350
902.735	18251
902.854	18243
902.973	18228
903.091	17977
903.21	18064
903.328	18015
903.446	17870
903.565	17771
903.683	17718
903.801	17729
903.919	17813
904.038	17748
904.156	17493
904.274	17604
904.392	17452
904.51	17532
904.627	17528
904.745	17592
904.863	17554
904.981	17349
905.098	17284
905.216	17208
905.334	17223
905.451	17197
905.569	17220
905.686	17189
905.803	17197
905.921	16961
906.038	17113
906.155	17022
906.272	16942
906.389	16904
906.506	16809
906.623	16835
906.74	16755
906.857	16618
906.974	16687
907.091	16793
907.208	16866
907.324	16801
907.441	16596
907.557	16531
907.674	16497
907.79	16455
907.907	16402
908.023	16462
908.139	16538
908.256	16409
908.372	16394
908.488	16341
908.604	16314
908.72	16188
908.836	16284
908.952	16169
909.068	16185
909.184	16329
909.3	16234
909.415	16261
909.531	16154
909.647	15998
909.762	15968
909.878	16010
909.993	15865
910.108	15880
910.224	15964
910.339	15861
910.454	15785
910.57	15720
910.685	15660
910.8	15911
910.915	15869
911.03	15671
911.145	15568
911.259	15511
911.374	15603
911.489	15496
911.604	15386
911.718	15389
911.833	15252
911.947	15180
912.062	15097
912.176	15351
912.291	15279
912.405	15397
912.519	15458
912.633	15469
912.748	15252
912.862	15260
912.976	15180
913.09	14956
913.204	15001
913.318	15230
913.431	15184
913.545	15085
913.659	15169
913.772	15138
913.886	14990
914	14952
914.113	15093
914.226	14967
914.34	15001
914.453	14773
914.566	14910
914.68	14842
914.793	14819
914.906	14625
915.019	14579
915.132	14503
915.245	14442
915.358	14564
915.47	14552
915.583	14545
915.696	14427
915.809	14579
915.921	14602
916.034	14503
916.146	14431
916.259	14381
916.371	14526
916.483	14484
916.595	14400
916.708	14362
916.82	14355
916.932	14457
917.044	14278
917.156	14332
917.268	14294
917.38	14229
917.491	14176
917.603	14168
917.715	14298
917.826	14271
917.938	14187
918.049	14005
918.161	14176
918.272	14286
918.384	14237
918.495	14084
918.606	14031
918.717	13917
918.828	13959
918.939	14062
919.05	13932
919.161	13883
919.272	13799
919.383	13860
919.494	14005
919.604	14130
919.715	13955
919.826	13826
919.936	13902
920.047	14077
920.157	13967
920.267	14001
920.378	14039
920.488	13852
920.598	14123
920.708	14259
920.818	14191
920.928	14031
921.038	14256
921.148	14210
921.258	13925
921.368	13814
921.477	13670
921.587	13738
921.697	13597
921.806	13715
921.916	13578
922.025	13392
922.134	13339
922.244	13304
922.353	13354
922.462	13156
922.571	13168
922.68	13019
922.789	12981
922.898	13015
923.007	13031
923.116	13069
923.224	12894
923.333	12973
923.442	12920
923.55	12810
923.659	12939
923.767	12939
923.876	12753
923.984	12844
924.092	12802
924.201	12757
924.309	12783
924.417	12768
924.525	12654
924.633	12726
924.741	13559
924.849	12486
924.956	12669
925.064	12536
925.172	12426
925.279	12490
925.387	12426
925.494	12502
925.602	12536
925.709	12479
925.816	12277
925.924	12327
926.031	12486
926.138	12365
926.245	12437
926.352	12319
926.459	12418
926.566	12391
926.673	12357
926.779	12239
926.886	12129
926.993	12102
927.099	12030
927.206	12041
927.312	12030
927.419	12110
927.525	12114
927.631	12022
927.737	11920
927.843	11904
927.95	11756
928.056	11790
928.162	11863
928.267	11878
928.373	12486
928.479	11916
928.585	11699
928.69	11882
928.796	11828
928.901	11722
929.007	11589
929.112	11668
929.218	11688
929.323	11630
929.428	11566
929.533	11676
929.638	11600
929.743	11532
929.848	11505
929.953	11528
930.058	11387
930.163	11349
930.267	11258
930.372	11345
930.477	11349
930.581	11448
930.685	11311
930.79	11216
930.894	11204
930.998	11136
931.103	11360
931.207	11014
931.311	10892
931.415	10812
931.519	10596
931.623	10611
