Data from test_V78500241_929.txt Node
Date: Fri Mar 25 15:16:19 CST 2022
User: usil
Spectrometer: V785-0024
Trigger mode: 0
Integration Time (sec): 4.000000E-1
Scans to average: 1
Nonlinearity correction enabled: false
Boxcar width: 0
Storing dark spectrum: false
XAxis mode: Wavelengths
Number of Pixels in Spectrum: 1024
>>>>>Begin Spectral Data<<<<<
801.071	28021
801.214	27869
801.356	27606
801.499	27530
801.641	27496
801.783	27561
801.926	27504
802.068	27462
802.211	27412
802.353	27245
802.496	27176
802.638	27203
802.78	27237
802.923	27131
803.065	27157
803.208	27096
803.35	27195
803.492	27230
803.635	27363
803.777	27222
803.919	27302
804.061	27705
804.204	27401
804.346	27336
804.488	27256
804.63	27252
804.773	27313
804.915	27348
805.057	27496
805.199	27359
805.341	27511
805.483	27580
805.626	27492
805.768	27329
805.91	27477
806.052	27485
806.194	27363
806.336	27698
806.478	27576
806.62	27534
806.762	27690
806.904	27793
807.046	28059
807.188	27857
807.33	27720
807.472	27934
807.614	27774
807.756	27823
807.898	27743
808.04	27869
808.182	27705
808.324	27770
808.465	27698
808.607	27994
808.749	28101
808.891	28287
809.033	28272
809.174	28177
809.316	28063
809.458	28162
809.6	28021
809.741	28291
809.883	28382
810.025	28363
810.166	28417
810.308	28405
810.45	28394
810.591	28470
810.733	28253
810.875	28139
811.016	28169
811.158	27968
811.299	28223
811.441	28417
811.582	28230
811.724	28063
811.865	28082
812.007	28196
812.148	28059
812.29	28234
812.431	28333
812.573	28508
812.714	28550
812.855	28645
812.997	28831
813.138	28881
813.279	28748
813.421	28615
813.562	28538
813.703	28596
813.845	28386
813.986	28238
814.127	27998
814.268	28006
814.41	27873
814.551	27819
814.692	27968
814.833	27960
814.974	27926
815.115	27968
815.256	27804
815.397	27709
815.539	27789
815.68	27618
815.821	27732
815.962	27686
816.103	27576
816.244	27599
816.385	27310
816.526	27382
816.666	27241
816.807	27241
816.948	27157
817.089	27348
817.23	27074
817.371	27218
817.512	27096
817.653	27066
817.793	27127
817.934	27260
818.075	27085
818.216	27112
818.356	27233
818.497	27131
818.638	26887
818.778	26834
818.919	26857
819.06	26990
819.2	27024
819.341	27154
819.481	27207
819.622	27302
819.762	27439
819.903	27336
820.043	27256
820.184	27260
820.324	27313
820.465	27298
820.605	27393
820.746	27184
820.886	27192
821.026	27260
821.167	27245
821.307	27275
821.447	27154
821.588	27013
821.728	27020
821.868	26625
822.008	26583
822.149	26579
822.289	26594
822.429	26309
822.569	26317
822.709	26286
822.849	26176
822.99	26164
823.13	26187
823.27	26157
823.41	26012
823.55	25928
823.69	25978
823.83	25951
823.97	25898
824.11	25776
824.25	25677
824.389	25830
824.529	25879
824.669	25757
824.809	25856
824.949	25909
825.089	25894
825.228	25890
825.368	25639
825.508	25712
825.648	25575
825.787	25727
825.927	25788
826.067	25635
826.206	25761
826.346	25658
826.485	25693
826.625	25761
826.765	25731
826.904	25582
827.044	25407
827.183	25491
827.323	25308
827.462	25327
827.601	25346
827.741	25346
827.88	25312
828.02	25377
828.159	25274
828.298	25453
828.437	25483
828.577	25217
828.716	25403
828.855	25365
828.994	25148
829.134	25110
829.273	25122
829.412	25004
829.551	25023
829.69	25156
829.829	25019
829.968	25228
830.107	25206
830.246	25141
830.385	25027
830.524	24833
830.663	24791
830.802	24772
830.941	24795
831.08	24673
831.219	24795
831.357	24833
831.496	25000
831.635	24787
831.774	24707
831.913	24616
832.051	24551
832.19	24536
832.329	24532
832.467	24479
832.606	24536
832.744	24399
832.883	24350
833.022	24369
833.16	24479
833.299	24357
833.437	24437
833.576	24460
833.714	24513
833.852	24521
833.991	24578
834.129	24570
834.267	24574
834.406	24505
834.544	24384
834.682	24589
834.821	24426
834.959	24658
835.097	24429
835.235	24456
835.373	24388
835.511	24445
835.65	24213
835.788	24281
835.926	24178
836.064	24186
836.202	24167
836.34	24266
836.478	24350
836.615	24262
836.753	24327
836.891	24365
837.029	24247
837.167	24235
837.305	24148
837.443	24232
837.58	24110
837.718	24148
837.856	24045
837.993	24140
838.131	24079
838.269	23897
838.406	23946
838.544	24026
838.681	23779
838.819	23737
838.956	23638
839.094	23726
839.231	23703
839.369	23836
839.506	23920
839.643	23935
839.781	23646
839.918	23535
840.055	23638
840.193	23691
840.33	23493
840.467	23535
840.604	23528
840.742	23771
840.879	23421
841.016	23505
841.153	23372
841.29	23585
841.427	23520
841.564	23585
841.701	23539
841.838	23337
841.975	23421
842.112	23387
842.249	23254
842.385	23383
842.522	23516
842.659	23292
842.796	23227
842.933	23242
843.069	23212
843.206	23143
843.343	23284
843.479	23277
843.616	23223
843.752	22987
843.889	22972
844.025	23269
844.162	23067
844.298	23143
844.435	22972
844.571	22984
844.708	23109
844.844	23105
844.98	23181
845.117	23208
845.253	23037
845.389	22858
845.525	22968
845.661	22858
845.798	22786
845.934	22774
846.07	22740
846.206	22911
846.342	22869
846.478	22725
846.614	22519
846.75	22478
846.886	22512
847.022	22550
847.158	22554
847.294	22470
847.429	22592
847.565	22379
847.701	22721
847.837	22272
847.972	22162
848.108	22443
848.244	22310
848.379	22257
848.515	22025
848.65	22116
848.786	22090
848.921	22063
849.057	22143
849.192	22249
849.328	22116
849.463	22185
849.598	21945
849.734	22021
849.869	22051
850.004	21854
850.14	21888
850.275	21827
850.41	21857
850.545	21800
850.68	21751
850.815	21835
850.95	21823
851.085	22070
851.22	21964
851.355	21972
851.49	21854
851.625	21724
851.76	21800
851.895	21736
852.03	21698
852.165	21835
852.299	21789
852.434	22044
852.569	21876
852.703	21880
852.838	21949
852.973	21960
853.107	21964
853.242	21812
853.376	21717
853.511	21595
853.645	21625
853.78	21869
853.914	21785
854.048	21595
854.183	21667
854.317	21618
854.451	21873
854.585	21637
854.72	21675
854.854	21564
854.988	21606
855.122	21629
855.256	21538
855.39	21644
855.524	21793
855.658	21751
855.792	21774
855.926	21778
856.06	21648
856.194	21759
856.327	21625
856.461	21564
856.595	21641
856.729	21728
856.862	21755
856.996	21781
857.13	21816
857.263	21720
857.397	21766
857.53	21705
857.664	21701
857.797	21705
857.931	21785
858.064	21671
858.197	21816
858.331	21690
858.464	21561
858.597	21450
858.731	21549
858.864	21564
858.997	21603
859.13	21686
859.263	21781
859.396	21705
859.529	21622
859.662	21720
859.795	21633
859.928	21686
860.061	21797
860.194	21827
860.327	21736
860.46	21637
860.592	21755
860.725	21880
860.858	21663
860.99	21766
861.123	21561
861.256	21667
861.388	21614
861.521	22341
861.653	21542
861.786	21359
861.918	21519
862.05	21454
862.183	21595
862.315	21580
862.447	21690
862.58	21549
862.712	21348
862.844	21405
862.976	21530
863.108	21386
863.24	21720
863.372	21298
863.504	21348
863.636	21412
863.768	21450
863.9	21332
864.032	21336
864.164	21348
864.296	21374
864.428	21481
864.559	21492
864.691	21408
864.823	21382
864.954	21378
865.086	21431
865.217	21294
865.349	21249
865.48	21241
865.612	21382
865.743	21401
865.875	21245
866.006	21154
866.137	21279
866.269	21367
866.4	21249
866.531	21287
866.662	21252
866.793	21195
866.924	21154
867.055	21165
867.186	21230
867.317	21268
867.448	21131
867.579	21195
867.71	21028
867.841	21157
867.972	21123
868.103	21203
868.233	21123
868.364	21207
868.495	21302
868.625	21458
868.756	21599
868.886	21386
869.017	21538
869.147	21469
869.278	21564
869.408	21435
869.539	21428
869.669	21591
869.799	21526
869.929	21504
870.06	21500
870.19	21831
870.32	21755
870.45	21660
870.58	21956
870.71	21983
870.84	21804
870.97	21857
871.1	21762
871.23	22029
871.36	22196
871.489	21903
871.619	22086
871.749	22006
871.879	22082
872.008	22128
872.138	21964
872.267	21926
872.397	21876
872.526	21964
872.656	21819
872.785	21998
872.915	22051
873.044	22105
873.173	21979
873.303	22051
873.432	22082
873.561	22158
873.69	22131
873.819	22124
873.948	22078
874.077	22109
874.206	22010
874.335	22105
874.464	22131
874.593	22318
874.722	22192
874.851	22352
874.979	22280
875.108	22276
875.237	22196
875.365	22173
875.494	22257
875.623	22325
875.751	22196
875.88	22318
876.008	22398
876.136	22356
876.265	22577
876.393	22706
876.521	22771
876.65	22710
876.778	22565
876.906	22615
877.034	22580
877.162	22615
877.29	22451
877.418	22538
877.546	22660
877.674	22687
877.802	22535
877.93	22554
878.058	22497
878.185	22478
878.313	22649
878.441	22538
878.568	22565
878.696	22519
878.824	22653
878.951	22683
879.079	22782
879.206	22801
879.333	22790
879.461	22550
879.588	22637
879.715	22782
879.842	22919
879.97	22702
880.097	22497
880.224	22459
880.351	22497
880.478	22303
880.605	22314
880.732	22390
880.859	22557
880.986	22527
881.112	22523
881.239	22276
881.366	22287
881.493	22143
881.619	21960
881.746	22234
881.872	22048
881.999	21987
882.125	21960
882.252	22067
882.378	22040
882.505	22082
882.631	21934
882.757	21751
882.883	21762
883.01	21717
883.136	21583
883.262	21671
883.388	21542
883.514	21610
883.64	21682
883.766	21530
883.892	21473
884.018	21500
884.143	21606
884.269	21663
884.395	21378
884.52	21367
884.646	21370
884.772	21283
884.897	21161
885.023	21340
885.148	21466
885.274	21466
885.399	21439
885.524	21192
885.65	21405
885.775	21405
885.9	21351
886.025	21336
886.15	21336
886.275	21359
886.4	21207
886.525	21283
886.65	21287
886.775	21135
886.9	21416
887.025	21610
887.149	21393
887.274	21283
887.399	21157
887.523	21131
887.648	21024
887.773	21028
887.897	21176
888.021	21116
888.146	21024
888.27	21112
888.395	21188
888.519	21150
888.643	21169
888.767	21188
888.891	21138
889.015	20868
889.139	20963
889.263	20933
889.387	20887
889.511	21184
889.635	20986
889.759	20891
889.883	20864
890.006	20868
890.13	20990
890.254	20830
890.377	20792
890.501	20621
890.624	20526
890.748	20746
890.871	20625
890.995	20530
891.118	20412
891.241	20594
891.364	20457
891.488	20606
891.611	20549
891.734	20473
891.857	20492
891.98	20396
892.103	20511
892.226	20431
892.349	20358
892.471	20298
892.594	20195
892.717	20370
892.839	20328
892.962	20400
893.085	20461
893.207	20415
893.33	20107
893.452	20370
893.575	20389
893.697	20305
893.819	20609
893.941	20511
894.064	20393
894.186	20290
894.308	20324
894.43	20377
894.552	20499
894.674	20446
894.796	20271
894.918	20233
895.04	20271
895.161	20339
895.283	20347
895.405	20282
895.526	20309
895.648	20210
895.769	20358
895.891	20339
896.012	20366
896.134	20473
896.255	20381
896.376	20286
896.498	20419
896.619	20214
896.74	20294
896.861	20446
896.982	20659
897.103	20872
897.224	20621
897.345	20640
897.466	20446
897.587	20587
897.708	20651
897.828	20617
897.949	20461
898.07	20381
898.19	20503
898.311	20632
898.431	20495
898.552	20571
898.672	20663
898.792	20640
898.913	20583
899.033	20404
899.153	20324
899.273	20233
899.393	20313
899.513	20370
899.633	20313
899.753	20195
899.873	20263
899.993	20328
900.113	20267
900.232	20339
900.352	20240
900.472	20172
900.591	20035
900.711	20119
900.83	20031
900.95	20115
901.069	20256
901.189	19989
901.308	19864
901.427	19529
901.546	19689
901.665	19632
901.784	19624
901.904	19578
902.023	19411
902.141	19247
902.26	19293
902.379	19316
902.498	19209
902.617	19095
902.735	19103
902.854	19118
902.973	19118
903.091	18791
903.21	18817
903.328	18856
903.446	18757
903.565	18654
903.683	18703
903.801	18521
903.919	18684
904.038	18513
904.156	18441
904.274	18403
904.392	18289
904.51	18289
904.627	18410
904.745	18467
904.863	18448
904.981	18216
905.098	18121
905.216	18167
905.334	18167
905.451	18091
905.569	17992
905.686	18068
905.803	18015
905.921	17893
906.038	17912
906.155	17847
906.272	17726
906.389	17726
906.506	17646
906.623	17585
906.74	17623
906.857	17532
906.974	17543
907.091	17672
907.208	17756
907.324	17672
907.441	17474
907.557	17391
907.674	17379
907.79	17288
907.907	17292
908.023	17318
908.139	17334
908.256	17280
908.372	17132
908.488	17273
908.604	17090
908.72	17079
908.836	16999
908.952	16968
909.068	17075
909.184	17113
909.3	17033
909.415	17124
909.531	17170
909.647	16835
909.762	16771
909.878	16664
909.993	16748
910.108	16839
910.224	16698
910.339	16729
910.454	16538
910.57	16550
910.685	16626
910.8	16782
910.915	16615
911.03	16546
911.145	16413
911.259	16451
911.374	16341
911.489	16234
911.604	16325
911.718	16082
911.833	16143
911.947	16006
912.062	15888
912.176	16109
912.291	16101
912.405	15964
912.519	16230
912.633	16314
912.748	16101
912.862	16135
912.976	15831
913.09	15789
913.204	15968
913.318	15945
913.431	15953
913.545	16044
913.659	16059
913.772	15850
913.886	15762
914	15663
914.113	15781
914.226	15922
914.34	15816
914.453	15644
914.566	15793
914.68	15549
914.793	15534
914.906	15329
915.019	15317
915.132	15355
915.245	15294
915.358	15458
915.47	15329
915.583	15332
915.696	15329
915.809	15424
915.921	15458
916.034	15268
916.146	15245
916.259	15214
916.371	15351
916.483	15310
916.595	15192
916.708	15226
916.82	15138
916.932	15108
917.044	15032
917.156	14971
917.268	14952
917.38	15039
917.491	14891
917.603	14998
917.715	14952
917.826	14925
917.938	14853
918.049	14819
918.161	14902
918.272	14967
918.384	15017
918.495	14925
918.606	14743
918.717	14556
918.828	14762
918.939	14693
919.05	14552
919.161	14689
919.272	14533
919.383	14465
919.494	14743
919.604	14941
919.715	14697
919.826	14610
919.936	14663
920.047	14697
920.157	14682
920.267	14891
920.378	14655
920.488	14667
920.598	14857
920.708	14914
920.818	14735
920.928	14804
921.038	14960
921.148	14853
921.258	14549
921.368	14556
921.477	14434
921.587	14294
921.697	14237
921.806	14355
921.916	14240
922.025	14096
922.134	14005
922.244	13997
922.353	13997
922.462	13909
922.571	13811
922.68	13772
922.789	13597
922.898	13791
923.007	13628
923.116	13685
923.224	13731
923.333	13624
923.442	13571
923.55	13419
923.659	13578
923.767	13529
923.876	13457
923.984	13521
924.092	13419
924.201	13537
924.309	13415
924.417	13472
924.525	13358
924.633	13434
924.741	14206
924.849	13168
924.956	13301
925.064	13145
925.172	13076
925.279	13099
925.387	13175
925.494	13069
925.602	13198
925.709	13126
925.816	12981
925.924	13057
926.031	13080
926.138	13034
926.245	13000
926.352	12913
926.459	13088
926.566	13042
926.673	12901
926.779	12852
926.886	12772
926.993	12806
927.099	12654
927.206	12642
927.312	12532
927.419	12772
927.525	12692
927.631	12707
927.737	12479
927.843	12506
927.95	12437
928.056	12418
928.162	12452
928.267	12509
928.373	13168
928.479	12395
928.585	12262
928.69	12467
928.796	12410
928.901	12262
929.007	12144
929.112	12334
929.218	12323
929.323	12262
929.428	12079
929.533	12285
929.638	12095
929.743	12163
929.848	12136
929.953	12197
930.058	12030
930.163	11946
930.267	11851
930.372	12053
930.477	11840
930.581	12019
930.685	11893
930.79	11726
930.894	11817
930.998	11737
931.103	11798
931.207	11547
931.311	11452
931.415	11322
931.519	11140
931.623	11033
