Data from test_V78500241_2263.txt Node
Date: Fri Mar 25 15:25:36 CST 2022
User: usil
Spectrometer: V785-0024
Trigger mode: 0
Integration Time (sec): 4.000000E-1
Scans to average: 1
Nonlinearity correction enabled: false
Boxcar width: 0
Storing dark spectrum: false
XAxis mode: Wavelengths
Number of Pixels in Spectrum: 1024
>>>>>Begin Spectral Data<<<<<
801.071	27557
801.214	27466
801.356	27336
801.499	27195
801.641	27017
801.783	27135
801.926	27287
802.068	27074
802.211	27093
802.353	26975
802.496	26914
802.638	26853
802.78	26731
802.923	26705
803.065	26651
803.208	26735
803.35	26990
803.492	26925
803.635	27066
803.777	26868
803.919	27005
804.061	27272
804.204	26960
804.346	26906
804.488	26963
804.63	27047
804.773	26960
804.915	26956
805.057	27108
805.199	27039
805.341	26975
805.483	27055
805.626	27096
805.768	26929
805.91	27100
806.052	27161
806.194	26971
806.336	27306
806.478	27135
806.62	27180
806.762	27226
806.904	27264
807.046	27606
807.188	27561
807.33	27599
807.472	27469
807.614	27458
807.756	27526
807.898	27363
808.04	27386
808.182	27431
808.324	27462
808.465	27416
808.607	27549
808.749	27808
808.891	27797
809.033	27914
809.174	27713
809.316	27576
809.458	27652
809.6	27679
809.741	27964
809.883	27850
810.025	28048
810.166	28006
810.308	28097
810.45	27949
810.591	27934
810.733	27892
810.875	27580
811.016	27595
811.158	27622
811.299	27755
811.441	27846
811.582	27816
811.724	27739
811.865	27739
812.007	27724
812.148	27747
812.29	27622
812.431	27819
812.573	27991
812.714	28204
812.855	28158
812.997	28325
813.138	28341
813.279	28226
813.421	28249
813.562	28181
813.703	28109
813.845	27675
813.986	27591
814.127	27644
814.268	27542
814.41	27408
814.551	27325
814.692	27382
814.833	27405
814.974	27321
815.115	27458
815.256	27294
815.397	27283
815.539	27237
815.68	27188
815.821	27123
815.962	27093
816.103	27203
816.244	27085
816.385	26963
816.526	27028
816.666	26845
816.807	26731
816.948	26716
817.089	26861
817.23	26716
817.371	26594
817.512	26644
817.653	26769
817.793	26552
817.934	26564
818.075	26606
818.216	26625
818.356	26537
818.497	26549
818.638	26347
818.778	26237
818.919	26434
819.06	26636
819.2	26594
819.341	26640
819.481	26788
819.622	26762
819.762	26796
819.903	26819
820.043	26883
820.184	26765
820.324	26674
820.465	26781
820.605	26746
820.746	26785
820.886	26651
821.026	26735
821.167	26655
821.307	26678
821.447	26606
821.588	26682
821.728	26404
821.868	26259
822.008	26214
822.149	26168
822.289	26012
822.429	25913
822.569	25700
822.709	25731
822.849	25586
822.99	25594
823.13	25582
823.27	25556
823.41	25358
823.55	25266
823.69	25464
823.83	25434
823.97	25362
824.11	25312
824.25	25335
824.389	25213
824.529	25266
824.669	25255
824.809	25354
824.949	25308
825.089	25415
825.228	25293
825.368	25069
825.508	25034
825.648	25114
825.787	25175
825.927	25095
826.067	24966
826.206	25107
826.346	25152
826.485	25114
826.625	24989
826.765	25145
826.904	25084
827.044	24783
827.183	24867
827.323	24654
827.462	24821
827.601	24867
827.741	24684
827.88	24711
828.02	24749
828.159	24791
828.298	24871
828.437	24867
828.577	24795
828.716	24817
828.855	24795
828.994	24593
829.134	24448
829.273	24536
829.412	24448
829.551	24445
829.69	24410
829.829	24563
829.968	24654
830.107	24544
830.246	24570
830.385	24422
830.524	24353
830.663	24410
830.802	24205
830.941	24110
831.08	24114
831.219	24205
831.357	24148
831.496	24342
831.635	24060
831.774	24015
831.913	23996
832.051	23954
832.19	23916
832.329	23923
832.467	23817
832.606	23684
832.744	23805
832.883	23741
833.022	23790
833.16	23764
833.299	23836
833.437	23893
833.576	23889
833.714	23752
833.852	24011
833.991	23973
834.129	23958
834.267	23885
834.406	23756
834.544	23870
834.682	23874
834.821	23893
834.959	24045
835.097	23821
835.235	23813
835.373	23882
835.511	23882
835.65	23722
835.788	23676
835.926	23558
836.064	23581
836.202	23482
836.34	23718
836.478	23760
836.615	23551
836.753	23714
836.891	23676
837.029	23611
837.167	23630
837.305	23463
837.443	23649
837.58	23516
837.718	23566
837.856	23535
837.993	23501
838.131	23398
838.269	23349
838.406	23490
838.544	23349
838.681	23155
838.819	23181
838.956	22991
839.094	23136
839.231	23208
839.369	23162
839.506	23368
839.643	23220
839.781	22980
839.918	22847
840.055	22919
840.193	22866
840.33	22820
840.467	22869
840.604	23033
840.742	23143
840.879	22850
841.016	22866
841.153	22908
841.29	23037
841.427	22889
841.564	22987
841.701	22759
841.838	22889
841.975	22839
842.112	22782
842.249	22668
842.385	22500
842.522	22889
842.659	22790
842.796	22683
842.933	22615
843.069	22580
843.206	22664
843.343	22809
843.479	22592
843.616	22645
843.752	22322
843.889	22478
844.025	22634
844.162	22413
844.298	22554
844.435	22413
844.571	22417
844.708	22577
844.844	22634
844.98	22599
845.117	22462
845.253	22367
845.389	22234
845.525	22344
845.661	22299
845.798	22257
845.934	22261
846.07	22120
846.206	22185
846.342	22276
846.478	22101
846.614	21903
846.75	21918
846.886	22086
847.022	21941
847.158	21953
847.294	21968
847.429	21960
847.565	21846
847.701	22135
847.837	21679
847.972	21629
848.108	21637
848.244	21679
848.379	21603
848.515	21488
848.65	21450
848.786	21439
848.921	21625
849.057	21633
849.192	21625
849.328	21507
849.463	21416
849.598	21477
849.734	21447
849.869	21344
850.004	21260
850.14	21329
850.275	21363
850.41	21203
850.545	21256
850.68	21207
850.815	21256
850.95	21302
851.085	21458
851.22	21348
851.355	21340
851.49	21226
851.625	21203
851.76	21279
851.895	21173
852.03	21180
852.165	21203
852.299	21226
852.434	21344
852.569	21180
852.703	21275
852.838	21302
852.973	21336
853.107	21351
853.242	21237
853.376	21104
853.511	20971
853.645	20967
853.78	21169
853.914	21169
854.048	21028
854.183	21169
854.317	21127
854.451	21211
854.585	21188
854.72	21081
854.854	21287
854.988	21116
855.122	21032
855.256	20982
855.39	21104
855.524	21176
855.658	21062
855.792	21089
855.926	21150
856.06	21146
856.194	21226
856.327	21039
856.461	21169
856.595	21077
856.729	21074
856.862	21237
856.996	21123
857.13	21146
857.263	21230
857.397	21302
857.53	21077
857.664	21131
857.797	21165
857.931	21279
858.064	21165
858.197	21199
858.331	21116
858.464	20895
858.597	20914
858.731	21066
858.864	21013
858.997	20975
859.13	21150
859.263	21093
859.396	21245
859.529	21032
859.662	20990
859.795	21017
859.928	21104
860.061	21325
860.194	21207
860.327	21226
860.46	21081
860.592	21344
860.725	21230
860.858	21108
860.99	21218
861.123	21096
861.256	21001
861.388	21058
861.521	21797
861.653	21001
861.786	20941
861.918	21043
862.05	21039
862.183	21051
862.315	21017
862.447	20960
862.58	21009
862.712	20762
862.844	20899
862.976	20921
863.108	20963
863.24	21135
863.372	20720
863.504	20857
863.636	20830
863.768	20929
863.9	20769
864.032	20773
864.164	20773
864.296	20819
864.428	20857
864.559	20891
864.691	20800
864.823	20777
864.954	20830
865.086	20861
865.217	20716
865.349	20655
865.48	20823
865.612	20731
865.743	20921
865.875	20830
866.006	20796
866.137	20705
866.269	20670
866.4	20606
866.531	20689
866.662	20682
866.793	20689
866.924	20701
867.055	20686
867.186	20667
867.317	20678
867.448	20568
867.579	20583
867.71	20431
867.841	20522
867.972	20537
868.103	20590
868.233	20670
868.364	20689
868.495	20754
868.625	20921
868.756	21096
868.886	20906
869.017	20830
869.147	20982
869.278	20948
869.408	20880
869.539	20887
869.669	21001
869.799	21009
869.929	21100
870.06	21043
870.19	21192
870.32	21036
870.45	21195
870.58	21279
870.71	21431
870.84	21325
870.97	21249
871.1	21211
871.23	21462
871.36	21496
871.489	21378
871.619	21549
871.749	21511
871.879	21424
872.008	21542
872.138	21591
872.267	21481
872.397	21397
872.526	21329
872.656	21397
872.785	21310
872.915	21538
873.044	21561
873.173	21564
873.303	21583
873.432	21652
873.561	21534
873.69	21526
873.819	21469
873.948	21542
874.077	21477
874.206	21458
874.335	21492
874.464	21641
874.593	21641
874.722	21717
874.851	21743
874.979	21701
875.108	21793
875.237	21705
875.365	21568
875.494	21720
875.623	21667
875.751	21759
875.88	21785
876.008	21774
876.136	22010
876.265	22158
876.393	22200
876.521	22207
876.65	22185
876.778	22226
876.906	22044
877.034	22173
877.162	22067
877.29	22063
877.418	22158
877.546	21991
877.674	22124
877.802	22032
877.93	22067
878.058	21994
878.185	21960
878.313	22070
878.441	22105
878.568	21960
878.696	21998
878.824	22070
878.951	22101
879.079	22181
879.206	22459
879.333	22242
879.461	22242
879.588	22116
879.715	22173
879.842	22398
879.97	22207
880.097	21903
880.224	21846
880.351	22002
880.478	21907
880.605	21812
880.732	21854
880.859	22090
880.986	21922
881.112	21949
881.239	21838
881.366	21698
881.493	21564
881.619	21523
881.746	21542
881.872	21450
881.999	21370
882.125	21485
882.252	21515
882.378	21469
882.505	21587
882.631	21359
882.757	21184
882.883	21245
883.01	21165
883.136	21222
883.262	20979
883.388	21039
883.514	21146
883.64	21214
883.766	21077
883.892	20952
884.018	20956
884.143	21154
884.269	21211
884.395	20963
884.52	20819
884.646	20876
884.772	20781
884.897	20735
885.023	20800
885.148	20872
885.274	21020
885.399	20895
885.524	20842
885.65	20849
885.775	20868
885.9	20754
886.025	20914
886.15	20887
886.275	20826
886.4	20758
886.525	20826
886.65	20811
886.775	20697
886.9	20899
887.025	20933
887.149	20731
887.274	20590
887.399	20648
887.523	20556
887.648	20583
887.773	20438
887.897	20689
888.021	20727
888.146	20549
888.27	20667
888.395	20739
888.519	20674
888.643	20651
888.767	20583
888.891	20473
889.015	20370
889.139	20415
889.263	20450
889.387	20556
889.511	20587
889.635	20537
889.759	20408
889.883	20358
890.006	20393
890.13	20454
890.254	20336
890.377	20370
890.501	20103
890.624	20214
890.748	20153
890.871	19989
890.995	19936
891.118	19906
891.241	20005
891.364	19868
891.488	20138
891.611	19849
891.734	19936
891.857	19982
891.98	20054
892.103	20065
892.226	20058
892.349	19959
892.471	19784
892.594	19887
892.717	19947
892.839	19841
892.962	19879
893.085	19970
893.207	19890
893.33	19913
893.452	19917
893.575	19925
893.697	19833
893.819	20100
893.941	20058
894.064	19993
894.186	19814
894.308	19849
894.43	19849
894.552	19978
894.674	19982
894.796	19814
894.918	19852
895.04	19791
895.161	19978
895.283	19986
895.405	19894
895.526	19822
895.648	19807
895.769	19921
895.891	19932
896.012	19921
896.134	19753
896.255	19879
896.376	19803
896.498	19769
896.619	19852
896.74	19788
896.861	19932
896.982	20145
897.103	20450
897.224	20202
897.345	20084
897.466	20206
897.587	20149
897.708	20233
897.828	20142
897.949	20100
898.07	19982
898.19	19993
898.311	20092
898.431	20088
898.552	20069
898.672	20122
898.792	20229
898.913	20046
899.033	20092
899.153	20024
899.273	19837
899.393	19894
899.513	19909
899.633	19822
899.753	19845
899.873	19780
899.993	19818
900.113	19837
900.232	19715
900.352	19769
900.472	19772
900.591	19632
900.711	19613
900.83	19613
900.95	19685
901.069	19700
901.189	19590
901.308	19377
901.427	19266
901.546	19190
901.665	19168
901.784	19266
901.904	19118
902.023	18970
902.141	18844
902.26	18764
902.379	18867
902.498	18703
902.617	18703
902.735	18806
902.854	18669
902.973	18642
903.091	18441
903.21	18369
903.328	18319
903.446	18338
903.565	18159
903.683	18346
903.801	18106
903.919	18174
904.038	18068
904.156	17988
904.274	18053
904.392	18026
904.51	18026
904.627	17946
904.745	18015
904.863	17969
904.981	17817
905.098	17676
905.216	17642
905.334	17733
905.451	17649
905.569	17615
905.686	17596
905.803	17657
905.921	17467
906.038	17566
906.155	17532
906.272	17391
906.389	17429
906.506	17220
906.623	17178
906.74	17166
906.857	16980
906.974	17083
907.091	17170
907.208	17334
907.324	17277
907.441	17166
907.557	16984
907.674	16991
907.79	16869
907.907	16908
908.023	16953
908.139	16949
908.256	16862
908.372	16763
908.488	16774
908.604	16687
908.72	16698
908.836	16706
908.952	16664
909.068	16626
909.184	16694
909.3	16702
909.415	16618
909.531	16607
909.647	16424
909.762	16284
909.878	16341
909.993	16333
910.108	16341
910.224	16306
910.339	16303
910.454	16257
910.57	16192
910.685	15964
910.8	16295
910.915	16246
911.03	16147
911.145	15975
911.259	16002
911.374	15994
911.489	15869
911.604	15762
911.718	15637
911.833	15724
911.947	15564
912.062	15504
912.176	15564
912.291	15660
912.405	15694
912.519	15751
912.633	15846
912.748	15770
912.862	15637
912.976	15530
913.09	15401
913.204	15317
913.318	15473
913.431	15576
913.545	15576
913.659	15637
913.772	15469
913.886	15264
914	15359
914.113	15325
914.226	15378
914.34	15420
914.453	15252
914.566	15268
914.68	15195
914.793	15176
914.906	15024
915.019	14853
915.132	14864
915.245	14902
915.358	14960
915.47	14963
915.583	14944
915.696	14899
915.809	15013
915.921	15085
916.034	14815
916.146	14857
916.259	14823
916.371	14838
916.483	14842
916.595	14762
916.708	14754
916.82	14792
916.932	14686
917.044	14625
917.156	14621
917.268	14648
917.38	14625
917.491	14537
917.603	14541
917.715	14735
917.826	14651
917.938	14583
918.049	14408
918.161	14484
918.272	14670
918.384	14625
918.495	14560
918.606	14385
918.717	14248
918.828	14389
918.939	14450
919.05	14153
919.161	14358
919.272	14149
919.383	14149
919.494	14324
919.604	14537
919.715	14328
919.826	14176
919.936	14313
920.047	14450
920.157	14301
920.267	14541
920.378	14396
920.488	14248
920.598	14370
920.708	14651
920.818	14465
920.928	14457
921.038	14545
921.148	14518
921.258	14336
921.368	14161
921.477	14092
921.587	14062
921.697	13928
921.806	14073
921.916	13890
922.025	13799
922.134	13757
922.244	13685
922.353	13765
922.462	13666
922.571	13445
922.68	13362
922.789	13270
922.898	13384
923.007	13183
923.116	13335
923.224	13331
923.333	13331
923.442	13168
923.55	13126
923.659	13289
923.767	13327
923.876	13103
923.984	13183
924.092	13072
924.201	13110
924.309	13034
924.417	13034
924.525	13004
924.633	13114
924.741	13769
924.849	12722
924.956	12985
925.064	12791
925.172	12650
925.279	12753
925.387	12753
925.494	12768
925.602	12928
925.709	12795
925.816	12650
925.924	12726
926.031	12730
926.138	12722
926.245	12692
926.352	12589
926.459	12749
926.566	12711
926.673	12582
926.779	12555
926.886	12540
926.993	12346
927.099	12334
927.206	12239
927.312	12270
927.419	12315
927.525	12342
927.631	12388
927.737	12254
927.843	12186
927.95	12125
928.056	12155
928.162	12140
928.267	12270
928.373	12776
928.479	12311
928.585	12030
928.69	12125
928.796	12182
928.901	12007
929.007	11870
929.112	12007
929.218	11927
929.323	11863
929.428	11958
929.533	12041
929.638	11840
929.743	11897
929.848	11920
929.953	11748
930.058	11760
930.163	11627
930.267	11600
930.372	11760
930.477	11573
930.581	11748
930.685	11642
930.79	11402
930.894	11512
930.998	11509
931.103	11630
931.207	11261
931.311	11193
931.415	11071
931.519	10847
931.623	10869
