Data from test_V78500241_198.txt Node
Date: Fri Mar 25 15:11:14 CST 2022
User: usil
Spectrometer: V785-0024
Trigger mode: 0
Integration Time (sec): 4.000000E-1
Scans to average: 1
Nonlinearity correction enabled: false
Boxcar width: 0
Storing dark spectrum: false
XAxis mode: Wavelengths
Number of Pixels in Spectrum: 1024
>>>>>Begin Spectral Data<<<<<
801.071	28055
801.214	28181
801.356	27842
801.499	27770
801.641	27736
801.783	27622
801.926	27732
802.068	27454
802.211	27477
802.353	27431
802.496	27408
802.638	27256
802.78	27237
802.923	27207
803.065	27104
803.208	27230
803.35	27249
803.492	27344
803.635	27374
803.777	27249
803.919	27386
804.061	27557
804.204	27317
804.346	27230
804.488	27085
804.63	27367
804.773	27058
804.915	27207
805.057	27340
805.199	27359
805.341	27329
805.483	27298
805.626	27302
805.768	27382
805.91	27401
806.052	27447
806.194	27367
806.336	27545
806.478	27294
806.62	27386
806.762	27549
806.904	27568
807.046	27816
807.188	27876
807.33	27892
807.472	27762
807.614	27781
807.756	27644
807.898	27618
808.04	27481
808.182	27538
808.324	27447
808.465	27564
808.607	27648
808.749	27804
808.891	27994
809.033	28158
809.174	28036
809.316	27899
809.458	28010
809.6	28025
809.741	27934
809.883	27975
810.025	28192
810.166	28226
810.308	28238
810.45	28131
810.591	28017
810.733	27892
810.875	27873
811.016	27808
811.158	27762
811.299	28101
811.441	28070
811.582	27968
811.724	27797
811.865	27873
812.007	27819
812.148	27903
812.29	27880
812.431	28051
812.573	28158
812.714	28166
812.855	28348
812.997	28470
813.138	28801
813.279	28489
813.421	28382
813.562	28352
813.703	28181
813.845	28082
813.986	27808
814.127	27595
814.268	27542
814.41	27507
814.551	27466
814.692	27606
814.833	27454
814.974	27477
815.115	27526
815.256	27279
815.397	27180
815.539	27245
815.68	27188
815.821	27176
815.962	27287
816.103	27237
816.244	27283
816.385	27089
816.526	26990
816.666	26902
816.807	26693
816.948	26838
817.089	26823
817.23	26754
817.371	26644
817.512	26613
817.653	26686
817.793	26461
817.934	26670
818.075	26621
818.216	26826
818.356	26686
818.497	26697
818.638	26278
818.778	26453
818.919	26370
819.06	26518
819.2	26404
819.341	26693
819.481	26587
819.622	26667
819.762	26929
819.903	26815
820.043	26815
820.184	26731
820.324	26693
820.465	26750
820.605	26811
820.746	26644
820.886	26503
821.026	26796
821.167	26663
821.307	26682
821.447	26568
821.588	26598
821.728	26294
821.868	26233
822.008	26172
822.149	26027
822.289	26115
822.429	25753
822.569	25814
822.709	25731
822.849	25491
822.99	25594
823.13	25499
823.27	25483
823.41	25320
823.55	25244
823.69	25415
823.83	25377
823.97	25171
824.11	25171
824.25	25141
824.389	25228
824.529	25217
824.669	25164
824.809	25263
824.949	25365
825.089	25206
825.228	25179
825.368	24943
825.508	24996
825.648	25069
825.787	25008
825.927	25129
826.067	25080
826.206	24913
826.346	24935
826.485	24966
826.625	24890
826.765	24924
826.904	24996
827.044	24764
827.183	24684
827.323	24642
827.462	24620
827.601	24623
827.741	24688
827.88	24620
828.02	24547
828.159	24585
828.298	24700
828.437	24825
828.577	24464
828.716	24711
828.855	24608
828.994	24426
829.134	24300
829.273	24418
829.412	24296
829.551	24426
829.69	24483
829.829	24285
829.968	24429
830.107	24353
830.246	24304
830.385	24190
830.524	24273
830.663	24201
830.802	24018
830.941	23942
831.08	23843
831.219	24038
831.357	23901
831.496	24106
831.635	23840
831.774	23897
831.913	23760
832.051	23783
832.19	23665
832.329	23718
832.467	23585
832.606	23501
832.744	23558
832.883	23558
833.022	23589
833.16	23611
833.299	23695
833.437	23600
833.576	23680
833.714	23649
833.852	23729
833.991	23699
834.129	23733
834.267	23600
834.406	23573
834.544	23653
834.682	23634
834.821	23551
834.959	23733
835.097	23490
835.235	23570
835.373	23585
835.511	23665
835.65	23493
835.788	23429
835.926	23303
836.064	23231
836.202	23299
836.34	23543
836.478	23585
836.615	23467
836.753	23528
836.891	23554
837.029	23497
837.167	23364
837.305	23334
837.443	23307
837.58	23315
837.718	23307
837.856	23292
837.993	23254
838.131	23227
838.269	23109
838.406	23041
838.544	23048
838.681	22889
838.819	22816
838.956	22641
839.094	22736
839.231	22683
839.369	22892
839.506	23128
839.643	22892
839.781	22702
839.918	22557
840.055	22717
840.193	22691
840.33	22584
840.467	22702
840.604	22637
840.742	22961
840.879	22382
841.016	22588
841.153	22531
841.29	22653
841.427	22698
841.564	22611
841.701	22569
841.838	22573
841.975	22535
842.112	22637
842.249	22337
842.385	22409
842.522	22508
842.659	22341
842.796	22386
842.933	22356
843.069	22379
843.206	22109
843.343	22535
843.479	22333
843.616	22413
843.752	22150
843.889	22169
844.025	22382
844.162	22097
844.298	22246
844.435	22101
844.571	22063
844.708	22116
844.844	22341
844.98	22253
845.117	22166
845.253	22086
845.389	22048
845.525	21956
845.661	21876
845.798	21857
845.934	21876
846.07	21743
846.206	21781
846.342	22017
846.478	21766
846.614	21667
846.75	21629
846.886	21561
847.022	21663
847.158	21515
847.294	21648
847.429	21698
847.565	21610
847.701	21842
847.837	21336
847.972	21233
848.108	21317
848.244	21325
848.379	21279
848.515	21138
848.65	21047
848.786	21260
848.921	21100
849.057	21283
849.192	21230
849.328	21268
849.463	21066
849.598	21173
849.734	21070
849.869	20887
850.004	20868
850.14	20857
850.275	20902
850.41	20750
850.545	20758
850.68	20807
850.815	20933
850.95	20815
851.085	20921
851.22	20960
851.355	20823
851.49	20765
851.625	20902
851.76	20811
851.895	20606
852.03	20716
852.165	20781
852.299	20941
852.434	20948
852.569	20880
852.703	20845
852.838	20933
852.973	20944
853.107	20918
853.242	20842
853.376	20739
853.511	20522
853.645	20663
853.78	20727
853.914	20807
854.048	20636
854.183	20587
854.317	20667
854.451	20842
854.585	20731
854.72	20579
854.854	20819
854.988	20625
855.122	20575
855.256	20556
855.39	20792
855.524	20773
855.658	20701
855.792	20686
855.926	20609
856.06	20697
856.194	20807
856.327	20575
856.461	20606
856.595	20568
856.729	20640
856.862	20807
856.996	20609
857.13	20743
857.263	20796
857.397	20762
857.53	20636
857.664	20754
857.797	20712
857.931	20731
858.064	20788
858.197	20823
858.331	20541
858.464	20545
858.597	20507
858.731	20530
858.864	20663
858.997	20545
859.13	20716
859.263	20716
859.396	20693
859.529	20583
859.662	20556
859.795	20689
859.928	20705
860.061	20864
860.194	20762
860.327	20689
860.46	20651
860.592	20682
860.725	20777
860.858	20731
860.99	20560
861.123	20629
861.256	20503
861.388	20678
861.521	21504
861.653	20412
861.786	20415
861.918	20518
862.05	20606
862.183	20663
862.315	20629
862.447	20579
862.58	20632
862.712	20237
862.844	20351
862.976	20377
863.108	20408
863.24	20842
863.372	20301
863.504	20210
863.636	20442
863.768	20381
863.9	20343
864.032	20138
864.164	20256
864.296	20370
864.428	20419
864.559	20404
864.691	20343
864.823	20271
864.954	20358
865.086	20263
865.217	20218
865.349	20210
865.48	20225
865.612	20221
865.743	20396
865.875	20355
866.006	20130
866.137	20351
866.269	20248
866.4	20218
866.531	20084
866.662	20199
866.793	20267
866.924	20016
867.055	20145
867.186	20229
867.317	20176
867.448	20008
867.579	20027
867.71	20031
867.841	20130
867.972	20199
868.103	20149
868.233	20305
868.364	20168
868.495	20275
868.625	20385
868.756	20419
868.886	20366
869.017	20385
869.147	20514
869.278	20629
869.408	20537
869.539	20427
869.669	20450
869.799	20514
869.929	20602
870.06	20488
870.19	20712
870.32	20727
870.45	20716
870.58	20811
870.71	20895
870.84	20979
870.97	20800
871.1	20727
871.23	20948
871.36	20921
871.489	20868
871.619	20994
871.749	20815
871.879	21131
872.008	21074
872.138	20902
872.267	20956
872.397	20804
872.526	20845
872.656	20826
872.785	20807
872.915	21032
873.044	21184
873.173	21028
873.303	21070
873.432	21013
873.561	21009
873.69	21032
873.819	20971
873.948	21123
874.077	21028
874.206	20982
874.335	21062
874.464	21028
874.593	21203
874.722	21226
874.851	21298
874.979	21302
875.108	21355
875.237	21237
875.365	21264
875.494	21188
875.623	21279
875.751	21195
875.88	21447
876.008	21416
876.136	21405
876.265	21633
876.393	21759
876.521	21720
876.65	21561
876.778	21644
876.906	21690
877.034	21690
877.162	21572
877.29	21568
877.418	21705
877.546	21538
877.674	21686
877.802	21656
877.93	21610
878.058	21576
878.185	21622
878.313	21587
878.441	21660
878.568	21310
878.696	21511
878.824	21743
878.951	21652
879.079	21679
879.206	21918
879.333	21747
879.461	21599
879.588	21698
879.715	21759
879.842	21892
879.97	21625
880.097	21428
880.224	21443
880.351	21511
880.478	21549
880.605	21374
880.732	21500
880.859	21648
880.986	21507
881.112	21428
881.239	21355
881.366	21230
881.493	21100
881.619	21047
881.746	20982
881.872	21089
881.999	21096
882.125	20944
882.252	20986
882.378	21013
882.505	21127
882.631	21032
882.757	20777
882.883	20925
883.01	20826
883.136	20689
883.262	20556
883.388	20640
883.514	20792
883.64	20834
883.766	20697
883.892	20594
884.018	20587
884.143	20739
884.269	20629
884.395	20537
884.52	20415
884.646	20484
884.772	20389
884.897	20259
885.023	20389
885.148	20541
885.274	20629
885.399	20514
885.524	20389
885.65	20545
885.775	20389
885.9	20442
886.025	20511
886.15	20457
886.275	20259
886.4	20396
886.525	20282
886.65	20320
886.775	20309
886.9	20492
887.025	20549
887.149	20347
887.274	20206
887.399	20138
887.523	20225
887.648	20073
887.773	20016
887.897	20252
888.021	20142
888.146	20065
888.27	20142
888.395	20336
888.519	20252
888.643	20134
888.767	20161
888.891	20077
889.015	20020
889.139	19982
889.263	19967
889.387	20115
889.511	20134
889.635	20172
889.759	19913
889.883	19974
890.006	19917
890.13	20027
890.254	19871
890.377	19902
890.501	19742
890.624	19605
890.748	19769
890.871	19651
890.995	19487
891.118	19480
891.241	19643
891.364	19518
891.488	19708
891.611	19567
891.734	19548
891.857	19563
891.98	19563
892.103	19525
892.226	19514
892.349	19464
892.471	19453
892.594	19552
892.717	19548
892.839	19392
892.962	19434
893.085	19510
893.207	19445
893.33	19282
893.452	19381
893.575	19499
893.697	19308
893.819	19624
893.941	19738
894.064	19552
894.186	19468
894.308	19358
894.43	19605
894.552	19590
894.674	19472
894.796	19244
894.918	19362
895.04	19373
895.161	19563
895.283	19430
895.405	19438
895.526	19449
895.648	19422
895.769	19464
895.891	19537
896.012	19571
896.134	19544
896.255	19445
896.376	19384
896.498	19438
896.619	19483
896.74	19468
896.861	19502
896.982	19807
897.103	19932
897.224	19742
897.345	19780
897.466	19613
897.587	19666
897.708	19868
897.828	19856
897.949	19616
898.07	19476
898.19	19609
898.311	19765
898.431	19605
898.552	19571
898.672	19689
898.792	19643
898.913	19670
899.033	19567
899.153	19407
899.273	19411
899.393	19304
899.513	19369
899.633	19415
899.753	19502
899.873	19266
899.993	19499
900.113	19388
900.232	19403
900.352	19301
900.472	19324
900.591	19088
900.711	19209
900.83	19217
900.95	19346
901.069	19266
901.189	19042
901.308	18821
901.427	18871
901.546	18909
901.665	18825
901.784	18840
901.904	18700
902.023	18585
902.141	18395
902.26	18448
902.379	18418
902.498	18346
902.617	18296
902.735	18304
902.854	18235
902.973	18190
903.091	18026
903.21	18022
903.328	17889
903.446	17821
903.565	17775
903.683	17764
903.801	17703
903.919	17817
904.038	17710
904.156	17581
904.274	17653
904.392	17570
904.51	17535
904.627	17604
904.745	17615
904.863	17596
904.981	17307
905.098	17277
905.216	17277
905.334	17204
905.451	17303
905.569	17250
905.686	17292
905.803	17121
905.921	17025
906.038	17151
906.155	16991
906.272	16957
906.389	16900
906.506	16790
906.623	16778
906.74	16778
906.857	16710
906.974	16634
907.091	16694
907.208	16854
907.324	16801
907.441	16717
907.557	16504
907.674	16424
907.79	16291
907.907	16382
908.023	16554
908.139	16554
908.256	16421
908.372	16356
908.488	16295
908.604	16169
908.72	16188
908.836	16135
908.952	16105
909.068	16173
909.184	16299
909.3	16128
909.415	16188
909.531	16196
909.647	15911
909.762	15941
909.878	15915
909.993	15915
910.108	15785
910.224	15823
910.339	15884
910.454	15686
910.57	15618
910.685	15553
910.8	15846
910.915	15728
911.03	15713
911.145	15515
911.259	15469
911.374	15481
911.489	15431
911.604	15313
911.718	15199
911.833	15264
911.947	15085
912.062	14971
912.176	15256
912.291	15230
912.405	15195
912.519	15454
912.633	15329
912.748	15279
912.862	15074
912.976	15032
913.09	14861
913.204	14967
913.318	15089
913.431	15100
913.545	15119
913.659	15085
913.772	14902
913.886	14921
914	14811
914.113	14910
914.226	14998
914.34	14982
914.453	14777
914.566	14933
914.68	14815
914.793	14739
914.906	14594
915.019	14488
915.132	14446
915.245	14587
915.358	14492
915.47	14492
915.583	14465
915.696	14465
915.809	14610
915.921	14617
916.034	14309
916.146	14339
916.259	14362
916.371	14545
916.483	14415
916.595	14271
916.708	14275
916.82	14374
916.932	14256
917.044	14339
917.156	14214
917.268	14100
917.38	14180
917.491	14168
917.603	14145
917.715	14248
917.826	14233
917.938	14145
918.049	13959
918.161	14142
918.272	14191
918.384	14187
918.495	14024
918.606	13993
918.717	13830
918.828	13845
918.939	14043
919.05	13864
919.161	13959
919.272	13712
919.383	13746
919.494	13936
919.604	13967
919.715	13906
919.826	13822
919.936	13826
920.047	13963
920.157	13784
920.267	14081
920.378	13917
920.488	13807
920.598	14069
920.708	14176
920.818	14092
920.928	13993
921.038	14050
921.148	14103
921.258	13723
921.368	13765
921.477	13605
921.587	13666
921.697	13582
921.806	13674
921.916	13510
922.025	13373
922.134	13266
922.244	13217
922.353	13320
922.462	13209
922.571	13099
922.68	12856
922.789	12859
922.898	12882
923.007	12852
923.116	12867
923.224	12886
923.333	12871
923.442	12734
923.55	12787
923.659	12730
923.767	12806
923.876	12696
923.984	12810
924.092	12639
924.201	12711
924.309	12665
924.417	12684
924.525	12616
924.633	12639
924.741	13320
924.849	12391
924.956	12437
925.064	12403
925.172	12277
925.279	12403
925.387	12448
925.494	12346
925.602	12532
925.709	12426
925.816	12308
925.924	12323
926.031	12452
926.138	12365
926.245	12319
926.352	12289
926.459	12289
926.566	12346
926.673	12239
926.779	12140
926.886	12045
926.993	11973
927.099	12030
927.206	11866
927.312	11931
927.419	11920
927.525	11942
927.631	11965
927.737	11779
927.843	11748
927.95	11726
928.056	11680
928.162	11729
928.267	11851
928.373	12300
928.479	11843
928.585	11634
928.69	11752
928.796	11866
928.901	11642
929.007	11532
929.112	11707
929.218	11608
929.323	11467
929.428	11497
929.533	11532
929.638	11429
929.743	11501
929.848	11516
929.953	11356
930.058	11383
930.163	11204
930.267	11193
930.372	11311
930.477	11208
930.581	11398
930.685	11265
930.79	11090
930.894	11185
930.998	11067
931.103	11269
931.207	10904
931.311	10793
931.415	10668
931.519	10493
931.623	10443
