Data from test_V78500241_290.txt Node
Date: Fri Mar 25 15:11:52 CST 2022
User: usil
Spectrometer: V785-0024
Trigger mode: 0
Integration Time (sec): 4.000000E-1
Scans to average: 1
Nonlinearity correction enabled: false
Boxcar width: 0
Storing dark spectrum: false
XAxis mode: Wavelengths
Number of Pixels in Spectrum: 1024
>>>>>Begin Spectral Data<<<<<
801.071	27751
801.214	27793
801.356	27500
801.499	27389
801.641	27161
801.783	27306
801.926	27264
802.068	27211
802.211	27138
802.353	27055
802.496	26762
802.638	26891
802.78	26750
802.923	26651
803.065	26689
803.208	26560
803.35	26724
803.492	26899
803.635	26933
803.777	26792
803.919	27043
804.061	27313
804.204	26864
804.346	26807
804.488	26804
804.63	26918
804.773	26838
804.915	26982
805.057	27055
805.199	26956
805.341	26914
805.483	27150
805.626	27047
805.768	27001
805.91	26998
806.052	27093
806.194	26998
806.336	27161
806.478	27112
806.62	26948
806.762	27119
806.904	27325
807.046	27469
807.188	27325
807.33	27336
807.472	27549
807.614	27351
807.756	27222
807.898	27195
808.04	27252
808.182	27108
808.324	27211
808.465	27173
808.607	27363
808.749	27534
808.891	27679
809.033	27835
809.174	27717
809.316	27667
809.458	27511
809.6	27443
809.741	27648
809.883	27675
810.025	27774
810.166	27823
810.308	27861
810.45	27827
810.591	27701
810.733	27660
810.875	27576
811.016	27481
811.158	27439
811.299	27641
811.441	27778
811.582	27603
811.724	27424
811.865	27599
812.007	27450
812.148	27606
812.29	27530
812.431	27690
812.573	27835
812.714	27998
812.855	28059
812.997	28303
813.138	28318
813.279	28371
813.421	28086
813.562	28109
813.703	27831
813.845	27793
813.986	27416
814.127	27310
814.268	27268
814.41	27199
814.551	27256
814.692	27260
814.833	27161
814.974	27287
815.115	27188
815.256	27051
815.397	27024
815.539	27062
815.68	26967
815.821	26918
815.962	27135
816.103	26979
816.244	26883
816.385	26785
816.526	26689
816.666	26522
816.807	26339
816.948	26537
817.089	26541
817.23	26480
817.371	26412
817.512	26320
817.653	26427
817.793	26355
817.934	26617
818.075	26530
818.216	26511
818.356	26469
818.497	26305
818.638	26138
818.778	26138
818.919	26153
819.06	26267
819.2	26343
819.341	26537
819.481	26343
819.622	26442
819.762	26621
819.903	26708
820.043	26571
820.184	26408
820.324	26488
820.465	26602
820.605	26492
820.746	26469
820.886	26358
821.026	26404
821.167	26381
821.307	26450
821.447	26305
821.588	26237
821.728	26206
821.868	26046
822.008	25826
822.149	25860
822.289	25856
822.429	25666
822.569	25422
822.709	25510
822.849	25369
822.99	25377
823.13	25156
823.27	25320
823.41	25168
823.55	25091
823.69	25076
823.83	25118
823.97	25095
824.11	24894
824.25	24924
824.389	24992
824.529	24943
824.669	25015
824.809	25091
824.949	25034
825.089	24996
825.228	25008
825.368	24810
825.508	24856
825.648	24806
825.787	24867
825.927	24920
826.067	24696
826.206	24844
826.346	24776
826.485	24749
826.625	24711
826.765	24722
826.904	24817
827.044	24498
827.183	24616
827.323	24521
827.462	24681
827.601	24433
827.741	24365
827.88	24555
828.02	24422
828.159	24483
828.298	24372
828.437	24551
828.577	24494
828.716	24570
828.855	24311
828.994	24026
829.134	24228
829.273	24174
829.412	24133
829.551	24091
829.69	24190
829.829	24087
829.968	24319
830.107	24232
830.246	24258
830.385	24152
830.524	24041
830.663	24163
830.802	23935
830.941	23809
831.08	23760
831.219	23802
831.357	23764
831.496	24038
831.635	23729
831.774	23828
831.913	23657
832.051	23581
832.19	23589
832.329	23566
832.467	23417
832.606	23417
832.744	23421
832.883	23368
833.022	23448
833.16	23425
833.299	23433
833.437	23455
833.576	23486
833.714	23482
833.852	23558
833.991	23493
834.129	23676
834.267	23573
834.406	23406
834.544	23486
834.682	23414
834.821	23387
834.959	23627
835.097	23421
835.235	23528
835.373	23444
835.511	23402
835.65	23330
835.788	23421
835.926	23052
836.064	23235
836.202	23075
836.34	23353
836.478	23520
836.615	23345
836.753	23288
836.891	23417
837.029	23239
837.167	23349
837.305	23349
837.443	23200
837.58	23223
837.718	23083
837.856	23322
837.993	23162
838.131	23166
838.269	23109
838.406	23140
838.544	22953
838.681	22809
838.819	22752
838.956	22626
839.094	22641
839.231	22645
839.369	22748
839.506	22953
839.643	22816
839.781	22500
839.918	22550
840.055	22630
840.193	22542
840.33	22649
840.467	22546
840.604	22573
840.742	22740
840.879	22386
841.016	22523
841.153	22489
841.29	22504
841.427	22500
841.564	22432
841.701	22641
841.838	22455
841.975	22508
842.112	22352
842.249	22238
842.385	22322
842.522	22535
842.659	22318
842.796	22116
842.933	22238
843.069	22234
843.206	22276
843.343	22276
843.479	22230
843.616	22204
843.752	22010
843.889	21968
844.025	22192
844.162	21979
844.298	22032
844.435	22070
844.571	22002
844.708	21941
844.844	22188
844.98	22219
845.117	22109
845.253	22048
845.389	21911
845.525	21953
845.661	21922
845.798	21694
845.934	21774
846.07	21682
846.206	21812
846.342	21915
846.478	21739
846.614	21637
846.75	21439
846.886	21477
847.022	21557
847.158	21504
847.294	21572
847.429	21526
847.565	21359
847.701	21679
847.837	21131
847.972	21199
848.108	21294
848.244	21241
848.379	21180
848.515	21116
848.65	21074
848.786	21039
848.921	20902
849.057	21157
849.192	21119
849.328	21055
849.463	21116
849.598	21077
849.734	20872
849.869	20990
850.004	20834
850.14	20914
850.275	20800
850.41	20716
850.545	20773
850.68	20800
850.815	20899
850.95	20781
851.085	20902
851.22	20963
851.355	20845
851.49	20716
851.625	20853
851.76	20754
851.895	20811
852.03	20796
852.165	20804
852.299	20727
852.434	20883
852.569	20830
852.703	20823
852.838	20899
852.973	20941
853.107	20864
853.242	20765
853.376	20583
853.511	20518
853.645	20590
853.78	20887
853.914	20598
854.048	20606
854.183	20514
854.317	20701
854.451	20849
854.585	20640
854.72	20549
854.854	20632
854.988	20499
855.122	20571
855.256	20499
855.39	20473
855.524	20712
855.658	20598
855.792	20552
855.926	20651
856.06	20644
856.194	20788
856.327	20659
856.461	20419
856.595	20583
856.729	20571
856.862	20762
856.996	20636
857.13	20712
857.263	20834
857.397	20792
857.53	20575
857.664	20564
857.797	20765
857.931	20636
858.064	20613
858.197	20621
858.331	20476
858.464	20632
858.597	20602
858.731	20514
858.864	20522
858.997	20632
859.13	20621
859.263	20670
859.396	20682
859.529	20560
859.662	20632
859.795	20598
859.928	20640
860.061	20838
860.194	20785
860.327	20609
860.46	20522
860.592	20845
860.725	20590
860.858	20674
860.99	20594
861.123	20431
861.256	20507
861.388	20629
861.521	21260
861.653	20488
861.786	20434
861.918	20461
862.05	20431
862.183	20552
862.315	20613
862.447	20731
862.58	20590
862.712	20290
862.844	20332
862.976	20594
863.108	20309
863.24	20754
863.372	20202
863.504	20313
863.636	20461
863.768	20396
863.9	20221
864.032	20305
864.164	20199
864.296	20381
864.428	20454
864.559	20301
864.691	20339
864.823	20381
864.954	20358
865.086	20301
865.217	20218
865.349	20134
865.48	20210
865.612	20278
865.743	20355
865.875	20130
866.006	20290
866.137	20126
866.269	20153
866.4	20138
866.531	20202
866.662	20122
866.793	20172
866.924	20161
867.055	20115
867.186	20199
867.317	20107
867.448	20016
867.579	20050
867.71	20077
867.841	20046
867.972	20164
868.103	20084
868.233	20100
868.364	20103
868.495	20252
868.625	20366
868.756	20442
868.886	20294
869.017	20381
869.147	20450
869.278	20434
869.408	20446
869.539	20389
869.669	20450
869.799	20427
869.929	20511
870.06	20461
870.19	20686
870.32	20667
870.45	20746
870.58	20708
870.71	20857
870.84	20921
870.97	20823
871.1	20861
871.23	21017
871.36	21017
871.489	20933
871.619	20902
871.749	21009
871.879	21043
872.008	21138
872.138	21066
872.267	20880
872.397	20872
872.526	20864
872.656	20861
872.785	20929
872.915	20998
873.044	21077
873.173	20986
873.303	21108
873.432	20952
873.561	21108
873.69	21032
873.819	20982
873.948	21013
874.077	21039
874.206	21043
874.335	21093
874.464	21100
874.593	21275
874.722	21192
874.851	21260
874.979	21275
875.108	21233
875.237	21268
875.365	21203
875.494	21260
875.623	21272
875.751	21157
875.88	21237
876.008	21405
876.136	21507
876.265	21675
876.393	21698
876.521	21724
876.65	21618
876.778	21530
876.906	21633
877.034	21580
877.162	21652
877.29	21561
877.418	21648
877.546	21595
877.674	21739
877.802	21599
877.93	21656
878.058	21580
878.185	21496
878.313	21679
878.441	21553
878.568	21447
878.696	21576
878.824	21724
878.951	21713
879.079	21800
879.206	21854
879.333	21869
879.461	21580
879.588	21686
879.715	21793
879.842	21854
879.97	21713
880.097	21458
880.224	21408
880.351	21557
880.478	21477
880.605	21447
880.732	21355
880.859	21545
880.986	21458
881.112	21355
881.239	21378
881.366	21260
881.493	21119
881.619	20986
881.746	21024
881.872	21093
881.999	20994
882.125	21039
882.252	21017
882.378	20902
882.505	21077
882.631	20819
882.757	20682
882.883	20937
883.01	20800
883.136	20667
883.262	20674
883.388	20648
883.514	20609
883.64	20693
883.766	20575
883.892	20495
884.018	20594
884.143	20667
884.269	20792
884.395	20564
884.52	20336
884.646	20415
884.772	20294
884.897	20172
885.023	20450
885.148	20503
885.274	20450
885.399	20476
885.524	20530
885.65	20446
885.775	20358
885.9	20351
886.025	20503
886.15	20530
886.275	20305
886.4	20343
886.525	20221
886.65	20355
886.775	20275
886.9	20415
887.025	20613
887.149	20366
887.274	20092
887.399	20172
887.523	20214
887.648	20138
887.773	20134
887.897	20138
888.021	20161
888.146	20100
888.27	20214
888.395	20259
888.519	20202
888.643	20195
888.767	20252
888.891	20176
889.015	19909
889.139	19932
889.263	19982
889.387	19997
889.511	20077
889.635	20096
889.759	19951
889.883	19883
890.006	19967
890.13	19970
890.254	19742
890.377	19856
890.501	19727
890.624	19655
890.748	19658
890.871	19666
890.995	19521
891.118	19624
891.241	19632
891.364	19552
891.488	19613
891.611	19495
891.734	19392
891.857	19620
891.98	19434
892.103	19556
892.226	19468
892.349	19438
892.471	19438
892.594	19521
892.717	19438
892.839	19476
892.962	19495
893.085	19495
893.207	19445
893.33	19308
893.452	19392
893.575	19567
893.697	19468
893.819	19563
893.941	19449
894.064	19643
894.186	19384
894.308	19362
894.43	19441
894.552	19483
894.674	19396
894.796	19419
894.918	19434
895.04	19396
895.161	19578
895.283	19441
895.405	19403
895.526	19373
895.648	19343
895.769	19487
895.891	19476
896.012	19537
896.134	19556
896.255	19483
896.376	19327
896.498	19468
896.619	19590
896.74	19415
896.861	19506
896.982	19784
897.103	19993
897.224	19818
897.345	19670
897.466	19731
897.587	19655
897.708	19868
897.828	19681
897.949	19616
898.07	19445
898.19	19658
898.311	19594
898.431	19597
898.552	19704
898.672	19731
898.792	19757
898.913	19620
899.033	19472
899.153	19346
899.273	19293
899.393	19499
899.513	19521
899.633	19365
899.753	19426
899.873	19449
899.993	19510
900.113	19491
900.232	19460
900.352	19274
900.472	19255
900.591	19221
900.711	19179
900.83	19190
900.95	19343
901.069	19175
901.189	19156
901.308	18996
901.427	18764
901.546	18829
901.665	18863
901.784	18810
901.904	18627
902.023	18570
902.141	18452
902.26	18285
902.379	18475
902.498	18304
902.617	18277
902.735	18296
902.854	18327
902.973	18235
903.091	18041
903.21	17931
903.328	17946
903.446	17798
903.565	17821
903.683	17863
903.801	17668
903.919	17843
904.038	17737
904.156	17611
904.274	17668
904.392	17501
904.51	17562
904.627	17649
904.745	17630
904.863	17554
904.981	17376
905.098	17220
905.216	17204
905.334	17178
905.451	17143
905.569	17185
905.686	17220
905.803	17265
905.921	17048
906.038	17231
906.155	17147
906.272	16946
906.389	16980
906.506	16843
906.623	16809
906.74	16797
906.857	16687
906.974	16687
907.091	16900
907.208	16862
907.324	16820
907.441	16717
907.557	16516
907.674	16569
907.79	16497
907.907	16565
908.023	16599
908.139	16466
908.256	16409
908.372	16344
908.488	16356
908.604	16192
908.72	16177
908.836	16181
908.952	16192
909.068	16287
909.184	16333
909.3	16090
909.415	16196
909.531	16131
909.647	15895
909.762	15918
909.878	15831
909.993	15953
910.108	15926
910.224	15880
910.339	15956
910.454	15770
910.57	15705
910.685	15637
910.8	16025
910.915	15713
911.03	15698
911.145	15576
911.259	15507
911.374	15530
911.489	15405
911.604	15401
911.718	15272
911.833	15272
911.947	15195
912.062	15108
912.176	15260
912.291	15329
912.405	15268
912.519	15386
912.633	15477
912.748	15214
912.862	15275
912.976	15039
913.09	15070
913.204	15077
913.318	15104
913.431	15154
913.545	15192
913.659	15184
913.772	15036
913.886	14975
914	14792
914.113	14933
914.226	14925
914.34	14956
914.453	14777
914.566	14838
914.68	14819
914.793	14769
914.906	14606
915.019	14575
915.132	14473
915.245	14541
915.358	14632
915.47	14476
915.583	14499
915.696	14533
915.809	14552
915.921	14655
916.034	14492
916.146	14480
916.259	14431
916.371	14408
916.483	14511
916.595	14343
916.708	14267
916.82	14339
916.932	14294
917.044	14286
917.156	14298
917.268	14191
917.38	14187
917.491	14088
917.603	14077
917.715	14225
917.826	14286
917.938	14168
918.049	14081
918.161	14206
918.272	14256
918.384	14267
918.495	14161
918.606	13955
918.717	14008
918.828	13921
918.939	14084
919.05	13902
919.161	13913
919.272	13849
919.383	13856
919.494	13940
919.604	14233
919.715	13986
919.826	13830
919.936	13849
920.047	13993
920.157	13799
920.267	14126
920.378	13970
920.488	13989
920.598	14138
920.708	14271
920.818	14050
920.928	14065
921.038	14240
921.148	14225
921.258	13871
921.368	13894
921.477	13639
921.587	13700
921.697	13578
921.806	13677
921.916	13609
922.025	13335
922.134	13411
922.244	13217
922.353	13297
922.462	13297
922.571	13122
922.68	13076
922.789	12989
922.898	12985
923.007	12867
923.116	13023
923.224	12935
923.333	12894
923.442	12848
923.55	12848
923.659	12875
923.767	12840
923.876	12806
923.984	12878
924.092	12684
924.201	12798
924.309	12669
924.417	12787
924.525	12753
924.633	12745
924.741	13434
924.849	12403
924.956	12654
925.064	12521
925.172	12502
925.279	12448
925.387	12521
925.494	12486
925.602	12570
925.709	12483
925.816	12410
925.924	12315
926.031	12448
926.138	12506
926.245	12338
926.352	12319
926.459	12517
926.566	12410
926.673	12361
926.779	12270
926.886	12163
926.993	12034
927.099	12038
927.206	11965
927.312	12011
927.419	12140
927.525	12011
927.631	12079
927.737	11969
927.843	11897
927.95	11847
928.056	11836
928.162	11843
928.267	11958
928.373	12490
928.479	11988
928.585	11752
928.69	11775
928.796	11809
928.901	11714
929.007	11562
929.112	11699
929.218	11627
929.323	11668
929.428	11657
929.533	11821
929.638	11577
929.743	11558
929.848	11554
929.953	11585
930.058	11467
930.163	11296
930.267	11341
930.372	11410
930.477	11273
930.581	11532
930.685	11311
930.79	11159
930.894	11193
930.998	11193
931.103	11269
931.207	10953
931.311	10900
931.415	10782
931.519	10607
931.623	10558
