Data from test_V78500241_497.txt Node
Date: Fri Mar 25 15:13:19 CST 2022
User: usil
Spectrometer: V785-0024
Trigger mode: 0
Integration Time (sec): 4.000000E-1
Scans to average: 1
Nonlinearity correction enabled: false
Boxcar width: 0
Storing dark spectrum: false
XAxis mode: Wavelengths
Number of Pixels in Spectrum: 1024
>>>>>Begin Spectral Data<<<<<
801.071	27561
801.214	27580
801.356	27321
801.499	27313
801.641	27252
801.783	27119
801.926	27317
802.068	27184
802.211	27096
802.353	26834
802.496	26880
802.638	26754
802.78	26796
802.923	26777
803.065	26609
803.208	26781
803.35	26773
803.492	27009
803.635	26948
803.777	26804
803.919	26967
804.061	27241
804.204	26899
804.346	26868
804.488	26823
804.63	26940
804.773	26777
804.915	26853
805.057	26925
805.199	26868
805.341	26887
805.483	26979
805.626	27009
805.768	26982
805.91	27116
806.052	27138
806.194	26979
806.336	27199
806.478	27020
806.62	27142
806.762	27112
806.904	27306
807.046	27572
807.188	27469
807.33	27374
807.472	27363
807.614	27249
807.756	27412
807.898	27367
808.04	27351
808.182	27264
808.324	27218
808.465	27222
808.607	27427
808.749	27637
808.891	27679
809.033	27778
809.174	27873
809.316	27629
809.458	27663
809.6	27561
809.741	27641
809.883	27808
810.025	27979
810.166	27857
810.308	28093
810.45	27972
810.591	27892
810.733	27766
810.875	27583
811.016	27648
811.158	27587
811.299	27648
811.441	27930
811.582	27743
811.724	27652
811.865	27500
812.007	27671
812.148	27595
812.29	27629
812.431	27793
812.573	27941
812.714	28082
812.855	28093
812.997	28382
813.138	28344
813.279	28318
813.421	28109
813.562	28162
813.703	27869
813.845	27972
813.986	27701
814.127	27405
814.268	27378
814.41	27279
814.551	27420
814.692	27363
814.833	27180
814.974	27283
815.115	27321
815.256	27233
815.397	27199
815.539	27291
815.68	27058
815.821	27096
815.962	27104
816.103	26940
816.244	26933
816.385	26872
816.526	26883
816.666	26708
816.807	26545
816.948	26777
817.089	26697
817.23	26659
817.371	26629
817.512	26575
817.653	26632
817.793	26507
817.934	26636
818.075	26670
818.216	26621
818.356	26583
818.497	26446
818.638	26328
818.778	26275
818.919	26248
819.06	26366
819.2	26659
819.341	26594
819.481	26568
819.622	26731
819.762	27032
819.903	26830
820.043	26762
820.184	26621
820.324	26708
820.465	26765
820.605	26887
820.746	26746
820.886	26598
821.026	26758
821.167	26678
821.307	26609
821.447	26651
821.588	26503
821.728	26450
821.868	26225
822.008	26168
822.149	26077
822.289	25997
822.429	25845
822.569	25849
822.709	25841
822.849	25548
822.99	25685
823.13	25388
823.27	25415
823.41	25449
823.55	25369
823.69	25320
823.83	25343
823.97	25396
824.11	25232
824.25	25198
824.389	25168
824.529	25270
824.669	25061
824.809	25263
824.949	25308
825.089	25236
825.228	25240
825.368	25107
825.508	25080
825.648	25095
825.787	25091
825.927	25133
826.067	25118
826.206	25122
826.346	25095
826.485	24954
826.625	25160
826.765	25247
826.904	25091
827.044	24954
827.183	24951
827.323	24711
827.462	24886
827.601	24924
827.741	24715
827.88	24890
828.02	24719
828.159	24802
828.298	24749
828.437	24867
828.577	24700
828.716	24863
828.855	24715
828.994	24479
829.134	24486
829.273	24597
829.412	24502
829.551	24601
829.69	24471
829.829	24452
829.968	24597
830.107	24555
830.246	24460
830.385	24521
830.524	24433
830.663	24213
830.802	24304
830.941	24060
831.08	24060
831.219	24277
831.357	24148
831.496	24353
831.635	24140
831.774	24007
831.913	24026
832.051	23893
832.19	23942
832.329	23916
832.467	23931
832.606	23741
832.744	23726
832.883	23802
833.022	23661
833.16	23821
833.299	23874
833.437	23798
833.576	23878
833.714	23828
833.852	23946
833.991	23866
834.129	23863
834.267	23988
834.406	23847
834.544	23939
834.682	23866
834.821	23931
834.959	24087
835.097	23798
835.235	23908
835.373	23870
835.511	23821
835.65	23672
835.788	23722
835.926	23592
836.064	23543
836.202	23573
836.34	23745
836.478	23809
836.615	23790
836.753	23554
836.891	23828
837.029	23585
837.167	23627
837.305	23570
837.443	23493
837.58	23429
837.718	23729
837.856	23505
837.993	23497
838.131	23547
838.269	23512
838.406	23440
838.544	23440
838.681	23166
838.819	23166
838.956	22938
839.094	23052
839.231	23048
839.369	23246
839.506	23493
839.643	23261
839.781	23105
839.918	22987
840.055	22995
840.193	23006
840.33	22927
840.467	22873
840.604	22892
840.742	23258
840.879	22843
841.016	22900
841.153	22850
841.29	22991
841.427	23022
841.564	22991
841.701	22942
841.838	22900
841.975	22801
842.112	22854
842.249	22736
842.385	22592
842.522	22839
842.659	22752
842.796	22641
842.933	22854
843.069	22683
843.206	22698
843.343	22782
843.479	22721
843.616	22664
843.752	22485
843.889	22584
844.025	22603
844.162	22424
844.298	22565
844.435	22508
844.571	22519
844.708	22409
844.844	22592
844.98	22767
845.117	22565
845.253	22306
845.389	22394
845.525	22436
845.661	22375
845.798	22135
845.934	22318
846.07	22188
846.206	22329
846.342	22299
846.478	22234
846.614	21892
846.75	21941
846.886	21934
847.022	21998
847.158	21983
847.294	21930
847.429	22036
847.565	22051
847.701	22234
847.837	21770
847.972	21724
848.108	21682
848.244	21793
848.379	21599
848.515	21519
848.65	21443
848.786	21564
848.921	21519
849.057	21671
849.192	21637
849.328	21610
849.463	21564
849.598	21526
849.734	21439
849.869	21321
850.004	21416
850.14	21443
850.275	21370
850.41	21180
850.545	21306
850.68	21367
850.815	21367
850.95	21256
851.085	21416
851.22	21382
851.355	21310
851.49	21256
851.625	21313
851.76	21275
851.895	21275
852.03	21131
852.165	21420
852.299	21340
852.434	21420
852.569	21306
852.703	21359
852.838	21405
852.973	21420
853.107	21492
853.242	21245
853.376	21123
853.511	21028
853.645	21020
853.78	21249
853.914	21272
854.048	21085
854.183	21135
854.317	21146
854.451	21275
854.585	21161
854.72	21131
854.854	21207
854.988	21165
855.122	21066
855.256	21032
855.39	21127
855.524	21195
855.658	21142
855.792	21104
855.926	21176
856.06	21119
856.194	21138
856.327	21180
856.461	21089
856.595	21142
856.729	21074
856.862	21367
856.996	21184
857.13	21245
857.263	21268
857.397	21138
857.53	21146
857.664	21207
857.797	21283
857.931	21169
858.064	21119
858.197	21321
858.331	21180
858.464	20998
858.597	21116
858.731	21104
858.864	21081
858.997	21119
859.13	21195
859.263	21230
859.396	21192
859.529	21039
859.662	21188
859.795	20979
859.928	21123
860.061	21184
860.194	21226
860.327	21165
860.46	21100
860.592	21264
860.725	21332
860.858	21306
860.99	21058
861.123	20960
861.256	21203
861.388	21157
861.521	21812
861.653	21077
861.786	20941
861.918	21001
862.05	21066
862.183	20876
862.315	21058
862.447	21093
862.58	21028
862.712	20876
862.844	20868
862.976	20861
863.108	20883
863.24	21119
863.372	20834
863.504	20796
863.636	20845
863.768	20724
863.9	20800
864.032	20686
864.164	20800
864.296	20902
864.428	21013
864.559	20963
864.691	20895
864.823	20834
864.954	20765
865.086	20899
865.217	20887
865.349	20667
865.48	20769
865.612	20746
865.743	20876
865.875	20716
866.006	20750
866.137	20670
866.269	20785
866.4	20781
866.531	20613
866.662	20564
866.793	20648
866.924	20587
867.055	20705
867.186	20716
867.317	20621
867.448	20682
867.579	20678
867.71	20533
867.841	20613
867.972	20644
868.103	20697
868.233	20682
868.364	20689
868.495	20792
868.625	20868
868.756	21028
868.886	20883
869.017	20872
869.147	21020
869.278	21135
869.408	21013
869.539	21001
869.669	20948
869.799	21028
869.929	21081
870.06	21013
870.19	21207
870.32	21214
870.45	21306
870.58	21169
870.71	21416
870.84	21405
870.97	21420
871.1	21367
871.23	21530
871.36	21526
871.489	21374
871.619	21485
871.749	21378
871.879	21454
872.008	21686
872.138	21580
872.267	21530
872.397	21389
872.526	21329
872.656	21382
872.785	21393
872.915	21610
873.044	21705
873.173	21587
873.303	21511
873.432	21496
873.561	21804
873.69	21603
873.819	21523
873.948	21595
874.077	21458
874.206	21466
874.335	21622
874.464	21576
874.593	21694
874.722	21774
874.851	21778
874.979	21812
875.108	21827
875.237	21816
875.365	21618
875.494	21831
875.623	21838
875.751	21709
875.88	21751
876.008	21915
876.136	21949
876.265	22207
876.393	22257
876.521	22196
876.65	22276
876.778	22112
876.906	22124
877.034	22143
877.162	22101
877.29	22006
877.418	22036
877.546	22215
877.674	22101
877.802	22128
877.93	22162
878.058	22051
878.185	21895
878.313	22093
878.441	22101
878.568	22166
878.696	21972
878.824	22246
878.951	22257
879.079	22238
879.206	22421
879.333	22363
879.461	22070
879.588	22299
879.715	22230
879.842	22367
879.97	22200
880.097	21964
880.224	21987
880.351	21975
880.478	21774
880.605	21766
880.732	21884
880.859	22135
880.986	21945
881.112	21907
881.239	21789
881.366	21599
881.493	21557
881.619	21500
881.746	21454
881.872	21458
881.999	21538
882.125	21553
882.252	21622
882.378	21374
882.505	21534
882.631	21367
882.757	21241
882.883	21363
883.01	21245
883.136	21195
883.262	21131
883.388	21093
883.514	21275
883.64	21157
883.766	21169
883.892	20952
884.018	21043
884.143	21074
884.269	21222
884.395	20963
884.52	20853
884.646	20880
884.772	20765
884.897	20693
885.023	20853
885.148	20872
885.274	21066
885.399	20937
885.524	20902
885.65	20804
885.775	20876
885.9	20724
886.025	20941
886.15	20933
886.275	20811
886.4	20804
886.525	20914
886.65	20762
886.775	20834
886.9	20948
887.025	21104
887.149	20975
887.274	20644
887.399	20693
887.523	20621
887.648	20625
887.773	20579
887.897	20663
888.021	20651
888.146	20606
888.27	20731
888.395	20720
888.519	20590
888.643	20693
888.767	20857
888.891	20484
889.015	20374
889.139	20442
889.263	20457
889.387	20579
889.511	20511
889.635	20629
889.759	20374
889.883	20454
890.006	20484
890.13	20568
890.254	20298
890.377	20377
890.501	20119
890.624	20138
890.748	20259
890.871	20145
890.995	19967
891.118	20005
891.241	19932
891.364	20062
891.488	20050
891.611	19989
891.734	19959
891.857	19894
891.98	19936
892.103	19974
892.226	20122
892.349	19868
892.471	19772
892.594	19982
892.717	19887
892.839	19883
892.962	20065
893.085	19944
893.207	19830
893.33	19795
893.452	19757
893.575	19871
893.697	19906
893.819	20065
893.941	20115
894.064	20031
894.186	19856
894.308	19704
894.43	20001
894.552	20024
894.674	20062
894.796	19765
894.918	19913
895.04	19875
895.161	19989
895.283	19879
895.405	19833
895.526	19875
895.648	19845
895.769	19955
895.891	19959
896.012	19970
896.134	19864
896.255	19963
896.376	19890
896.498	19993
896.619	19830
896.74	19932
896.861	20001
896.982	20263
897.103	20396
897.224	20187
897.345	20172
897.466	20126
897.587	20210
897.708	20256
897.828	20062
897.949	20126
898.07	20035
898.19	19955
898.311	20195
898.431	20107
898.552	20111
898.672	20142
898.792	20286
898.913	20107
899.033	20039
899.153	19986
899.273	19894
899.393	19898
899.513	19841
899.633	19906
899.753	19887
899.873	19849
899.993	19811
900.113	19818
900.232	19670
900.352	19738
900.472	19693
900.591	19700
900.711	19639
900.83	19567
900.95	19784
901.069	19780
901.189	19525
901.308	19502
901.427	19236
901.546	19213
901.665	19289
901.784	19312
901.904	19023
902.023	19027
902.141	18859
902.26	18859
902.379	18848
902.498	18669
902.617	18684
902.735	18802
902.854	18665
902.973	18673
903.091	18509
903.21	18357
903.328	18323
903.446	18315
903.565	18213
903.683	18357
903.801	18167
903.919	18228
904.038	18178
904.156	18030
904.274	18076
904.392	17942
904.51	17977
904.627	17946
904.745	18083
904.863	17969
904.981	17798
905.098	17695
905.216	17729
905.334	17771
905.451	17718
905.569	17600
905.686	17748
905.803	17630
905.921	17562
906.038	17459
906.155	17440
906.272	17318
906.389	17429
906.506	17265
906.623	17223
906.74	17265
906.857	17105
906.974	17056
907.091	17239
907.208	17299
907.324	17261
907.441	17200
907.557	17022
907.674	16927
907.79	16896
907.907	16923
908.023	16953
908.139	16820
908.256	16938
908.372	16774
908.488	16835
908.604	16694
908.72	16744
908.836	16653
908.952	16618
909.068	16664
909.184	16736
909.3	16683
909.415	16698
909.531	16710
909.647	16348
909.762	16512
909.878	16428
909.993	16341
910.108	16386
910.224	16424
910.339	16447
910.454	16284
910.57	16192
910.685	16097
910.8	16367
910.915	16360
911.03	16143
911.145	15972
911.259	15876
911.374	15983
911.489	15831
911.604	15838
911.718	15705
911.833	15690
911.947	15667
912.062	15515
912.176	15720
912.291	15732
912.405	15667
912.519	15850
912.633	15854
912.748	15690
912.862	15720
912.976	15538
913.09	15447
913.204	15492
913.318	15504
913.431	15686
913.545	15576
913.659	15606
913.772	15443
913.886	15237
914	15249
914.113	15393
914.226	15458
914.34	15401
914.453	15214
914.566	15397
914.68	15272
914.793	15150
914.906	15058
915.019	14895
915.132	14826
915.245	14883
915.358	14990
915.47	14910
915.583	14902
915.696	14929
915.809	15093
915.921	15150
916.034	14948
916.146	14765
916.259	14963
916.371	14849
916.483	14933
916.595	14792
916.708	14830
916.82	14804
916.932	14743
917.044	14731
917.156	14708
917.268	14571
917.38	14651
917.491	14495
917.603	14575
917.715	14587
917.826	14743
917.938	14610
918.049	14495
918.161	14484
918.272	14697
918.384	14762
918.495	14568
918.606	14461
918.717	14286
918.828	14412
918.939	14412
919.05	14286
919.161	14377
919.272	14119
919.383	14229
919.494	14450
919.604	14571
919.715	14370
919.826	14294
919.936	14358
920.047	14339
920.157	14332
920.267	14473
920.378	14343
920.488	14248
920.598	14556
920.708	14701
920.818	14404
920.928	14568
921.038	14655
921.148	14518
921.258	14313
921.368	14187
921.477	14073
921.587	14096
921.697	13883
921.806	14088
921.916	13898
922.025	13750
922.134	13738
922.244	13639
922.353	13712
922.462	13582
922.571	13544
922.68	13506
922.789	13343
922.898	13388
923.007	13339
923.116	13415
923.224	13354
923.333	13339
923.442	13160
923.55	13168
923.659	13289
923.767	13259
923.876	13141
923.984	13213
924.092	13084
924.201	13110
924.309	13171
924.417	13149
924.525	13027
924.633	12996
924.741	13830
924.849	12795
924.956	12989
925.064	12909
925.172	12684
925.279	12757
925.387	12852
925.494	12753
925.602	12901
925.709	12913
925.816	12612
925.924	12620
926.031	12840
926.138	12829
926.245	12837
926.352	12677
926.459	12798
926.566	12821
926.673	12677
926.779	12593
926.886	12486
926.993	12467
927.099	12418
927.206	12292
927.312	12327
927.419	12376
927.525	12361
927.631	12361
927.737	12270
927.843	12178
927.95	12133
928.056	12182
928.162	12163
928.267	12125
928.373	12741
928.479	12311
928.585	12068
928.69	12140
928.796	12155
928.901	12026
929.007	11874
929.112	12087
929.218	12068
929.323	11920
929.428	11954
929.533	12030
929.638	11863
929.743	11893
929.848	11813
929.953	11885
930.058	11794
930.163	11585
930.267	11642
930.372	11668
930.477	11493
930.581	11733
930.685	11630
930.79	11471
930.894	11478
930.998	11448
931.103	11623
931.207	11227
931.311	11159
931.415	11086
931.519	10946
931.623	10862
