Data from test_V78500241_1532.txt Node
Date: Fri Mar 25 15:20:31 CST 2022
User: usil
Spectrometer: V785-0024
Trigger mode: 0
Integration Time (sec): 4.000000E-1
Scans to average: 1
Nonlinearity correction enabled: false
Boxcar width: 0
Storing dark spectrum: false
XAxis mode: Wavelengths
Number of Pixels in Spectrum: 1024
>>>>>Begin Spectral Data<<<<<
801.071	27953
801.214	28017
801.356	27774
801.499	27675
801.641	27523
801.783	27500
801.926	27739
802.068	27542
802.211	27583
802.353	27382
802.496	27256
802.638	27329
802.78	27279
802.923	27180
803.065	26986
803.208	27195
803.35	27317
803.492	27431
803.635	27462
803.777	27275
803.919	27477
804.061	27842
804.204	27587
804.346	27294
804.488	27283
804.63	27504
804.773	27351
804.915	27386
805.057	27477
805.199	27283
805.341	27492
805.483	27549
805.626	27462
805.768	27511
805.91	27583
806.052	27534
806.194	27515
806.336	27720
806.478	27709
806.62	27534
806.762	27808
806.904	27914
807.046	28166
807.188	28044
807.33	27953
807.472	28105
807.614	27918
807.756	27941
807.898	27949
808.04	27781
808.182	27899
808.324	27831
808.465	27766
808.607	28090
808.749	28188
808.891	28344
809.033	28249
809.174	28344
809.316	28226
809.458	28284
809.6	28143
809.741	28466
809.883	28341
810.025	28478
810.166	28523
810.308	28462
810.45	28459
810.591	28291
810.733	28242
810.875	28265
811.016	28112
811.158	28154
811.299	28238
811.441	28306
811.582	28280
811.724	28352
811.865	28314
812.007	28276
812.148	28166
812.29	28207
812.431	28588
812.573	28740
812.714	28759
812.855	28797
812.997	28729
813.138	28934
813.279	28888
813.421	28816
813.562	28736
813.703	28592
813.845	28390
813.986	28234
814.127	28021
814.268	27956
814.41	27953
814.551	27922
814.692	27945
814.833	27846
814.974	27949
815.115	27937
815.256	27728
815.397	27709
815.539	27884
815.68	27610
815.821	27755
815.962	27656
816.103	27709
816.244	27515
816.385	27564
816.526	27481
816.666	27256
816.807	27218
816.948	27264
817.089	27454
817.23	27317
817.371	27199
817.512	27199
817.653	27176
817.793	27077
817.934	27165
818.075	27272
818.216	27321
818.356	27211
818.497	27066
818.638	26876
818.778	26956
818.919	26849
819.06	26975
819.2	27093
819.341	27313
819.481	27119
819.622	27389
819.762	27591
819.903	27549
820.043	27416
820.184	27260
820.324	27408
820.465	27443
820.605	27317
820.746	27393
820.886	27237
821.026	27386
821.167	27195
821.307	27389
821.447	27275
821.588	27165
821.728	27039
821.868	26811
822.008	26659
822.149	26636
822.289	26739
822.429	26408
822.569	26343
822.709	26438
822.849	26240
822.99	26252
823.13	26164
823.27	26237
823.41	26119
823.55	26065
823.69	26161
823.83	25989
823.97	26062
824.11	25791
824.25	25856
824.389	25864
824.529	25921
824.669	25837
824.809	25970
824.949	25970
825.089	25875
825.228	26069
825.368	25616
825.508	25727
825.648	25803
825.787	25807
825.927	25822
826.067	25666
826.206	25742
826.346	25788
826.485	25651
826.625	25776
826.765	25849
826.904	25776
827.044	25537
827.183	25506
827.323	25457
827.462	25525
827.601	25422
827.741	25518
827.88	25529
828.02	25274
828.159	25449
828.298	25449
828.437	25479
828.577	25335
828.716	25628
828.855	25240
828.994	25145
829.134	25053
829.273	25152
829.412	25057
829.551	24981
829.69	25232
829.829	25110
829.968	25244
830.107	25175
830.246	25240
830.385	25023
830.524	25042
830.663	24920
830.802	24901
830.941	24734
831.08	24837
831.219	24802
831.357	24951
831.496	25019
831.635	24753
831.774	24486
831.913	24612
832.051	24547
832.19	24323
832.329	24475
832.467	24555
832.606	24467
832.744	24380
832.883	24414
833.022	24391
833.16	24399
833.299	24521
833.437	24353
833.576	24563
833.714	24395
833.852	24608
833.991	24601
834.129	24486
834.267	24452
834.406	24612
834.544	24642
834.682	24509
834.821	24471
834.959	24593
835.097	24384
835.235	24616
835.373	24418
835.511	24376
835.65	24399
835.788	24224
835.926	24068
836.064	24182
836.202	24190
836.34	24273
836.478	24323
836.615	24224
836.753	24361
836.891	24479
837.029	24388
837.167	24300
837.305	24315
837.443	24186
837.58	24140
837.718	24125
837.856	24247
837.993	24163
838.131	24068
838.269	23977
838.406	24018
838.544	24007
838.681	23767
838.819	23882
838.956	23687
839.094	23615
839.231	23665
839.369	23745
839.506	24110
839.643	23813
839.781	23600
839.918	23649
840.055	23756
840.193	23634
840.33	23493
840.467	23577
840.604	23543
840.742	23710
840.879	23379
841.016	23463
841.153	23440
841.29	23687
841.427	23497
841.564	23642
841.701	23421
841.838	23505
841.975	23296
842.112	23490
842.249	23231
842.385	23235
842.522	23398
842.659	23341
842.796	23159
842.933	23284
843.069	23212
843.206	23315
843.343	23311
843.479	23307
843.616	23178
843.752	23029
843.889	23162
844.025	23239
844.162	23151
844.298	23269
844.435	23018
844.571	22965
844.708	23083
844.844	23292
844.98	23185
845.117	23143
845.253	22869
845.389	22987
845.525	22862
845.661	22869
845.798	22736
845.934	22828
846.07	22790
846.206	22885
846.342	22801
846.478	22736
846.614	22489
846.75	22382
846.886	22451
847.022	22523
847.158	22447
847.294	22618
847.429	22546
847.565	22470
847.701	22771
847.837	22158
847.972	22268
848.108	22443
848.244	22360
848.379	22272
848.515	22017
848.65	22166
848.786	22040
848.921	22188
849.057	22162
849.192	22268
849.328	22158
849.463	22093
849.598	22055
849.734	21953
849.869	21937
850.004	21895
850.14	21808
850.275	21903
850.41	21850
850.545	21698
850.68	21778
850.815	21850
850.95	21850
851.085	21934
851.22	21949
851.355	21934
851.49	21804
851.625	21781
851.76	21709
851.895	21827
852.03	21686
852.165	21789
852.299	21854
852.434	21895
852.569	21888
852.703	21903
852.838	21888
852.973	21926
853.107	21934
853.242	21869
853.376	21751
853.511	21618
853.645	21690
853.78	21743
853.914	21679
854.048	21736
854.183	21743
854.317	21724
854.451	21846
854.585	21720
854.72	21698
854.854	21739
854.988	21709
855.122	21641
855.256	21534
855.39	21690
855.524	21778
855.658	21690
855.792	21644
855.926	21724
856.06	21751
856.194	21785
856.327	21675
856.461	21610
856.595	21618
856.729	21713
856.862	21694
856.996	21625
857.13	21705
857.263	21755
857.397	21739
857.53	21652
857.664	21618
857.797	21797
857.931	21732
858.064	21599
858.197	21778
858.331	21587
858.464	21652
858.597	21523
858.731	21682
858.864	21606
858.997	21660
859.13	21618
859.263	21644
859.396	21759
859.529	21633
859.662	21591
859.795	21557
859.928	21694
860.061	21857
860.194	21888
860.327	21766
860.46	21660
860.592	21728
860.725	21854
860.858	21755
860.99	21736
861.123	21622
861.256	21568
861.388	21747
861.521	22348
861.653	21614
861.786	21401
861.918	21507
862.05	21686
862.183	21591
862.315	21553
862.447	21656
862.58	21587
862.712	21420
862.844	21294
862.976	21386
863.108	21355
863.24	21690
863.372	21325
863.504	21363
863.636	21241
863.768	21393
863.9	21332
864.032	21313
864.164	21363
864.296	21302
864.428	21469
864.559	21428
864.691	21393
864.823	21397
864.954	21408
865.086	21310
865.217	21363
865.349	21127
865.48	21283
865.612	21294
865.743	21363
865.875	21127
866.006	21294
866.137	21237
866.269	21272
866.4	21180
866.531	21203
866.662	21150
866.793	21180
866.924	21211
867.055	21241
867.186	21119
867.317	21146
867.448	21062
867.579	21226
867.71	21138
867.841	21169
867.972	21154
868.103	21146
868.233	21214
868.364	21222
868.495	21401
868.625	21382
868.756	21481
868.886	21302
869.017	21302
869.147	21557
869.278	21542
869.408	21458
869.539	21447
869.669	21504
869.799	21519
869.929	21572
870.06	21583
870.19	21789
870.32	21720
870.45	21797
870.58	21861
870.71	21945
870.84	21907
870.97	21728
871.1	21778
871.23	21975
871.36	22067
871.489	21964
871.619	22040
871.749	22029
871.879	22013
872.008	22048
872.138	22070
872.267	21953
872.397	21994
872.526	21861
872.656	21915
872.785	21873
872.915	22101
873.044	22105
873.173	21991
873.303	22226
873.432	22101
873.561	22177
873.69	22025
873.819	22051
873.948	22105
874.077	22048
874.206	22036
874.335	21937
874.464	22086
874.593	22211
874.722	22135
874.851	22272
874.979	22287
875.108	22223
875.237	22310
875.365	22074
875.494	22166
875.623	22371
875.751	22169
875.88	22249
876.008	22409
876.136	22348
876.265	22622
876.393	22687
876.521	22710
876.65	22592
876.778	22592
876.906	22573
877.034	22527
877.162	22523
877.29	22702
877.418	22531
877.546	22584
877.674	22577
877.802	22535
877.93	22645
878.058	22527
878.185	22443
878.313	22451
878.441	22535
878.568	22375
878.696	22451
878.824	22656
878.951	22740
879.079	22782
879.206	22946
879.333	22683
879.461	22497
879.588	22679
879.715	22748
879.842	22892
879.97	22717
880.097	22276
880.224	22413
880.351	22535
880.478	22398
880.605	22436
880.732	22371
880.859	22519
880.986	22344
881.112	22371
881.239	22371
881.366	22135
881.493	22070
881.619	21956
881.746	21873
881.872	21998
881.999	21934
882.125	21998
882.252	21949
882.378	21968
882.505	21975
882.631	21880
882.757	21717
882.883	21660
883.01	21599
883.136	21610
883.262	21663
883.388	21420
883.514	21739
883.64	21709
883.766	21530
883.892	21412
884.018	21439
884.143	21770
884.269	21599
884.395	21378
884.52	21249
884.646	21408
884.772	21275
884.897	21135
885.023	21329
885.148	21325
885.274	21511
885.399	21348
885.524	21230
885.65	21302
885.775	21393
885.9	21397
886.025	21443
886.15	21355
886.275	21245
886.4	21214
886.525	21233
886.65	21192
886.775	21211
886.9	21408
887.025	21644
887.149	21302
887.274	21169
887.399	20994
887.523	21173
887.648	21055
887.773	20876
887.897	21135
888.021	21165
888.146	21009
888.27	21112
888.395	21074
888.519	21112
888.643	21051
888.767	21039
888.891	20918
889.015	20876
889.139	20857
889.263	20842
889.387	20956
889.511	21085
889.635	20960
889.759	20906
889.883	20887
890.006	20861
890.13	20956
890.254	20724
890.377	20724
890.501	20708
890.624	20621
890.748	20746
890.871	20716
890.995	20446
891.118	20358
891.241	20495
891.364	20465
891.488	20522
891.611	20454
891.734	20495
891.857	20438
891.98	20366
892.103	20438
892.226	20412
892.349	20423
892.471	20339
892.594	20271
892.717	20343
892.839	20252
892.962	20381
893.085	20347
893.207	20454
893.33	20286
893.452	20256
893.575	20305
893.697	20404
893.819	20389
893.941	20526
894.064	20450
894.186	20256
894.308	20309
894.43	20526
894.552	20438
894.674	20499
894.796	20336
894.918	20271
895.04	20366
895.161	20393
895.283	20446
895.405	20286
895.526	20374
895.648	20320
895.769	20358
895.891	20396
896.012	20412
896.134	20351
896.255	20473
896.376	20225
896.498	20298
896.619	20366
896.74	20313
896.861	20423
896.982	20670
897.103	20788
897.224	20575
897.345	20507
897.466	20568
897.587	20644
897.708	20746
897.828	20602
897.949	20590
898.07	20377
898.19	20461
898.311	20667
898.431	20374
898.552	20488
898.672	20579
898.792	20655
898.913	20568
899.033	20465
899.153	20427
899.273	20145
899.393	20343
899.513	20313
899.633	20286
899.753	20320
899.873	20111
899.993	20286
900.113	20271
900.232	20210
900.352	20164
900.472	20195
900.591	19913
900.711	20130
900.83	19967
900.95	20149
901.069	20062
901.189	19970
901.308	19639
901.427	19704
901.546	19685
901.665	19620
901.784	19651
901.904	19449
902.023	19518
902.141	19312
902.26	19202
902.379	19259
902.498	19175
902.617	19255
902.735	19168
902.854	19019
902.973	19046
903.091	18787
903.21	18924
903.328	18848
903.446	18745
903.565	18711
903.683	18604
903.801	18578
903.919	18559
904.038	18608
904.156	18441
904.274	18403
904.392	18258
904.51	18479
904.627	18350
904.745	18506
904.863	18448
904.981	18197
905.098	18095
905.216	18030
905.334	18022
905.451	18178
905.569	18019
905.686	18129
905.803	18007
905.921	17874
906.038	17874
906.155	17836
906.272	17809
906.389	17726
906.506	17497
906.623	17539
906.74	17558
906.857	17532
906.974	17482
907.091	17760
907.208	17619
907.324	17585
907.441	17452
907.557	17318
907.674	17337
907.79	17200
907.907	17299
908.023	17254
908.139	17273
908.256	17197
908.372	17178
908.488	17189
908.604	17033
908.72	16999
908.836	17064
908.952	16999
909.068	17075
909.184	17121
909.3	17067
909.415	17064
909.531	16991
909.647	16862
909.762	16824
909.878	16672
909.993	16778
910.108	16721
910.224	16634
910.339	16687
910.454	16637
910.57	16592
910.685	16519
910.8	16755
910.915	16668
911.03	16584
911.145	16470
911.259	16432
911.374	16341
911.489	16223
911.604	16200
911.718	16010
911.833	16021
911.947	15998
912.062	15888
912.176	16067
912.291	16021
912.405	15960
912.519	16238
912.633	16223
912.748	16013
912.862	16010
912.976	15922
913.09	15709
913.204	15850
913.318	15766
913.431	15991
913.545	15945
913.659	15994
913.772	15892
913.886	15808
914	15728
914.113	15755
914.226	15827
914.34	15781
914.453	15564
914.566	15724
914.68	15595
914.793	15576
914.906	15298
915.019	15389
915.132	15154
915.245	15260
915.358	15298
915.47	15340
915.583	15294
915.696	15359
915.809	15332
915.921	15462
916.034	15222
916.146	15245
916.259	15199
916.371	15203
916.483	15245
916.595	15142
916.708	15047
916.82	15154
916.932	15047
917.044	15093
917.156	15020
917.268	14868
917.38	14944
917.491	14899
917.603	14895
917.715	14929
917.826	15013
917.938	14804
918.049	14785
918.161	14845
918.272	15043
918.384	14975
918.495	14823
918.606	14678
918.717	14739
918.828	14823
918.939	14686
919.05	14636
919.161	14800
919.272	14450
919.383	14461
919.494	14610
919.604	14868
919.715	14613
919.826	14587
919.936	14678
920.047	14670
920.157	14682
920.267	14868
920.378	14644
920.488	14598
920.598	14868
920.708	14891
920.818	14807
920.928	14758
921.038	14979
921.148	14796
921.258	14465
921.368	14537
921.477	14298
921.587	14347
921.697	14290
921.806	14339
921.916	14237
922.025	14020
922.134	14035
922.244	14020
922.353	14062
922.462	13856
922.571	13807
922.68	13738
922.789	13613
922.898	13727
923.007	13559
923.116	13647
923.224	13559
923.333	13597
923.442	13491
923.55	13521
923.659	13468
923.767	13457
923.876	13441
923.984	13464
924.092	13362
924.201	13392
924.309	13350
924.417	13407
924.525	13335
924.633	13339
924.741	14069
924.849	13145
924.956	13308
925.064	13221
925.172	12996
925.279	13065
925.387	13137
925.494	13046
925.602	13156
925.709	13046
925.816	12951
925.924	13046
926.031	13118
926.138	12924
926.245	13000
926.352	12867
926.459	12993
926.566	12989
926.673	12970
926.779	12802
926.886	12783
926.993	12665
927.099	12608
927.206	12623
927.312	12574
927.419	12745
927.525	12631
927.631	12623
927.737	12479
927.843	12475
927.95	12323
928.056	12410
928.162	12437
928.267	12525
928.373	13103
928.479	12544
928.585	12213
928.69	12414
928.796	12467
928.901	12353
929.007	12190
929.112	12235
929.218	12262
929.323	12247
929.428	12243
929.533	12258
929.638	12152
929.743	12019
929.848	12175
929.953	12114
930.058	11931
930.163	11752
930.267	11889
930.372	11931
930.477	11786
930.581	11977
930.685	11958
930.79	11798
930.894	11722
930.998	11661
931.103	11874
931.207	11463
931.311	11448
931.415	11337
931.519	11128
931.623	11170
