Data from test_V78500241_2919.txt Node
Date: Fri Mar 25 15:30:11 CST 2022
User: usil
Spectrometer: V785-0024
Trigger mode: 0
Integration Time (sec): 4.000000E-1
Scans to average: 1
Nonlinearity correction enabled: false
Boxcar width: 0
Storing dark spectrum: false
XAxis mode: Wavelengths
Number of Pixels in Spectrum: 1024
>>>>>Begin Spectral Data<<<<<
801.071	27321
801.214	27230
801.356	27119
801.499	27017
801.641	26914
801.783	26724
801.926	26910
802.068	26708
802.211	26762
802.353	26735
802.496	26556
802.638	26549
802.78	26438
802.923	26484
803.065	26438
803.208	26469
803.35	26423
803.492	26632
803.635	26823
803.777	26621
803.919	26743
804.061	26990
804.204	26644
804.346	26564
804.488	26556
804.63	26651
804.773	26629
804.915	26716
805.057	26659
805.199	26667
805.341	26727
805.483	26792
805.626	26861
805.768	26644
805.91	26750
806.052	26853
806.194	26632
806.336	26914
806.478	26731
806.62	26830
806.762	26998
806.904	26940
807.046	27321
807.188	27192
807.33	27363
807.472	27313
807.614	27142
807.756	27070
807.898	27047
808.04	26982
808.182	26986
808.324	27024
808.465	27135
808.607	27256
808.749	27473
808.891	27424
809.033	27481
809.174	27481
809.316	27268
809.458	27298
809.6	27492
809.741	27542
809.883	27511
810.025	27751
810.166	27591
810.308	27614
810.45	27526
810.591	27595
810.733	27397
810.875	27329
811.016	27291
811.158	27211
811.299	27469
811.441	27511
811.582	27603
811.724	27374
811.865	27397
812.007	27233
812.148	27207
812.29	27485
812.431	27534
812.573	27667
812.714	27709
812.855	27861
812.997	27869
813.138	28196
813.279	27953
813.421	27831
813.562	27869
813.703	27728
813.845	27469
813.986	27340
814.127	27001
814.268	27081
814.41	27074
814.551	27009
814.692	27013
814.833	26910
814.974	26830
815.115	27074
815.256	26910
815.397	26796
815.539	26811
815.68	26777
815.821	26731
815.962	26800
816.103	26857
816.244	26697
816.385	26579
816.526	26697
816.666	26381
816.807	26107
816.948	26301
817.089	26446
817.23	26355
817.371	26396
817.512	26317
817.653	26225
817.793	26183
817.934	26252
818.075	26313
818.216	26172
818.356	26214
818.497	26024
818.638	25974
818.778	25989
818.919	25974
819.06	26168
819.2	26142
819.341	26393
819.481	26313
819.622	26385
819.762	26609
819.903	26533
820.043	26427
820.184	26408
820.324	26404
820.465	26465
820.605	26434
820.746	26320
820.886	26153
821.026	26374
821.167	26240
821.307	26301
821.447	26187
821.588	26111
821.728	26206
821.868	25845
822.008	25731
822.149	25868
822.289	25734
822.429	25628
822.569	25483
822.709	25632
822.849	25156
822.99	25206
823.13	25175
823.27	25148
823.41	25152
823.55	24890
823.69	25050
823.83	25050
823.97	24863
824.11	24806
824.25	24814
824.389	24882
824.529	24878
824.669	24806
824.809	24939
824.949	24958
825.089	24810
825.228	24928
825.368	24616
825.508	24730
825.648	24749
825.787	24802
825.927	24783
826.067	24635
826.206	24669
826.346	24620
826.485	24753
826.625	24642
826.765	24745
826.904	24764
827.044	24475
827.183	24517
827.323	24505
827.462	24578
827.601	24311
827.741	24494
827.88	24369
828.02	24235
828.159	24509
828.298	24467
828.437	24441
828.577	24380
828.716	24369
828.855	24407
828.994	24129
829.134	24182
829.273	24133
829.412	23992
829.551	24049
829.69	24015
829.829	24182
829.968	24114
830.107	24205
830.246	24087
830.385	24041
830.524	23923
830.663	23931
830.802	23942
830.941	23726
831.08	23805
831.219	23828
831.357	23901
831.496	23874
831.635	23718
831.774	23726
831.913	23592
832.051	23535
832.19	23566
832.329	23471
832.467	23349
832.606	23410
832.744	23296
832.883	23353
833.022	23360
833.16	23273
833.299	23444
833.437	23406
833.576	23547
833.714	23398
833.852	23524
833.991	23577
834.129	23562
834.267	23524
834.406	23440
834.544	23376
834.682	23528
834.821	23334
834.959	23585
835.097	23455
835.235	23528
835.373	23490
835.511	23356
835.65	23326
835.788	23398
835.926	23212
836.064	23083
836.202	23105
836.34	23273
836.478	23421
836.615	23265
836.753	23372
836.891	23356
837.029	23395
837.167	23307
837.305	23288
837.443	23239
837.58	23159
837.718	23208
837.856	23208
837.993	23044
838.131	23041
838.269	22961
838.406	23094
838.544	22942
838.681	22752
838.819	22786
838.956	22615
839.094	22622
839.231	22649
839.369	22866
839.506	22915
839.643	22923
839.781	22504
839.918	22508
840.055	22538
840.193	22577
840.33	22443
840.467	22523
840.604	22759
840.742	22904
840.879	22386
841.016	22679
841.153	22367
841.29	22493
841.427	22455
841.564	22527
841.701	22557
841.838	22489
841.975	22455
842.112	22489
842.249	22375
842.385	22306
842.522	22603
842.659	22451
842.796	22333
842.933	22238
843.069	22363
843.206	22207
843.343	22337
843.479	22348
843.616	22382
843.752	22059
843.889	22105
844.025	22280
844.162	21953
844.298	22128
844.435	22082
844.571	22093
844.708	22067
844.844	22150
844.98	22204
845.117	22109
845.253	21930
845.389	21895
845.525	21945
845.661	21861
845.798	21899
845.934	21892
846.07	21698
846.206	21823
846.342	21930
846.478	21835
846.614	21663
846.75	21481
846.886	21549
847.022	21694
847.158	21545
847.294	21576
847.429	21648
847.565	21519
847.701	21899
847.837	21222
847.972	21287
848.108	21367
848.244	21256
848.379	21123
848.515	21085
848.65	21070
848.786	21138
848.921	21252
849.057	21230
849.192	21161
849.328	21089
849.463	21062
849.598	21001
849.734	21009
849.869	20956
850.004	20853
850.14	20941
850.275	20963
850.41	20762
850.545	20891
850.68	20838
850.815	20899
850.95	20804
851.085	21127
851.22	21032
851.355	20902
851.49	20960
851.625	20845
851.76	20902
851.895	20758
852.03	20804
852.165	20891
852.299	20975
852.434	21039
852.569	20785
852.703	20857
852.838	20933
852.973	21043
853.107	20933
853.242	20754
853.376	20800
853.511	20549
853.645	20644
853.78	20834
853.914	20682
854.048	20720
854.183	20724
854.317	20727
854.451	20933
854.585	20701
854.72	20765
854.854	20769
854.988	20556
855.122	20686
855.256	20678
855.39	20583
855.524	20754
855.658	20762
855.792	20689
855.926	20701
856.06	20606
856.194	20762
856.327	20644
856.461	20712
856.595	20716
856.729	20590
856.862	20800
856.996	20788
857.13	20834
857.263	20773
857.397	20891
857.53	20598
857.664	20598
857.797	20693
857.931	20887
858.064	20689
858.197	20777
858.331	20720
858.464	20697
858.597	20648
858.731	20632
858.864	20667
858.997	20697
859.13	20667
859.263	20682
859.396	20769
859.529	20724
859.662	20746
859.795	20651
859.928	20667
860.061	20838
860.194	20948
860.327	20777
860.46	20720
860.592	20800
860.725	20815
860.858	20804
860.99	20667
861.123	20617
861.256	20773
861.388	20617
861.521	21241
861.653	20590
861.786	20499
861.918	20552
862.05	20667
862.183	20644
862.315	20689
862.447	20617
862.58	20777
862.712	20442
862.844	20400
862.976	20480
863.108	20575
863.24	21036
863.372	20320
863.504	20396
863.636	20400
863.768	20518
863.9	20480
864.032	20317
864.164	20446
864.296	20454
864.428	20480
864.559	20431
864.691	20454
864.823	20454
864.954	20389
865.086	20370
865.217	20328
865.349	20298
865.48	20301
865.612	20358
865.743	20488
865.875	20355
866.006	20400
866.137	20317
866.269	20355
866.4	20370
866.531	20233
866.662	20298
866.793	20393
866.924	20199
867.055	20328
867.186	20294
867.317	20126
867.448	20210
867.579	20282
867.71	20161
867.841	20259
867.972	20305
868.103	20248
868.233	20237
868.364	20164
868.495	20362
868.625	20587
868.756	20594
868.886	20385
869.017	20431
869.147	20655
869.278	20495
869.408	20484
869.539	20400
869.669	20609
869.799	20556
869.929	20590
870.06	20644
870.19	20773
870.32	20834
870.45	20777
870.58	20838
870.71	20952
870.84	20960
870.97	20838
871.1	20834
871.23	21020
871.36	21081
871.489	21112
871.619	21116
871.749	21058
871.879	21138
872.008	21165
872.138	21135
872.267	21154
872.397	20979
872.526	21001
872.656	20990
872.785	20944
872.915	21176
873.044	21272
873.173	21127
873.303	21252
873.432	21165
873.561	21298
873.69	21176
873.819	21123
873.948	21188
874.077	21131
874.206	21043
874.335	21138
874.464	21344
874.593	21279
874.722	21237
874.851	21428
874.979	21184
875.108	21389
875.237	21291
875.365	21230
875.494	21302
875.623	21458
875.751	21420
875.88	21469
876.008	21439
876.136	21606
876.265	21846
876.393	21781
876.521	21789
876.65	21766
876.778	21698
876.906	21705
877.034	21618
877.162	21736
877.29	21686
877.418	21701
877.546	21793
877.674	21770
877.802	21816
877.93	21701
878.058	21709
878.185	21633
878.313	21534
878.441	21701
878.568	21557
878.696	21724
878.824	21819
878.951	21854
879.079	21884
879.206	22040
879.333	21884
879.461	21774
879.588	21747
879.715	21823
879.842	22086
879.97	21739
880.097	21523
880.224	21610
880.351	21618
880.478	21587
880.605	21511
880.732	21572
880.859	21774
880.986	21504
881.112	21488
881.239	21405
881.366	21241
881.493	21252
881.619	21169
881.746	21127
881.872	21184
881.999	21089
882.125	21074
882.252	21116
882.378	21039
882.505	21161
882.631	20963
882.757	20921
882.883	20963
883.01	20876
883.136	20735
883.262	20636
883.388	20625
883.514	20876
883.64	20887
883.766	20712
883.892	20632
884.018	20583
884.143	20834
884.269	20887
884.395	20537
884.52	20526
884.646	20511
884.772	20518
884.897	20355
885.023	20476
885.148	20530
885.274	20613
885.399	20644
885.524	20454
885.65	20514
885.775	20507
885.9	20594
886.025	20518
886.15	20507
886.275	20469
886.4	20366
886.525	20389
886.65	20404
886.775	20434
886.9	20575
887.025	20590
887.149	20450
887.274	20362
887.399	20119
887.523	20252
887.648	20248
887.773	20134
887.897	20267
888.021	20320
888.146	20164
888.27	20267
888.395	20294
888.519	20229
888.643	20275
888.767	20278
888.891	20263
889.015	20050
889.139	20134
889.263	20111
889.387	20115
889.511	20244
889.635	20180
889.759	20096
889.883	19936
890.006	20054
890.13	20267
890.254	19913
890.377	19921
890.501	19818
890.624	19883
890.748	19902
890.871	19712
890.995	19632
891.118	19597
891.241	19651
891.364	19727
891.488	19658
891.611	19590
891.734	19635
891.857	19658
891.98	19616
892.103	19776
892.226	19693
892.349	19540
892.471	19510
892.594	19601
892.717	19624
892.839	19556
892.962	19567
893.085	19685
893.207	19624
893.33	19369
893.452	19392
893.575	19613
893.697	19468
893.819	19723
893.941	19757
894.064	19677
894.186	19514
894.308	19514
894.43	19632
894.552	19658
894.674	19662
894.796	19430
894.918	19373
895.04	19400
895.161	19578
895.283	19624
895.405	19529
895.526	19624
895.648	19601
895.769	19495
895.891	19643
896.012	19616
896.134	19666
896.255	19521
896.376	19529
896.498	19586
896.619	19616
896.74	19552
896.861	19613
896.982	19883
897.103	20096
897.224	19868
897.345	19822
897.466	19624
897.587	19856
897.708	19837
897.828	19894
897.949	19742
898.07	19628
898.19	19791
898.311	19913
898.431	19769
898.552	19849
898.672	19887
898.792	19788
898.913	19708
899.033	19635
899.153	19571
899.273	19460
899.393	19624
899.513	19495
899.633	19647
899.753	19529
899.873	19468
899.993	19590
900.113	19552
900.232	19575
900.352	19483
900.472	19476
900.591	19415
900.711	19453
900.83	19270
900.95	19480
901.069	19388
901.189	19324
901.308	19061
901.427	18897
901.546	19000
901.665	18897
901.784	18970
901.904	18863
902.023	18741
902.141	18486
902.26	18483
902.379	18460
902.498	18486
902.617	18445
902.735	18517
902.854	18494
902.973	18532
903.091	18114
903.21	18064
903.328	18034
903.446	17977
903.565	17912
903.683	17855
903.801	17809
903.919	17904
904.038	17923
904.156	17748
904.274	17726
904.392	17695
904.51	17653
904.627	17691
904.745	17756
904.863	17783
904.981	17592
905.098	17330
905.216	17311
905.334	17402
905.451	17414
905.569	17421
905.686	17467
905.803	17433
905.921	17124
906.038	17315
906.155	17178
906.272	17113
906.389	17075
906.506	16949
906.623	16965
906.74	16915
906.857	16816
906.974	16835
907.091	16946
907.208	17003
907.324	16850
907.441	16824
907.557	16679
907.674	16649
907.79	16489
907.907	16717
908.023	16615
908.139	16672
908.256	16546
908.372	16500
908.488	16512
908.604	16382
908.72	16310
908.836	16409
908.952	16318
909.068	16257
909.184	16440
909.3	16322
909.415	16455
909.531	16265
909.647	16063
909.762	16055
909.878	16074
909.993	16036
910.108	16078
910.224	16109
910.339	16169
910.454	15831
910.57	15960
910.685	15739
910.8	16071
910.915	16051
911.03	15964
911.145	15652
911.259	15637
911.374	15663
911.489	15587
911.604	15629
911.718	15431
911.833	15454
911.947	15359
912.062	15268
912.176	15538
912.291	15492
912.405	15447
912.519	15526
912.633	15599
912.748	15363
912.862	15393
912.976	15245
913.09	15199
913.204	15173
913.318	15222
913.431	15378
913.545	15313
913.659	15332
913.772	15211
913.886	15146
914	15142
914.113	15047
914.226	15161
914.34	14960
914.453	15058
914.566	15112
914.68	14910
914.793	14967
914.906	14773
915.019	14781
915.132	14579
915.245	14632
915.358	14712
915.47	14674
915.583	14644
915.696	14640
915.809	14800
915.921	14758
916.034	14552
916.146	14667
916.259	14602
916.371	14606
916.483	14617
916.595	14568
916.708	14564
916.82	14484
916.932	14419
917.044	14492
917.156	14408
917.268	14351
917.38	14358
917.491	14309
917.603	14305
917.715	14419
917.826	14412
917.938	14259
918.049	14252
918.161	14244
918.272	14495
918.384	14400
918.495	14309
918.606	14103
918.717	14088
918.828	14161
918.939	14088
919.05	13955
919.161	14103
919.272	13902
919.383	13997
919.494	14084
919.604	14282
919.715	14081
919.826	14035
919.936	14027
920.047	14119
920.157	14096
920.267	14301
920.378	14084
920.488	14039
920.598	14320
920.708	14366
920.818	14229
920.928	14202
921.038	14404
921.148	14374
921.258	14043
921.368	13940
921.477	13875
921.587	13738
921.697	13666
921.806	13753
921.916	13753
922.025	13506
922.134	13502
922.244	13415
922.353	13441
922.462	13464
922.571	13259
922.68	13194
922.789	13160
922.898	13206
923.007	13023
923.116	13152
923.224	13126
923.333	13072
923.442	13042
923.55	12916
923.659	12920
923.767	13034
923.876	12920
923.984	12973
924.092	12882
924.201	12867
924.309	12825
924.417	12909
924.525	12779
924.633	12810
924.741	13658
924.849	12563
924.956	12684
925.064	12642
925.172	12506
925.279	12608
925.387	12502
925.494	12570
925.602	12646
925.709	12574
925.816	12475
925.924	12547
926.031	12559
926.138	12498
926.245	12536
926.352	12399
926.459	12517
926.566	12532
926.673	12407
926.779	12327
926.886	12270
926.993	12197
927.099	12178
927.206	12015
927.312	12114
927.419	12254
927.525	12140
927.631	12087
927.737	12072
927.843	11996
927.95	11821
928.056	11885
928.162	11980
928.267	11996
928.373	12673
928.479	12022
928.585	11767
928.69	11912
928.796	11950
928.901	11771
929.007	11642
929.112	11866
929.218	11741
929.323	11775
929.428	11592
929.533	11790
929.638	11646
929.743	11630
929.848	11688
929.953	11604
930.058	11524
930.163	11417
930.267	11490
930.372	11577
930.477	11455
930.581	11619
930.685	11501
930.79	11322
930.894	11315
930.998	11277
931.103	11356
931.207	10972
931.311	10984
931.415	10908
931.519	10721
931.623	10660
