Data from test_V78500241_2547.txt Node
Date: Fri Mar 25 15:27:35 CST 2022
User: usil
Spectrometer: V785-0024
Trigger mode: 0
Integration Time (sec): 4.000000E-1
Scans to average: 1
Nonlinearity correction enabled: false
Boxcar width: 0
Storing dark spectrum: false
XAxis mode: Wavelengths
Number of Pixels in Spectrum: 1024
>>>>>Begin Spectral Data<<<<<
801.071	27272
801.214	27146
801.356	26944
801.499	26960
801.641	26731
801.783	26823
801.926	26849
802.068	26724
802.211	26750
802.353	26678
802.496	26457
802.638	26461
802.78	26385
802.923	26385
803.065	26233
803.208	26290
803.35	26385
803.492	26552
803.635	26587
803.777	26568
803.919	26556
804.061	26857
804.204	26636
804.346	26579
804.488	26396
804.63	26575
804.773	26453
804.915	26575
805.057	26674
805.199	26594
805.341	26526
805.483	26746
805.626	26579
805.768	26556
805.91	26727
806.052	26667
806.194	26587
806.336	26830
806.478	26678
806.62	26754
806.762	26796
806.904	26929
807.046	27173
807.188	27070
807.33	27055
807.472	27112
807.614	27036
807.756	27127
807.898	26830
808.04	26918
808.182	26849
808.324	26963
808.465	27081
808.607	27195
808.749	27245
808.891	27355
809.033	27359
809.174	27336
809.316	27169
809.458	27214
809.6	27203
809.741	27500
809.883	27317
810.025	27481
810.166	27431
810.308	27515
810.45	27439
810.591	27553
810.733	27283
810.875	27169
811.016	27119
811.158	27199
811.299	27351
811.441	27454
811.582	27405
811.724	27233
811.865	27184
812.007	26963
812.148	27154
812.29	27279
812.431	27466
812.573	27526
812.714	27622
812.855	27778
812.997	27903
813.138	27983
813.279	27888
813.421	27789
813.562	27698
813.703	27603
813.845	27477
813.986	27169
814.127	27062
814.268	27051
814.41	26967
814.551	26880
814.692	27005
814.833	26796
814.974	26849
815.115	26853
815.256	26648
815.397	26777
815.539	26800
815.68	26689
815.821	26655
815.962	26689
816.103	26560
816.244	26625
816.385	26495
816.526	26461
816.666	26332
816.807	26142
816.948	26199
817.089	26256
817.23	26138
817.371	26115
817.512	26183
817.653	26050
817.793	26100
817.934	26058
818.075	26195
818.216	26168
818.356	26077
818.497	26096
818.638	25776
818.778	25932
818.919	25936
819.06	26027
819.2	25887
819.341	26161
819.481	26172
819.622	26377
819.762	26457
819.903	26492
820.043	26214
820.184	26237
820.324	26191
820.465	26393
820.605	26355
820.746	26168
820.886	26069
821.026	26301
821.167	26149
821.307	26210
821.447	26039
821.588	26134
821.728	25906
821.868	25807
822.008	25700
822.149	25597
822.289	25552
822.429	25445
822.569	25301
822.709	25297
822.849	25141
822.99	25187
823.13	25164
823.27	25000
823.41	25031
823.55	24875
823.69	24954
823.83	24871
823.97	24928
824.11	24707
824.25	24738
824.389	24768
824.529	24798
824.669	24920
824.809	24821
824.949	24821
825.089	24798
825.228	24783
825.368	24764
825.508	24700
825.648	24681
825.787	24696
825.927	24776
826.067	24593
826.206	24749
826.346	24738
826.485	24749
826.625	24631
826.765	24852
826.904	24589
827.044	24513
827.183	24483
827.323	24330
827.462	24407
827.601	24372
827.741	24369
827.88	24330
828.02	24296
828.159	24388
828.298	24509
828.437	24342
828.577	24346
828.716	24418
828.855	24178
828.994	24106
829.134	24015
829.273	24190
829.412	24011
829.551	24064
829.69	24125
829.829	24038
829.968	24247
830.107	24144
830.246	24026
830.385	24148
830.524	23901
830.663	23920
830.802	23893
830.941	23752
831.08	23695
831.219	23771
831.357	23813
831.496	23832
831.635	23775
831.774	23531
831.913	23619
832.051	23398
832.19	23501
832.329	23627
832.467	23467
832.606	23478
832.744	23341
832.883	23372
833.022	23322
833.16	23395
833.299	23417
833.437	23364
833.576	23516
833.714	23482
833.852	23482
833.991	23421
834.129	23543
834.267	23482
834.406	23436
834.544	23421
834.682	23554
834.821	23334
834.959	23554
835.097	23299
835.235	23379
835.373	23528
835.511	23493
835.65	23391
835.788	23235
835.926	23102
836.064	23170
836.202	23212
836.34	23360
836.478	23220
836.615	23231
836.753	23322
836.891	23235
837.029	23376
837.167	23292
837.305	23261
837.443	23189
837.58	23231
837.718	23132
837.856	23178
837.993	23128
838.131	23003
838.269	23022
838.406	23109
838.544	23025
838.681	22736
838.819	22740
838.956	22599
839.094	22713
839.231	22691
839.369	22755
839.506	23064
839.643	22896
839.781	22664
839.918	22538
840.055	22615
840.193	22592
840.33	22542
840.467	22424
840.604	22615
840.742	22946
840.879	22443
841.016	22379
841.153	22478
841.29	22584
841.427	22394
841.564	22706
841.701	22607
841.838	22417
841.975	22409
842.112	22466
842.249	22481
842.385	22436
842.522	22577
842.659	22478
842.796	22379
842.933	22341
843.069	22226
843.206	22310
843.343	22394
843.479	22261
843.616	22405
843.752	22120
843.889	22101
844.025	22169
844.162	22074
844.298	22131
844.435	22139
844.571	21972
844.708	22067
844.844	22105
844.98	22291
845.117	22109
845.253	21884
845.389	21907
845.525	21998
845.661	21907
845.798	21865
845.934	21831
846.07	21732
846.206	21861
846.342	21934
846.478	21751
846.614	21766
846.75	21523
846.886	21519
847.022	21675
847.158	21675
847.294	21500
847.429	21625
847.565	21408
847.701	21762
847.837	21230
847.972	21321
848.108	21367
848.244	21260
848.379	21165
848.515	21165
848.65	21150
848.786	21241
848.921	21112
849.057	21218
849.192	21123
849.328	21226
849.463	21260
849.598	21024
849.734	20967
849.869	21028
850.004	20921
850.14	20876
850.275	20906
850.41	20861
850.545	20963
850.68	20914
850.815	20941
850.95	20918
851.085	21066
851.22	21024
851.355	20948
851.49	20804
851.625	20902
851.76	20876
851.895	20823
852.03	20815
852.165	20902
852.299	20921
852.434	20990
852.569	20960
852.703	20906
852.838	20963
852.973	21112
853.107	21047
853.242	20948
853.376	20788
853.511	20648
853.645	20746
853.78	20921
853.914	20800
854.048	20708
854.183	20777
854.317	20735
854.451	21013
854.585	20834
854.72	20651
854.854	20811
854.988	20785
855.122	20724
855.256	20682
855.39	20773
855.524	20769
855.658	20849
855.792	20815
855.926	20781
856.06	20807
856.194	20785
856.327	20735
856.461	20575
856.595	20606
856.729	20769
856.862	20899
856.996	20815
857.13	20819
857.263	20933
857.397	20891
857.53	20853
857.664	20701
857.797	20876
857.931	20792
858.064	20739
858.197	20800
858.331	20823
858.464	20674
858.597	20636
858.731	20819
858.864	20674
858.997	20739
859.13	20883
859.263	20781
859.396	20842
859.529	20781
859.662	20788
859.795	20625
859.928	20765
860.061	20914
860.194	20838
860.327	20777
860.46	20769
860.592	20979
860.725	20921
860.858	20914
860.99	20727
861.123	20663
861.256	20682
861.388	20826
861.521	21275
861.653	20705
861.786	20473
861.918	20644
862.05	20731
862.183	20663
862.315	20621
862.447	20819
862.58	20670
862.712	20454
862.844	20450
862.976	20526
863.108	20499
863.24	20929
863.372	20438
863.504	20434
863.636	20465
863.768	20522
863.9	20587
864.032	20492
864.164	20469
864.296	20598
864.428	20613
864.559	20648
864.691	20423
864.823	20507
864.954	20541
865.086	20454
865.217	20438
865.349	20351
865.48	20374
865.612	20404
865.743	20476
865.875	20355
866.006	20320
866.137	20434
866.269	20290
866.4	20370
866.531	20298
866.662	20168
866.793	20347
866.924	20298
867.055	20374
867.186	20225
867.317	20248
867.448	20286
867.579	20282
867.71	20218
867.841	20336
867.972	20332
868.103	20351
868.233	20172
868.364	20305
868.495	20362
868.625	20629
868.756	20606
868.886	20571
869.017	20511
869.147	20564
869.278	20708
869.408	20655
869.539	20533
869.669	20670
869.799	20659
869.929	20655
870.06	20648
870.19	20906
870.32	20910
870.45	21005
870.58	20864
870.71	21085
870.84	20990
870.97	21024
871.1	20902
871.23	21119
871.36	21154
871.489	20952
871.619	21252
871.749	21150
871.879	21081
872.008	21203
872.138	21112
872.267	21176
872.397	21020
872.526	21001
872.656	21066
872.785	20925
872.915	21237
873.044	21279
873.173	21279
873.303	21256
873.432	21233
873.561	21252
873.69	21188
873.819	21180
873.948	21203
874.077	21230
874.206	21161
874.335	21169
874.464	21211
874.593	21549
874.722	21382
874.851	21374
874.979	21458
875.108	21412
875.237	21355
875.365	21370
875.494	21302
875.623	21511
875.751	21386
875.88	21534
876.008	21492
876.136	21587
876.265	21789
876.393	21930
876.521	21865
876.65	21797
876.778	21892
876.906	21781
877.034	21808
877.162	21846
877.29	21724
877.418	21819
877.546	21622
877.674	21720
877.802	21766
877.93	21701
878.058	21580
878.185	21713
878.313	21652
878.441	21660
878.568	21648
878.696	21667
878.824	21770
878.951	21892
879.079	21846
879.206	22074
879.333	21968
879.461	21899
879.588	21903
879.715	21854
879.842	22029
879.97	21857
880.097	21549
880.224	21599
880.351	21656
880.478	21629
880.605	21545
880.732	21542
880.859	21808
880.986	21679
881.112	21736
881.239	21393
881.366	21294
881.493	21302
881.619	21249
881.746	21203
881.872	21161
881.999	21188
882.125	21233
882.252	21150
882.378	21188
882.505	21138
882.631	21119
882.757	20868
882.883	20941
883.01	20918
883.136	20883
883.262	20670
883.388	20815
883.514	20921
883.64	20880
883.766	20876
883.892	20632
884.018	20617
884.143	21039
884.269	20815
884.395	20583
884.52	20602
884.646	20537
884.772	20404
884.897	20393
885.023	20469
885.148	20670
885.274	20609
885.399	20682
885.524	20514
885.65	20552
885.775	20545
885.9	20488
886.025	20735
886.15	20518
886.275	20533
886.4	20530
886.525	20476
886.65	20336
886.775	20400
886.9	20636
887.025	20727
887.149	20552
887.274	20343
887.399	20267
887.523	20263
887.648	20252
887.773	20233
887.897	20419
888.021	20278
888.146	20199
888.27	20362
888.395	20511
888.519	20332
888.643	20358
888.767	20267
888.891	20195
889.015	20100
889.139	20126
889.263	20058
889.387	20096
889.511	20358
889.635	20244
889.759	20073
889.883	20035
890.006	20031
890.13	20202
890.254	19982
890.377	20111
890.501	19860
890.624	19856
890.748	19974
890.871	19890
890.995	19677
891.118	19685
891.241	19742
891.364	19715
891.488	19780
891.611	19712
891.734	19670
891.857	19681
891.98	19609
892.103	19742
892.226	19803
892.349	19609
892.471	19468
892.594	19571
892.717	19624
892.839	19674
892.962	19556
893.085	19632
893.207	19613
893.33	19491
893.452	19525
893.575	19712
893.697	19582
893.819	19719
893.941	19830
894.064	19742
894.186	19548
894.308	19525
894.43	19658
894.552	19696
894.674	19647
894.796	19384
894.918	19518
895.04	19552
895.161	19609
895.283	19632
895.405	19464
895.526	19586
895.648	19601
895.769	19597
895.891	19597
896.012	19578
896.134	19666
896.255	19548
896.376	19521
896.498	19628
896.619	19704
896.74	19582
896.861	19586
896.982	19993
897.103	20084
897.224	19932
897.345	19807
897.466	19765
897.587	19723
897.708	19932
897.828	19928
897.949	19769
898.07	19601
898.19	19772
898.311	19921
898.431	19814
898.552	19731
898.672	19890
898.792	19837
898.913	19841
899.033	19689
899.153	19643
899.273	19563
899.393	19658
899.513	19586
899.633	19540
899.753	19559
899.873	19578
899.993	19548
900.113	19563
900.232	19594
900.352	19468
900.472	19422
900.591	19369
900.711	19407
900.83	19388
900.95	19483
901.069	19487
901.189	19228
901.308	19091
901.427	19110
901.546	18981
901.665	19015
901.784	18924
901.904	18848
902.023	18726
902.141	18574
902.26	18517
902.379	18483
902.498	18384
902.617	18422
902.735	18574
902.854	18452
902.973	18403
903.091	18197
903.21	18087
903.328	18171
903.446	17992
903.565	17935
903.683	18019
903.801	17790
903.919	17908
904.038	17821
904.156	17779
904.274	17756
904.392	17756
904.51	17661
904.627	17722
904.745	17813
904.863	17794
904.981	17478
905.098	17505
905.216	17387
905.334	17467
905.451	17368
905.569	17391
905.686	17383
905.803	17444
905.921	17155
906.038	17326
906.155	17296
906.272	17174
906.389	17151
906.506	16991
906.623	17003
906.74	16995
906.857	16809
906.974	16831
907.091	16965
907.208	17140
907.324	17025
907.441	16831
907.557	16660
907.674	16691
907.79	16592
907.907	16622
908.023	16710
908.139	16599
908.256	16645
908.372	16519
908.488	16607
908.604	16462
908.72	16424
908.836	16466
908.952	16337
909.068	16382
909.184	16478
909.3	16402
909.415	16409
909.531	16371
909.647	16143
909.762	16116
909.878	16082
909.993	16109
910.108	16040
910.224	16021
910.339	16093
910.454	15968
910.57	15873
910.685	15907
910.8	16169
910.915	16101
911.03	15892
911.145	15770
911.259	15743
911.374	15690
911.489	15675
911.604	15523
911.718	15488
911.833	15492
911.947	15374
912.062	15370
912.176	15469
912.291	15572
912.405	15545
912.519	15736
912.633	15641
912.748	15580
912.862	15428
912.976	15310
913.09	15241
913.204	15310
913.318	15214
913.431	15317
913.545	15428
913.659	15447
913.772	15264
913.886	15184
914	15093
914.113	15123
914.226	15332
914.34	15127
914.453	15039
914.566	15226
914.68	14975
914.793	14971
914.906	14769
915.019	14746
915.132	14575
915.245	14762
915.358	14807
915.47	14670
915.583	14800
915.696	14785
915.809	14792
915.921	14876
916.034	14659
916.146	14613
916.259	14537
916.371	14693
916.483	14765
916.595	14575
916.708	14495
916.82	14518
916.932	14541
917.044	14457
917.156	14450
917.268	14385
917.38	14438
917.491	14389
917.603	14377
917.715	14438
917.826	14404
917.938	14328
918.049	14229
918.161	14320
918.272	14473
918.384	14374
918.495	14259
918.606	14164
918.717	14145
918.828	14157
918.939	14168
919.05	14062
919.161	14111
919.272	13913
919.383	13970
919.494	14195
919.604	14290
919.715	14145
919.826	14035
919.936	14035
920.047	14259
920.157	14176
920.267	14206
920.378	14126
920.488	14092
920.598	14233
920.708	14362
920.818	14225
920.928	14248
921.038	14400
921.148	14362
921.258	14058
921.368	13978
921.477	13902
921.587	13833
921.697	13833
921.806	13856
921.916	13715
922.025	13571
922.134	13571
922.244	13514
922.353	13578
922.462	13422
922.571	13407
922.68	13164
922.789	13198
922.898	13107
923.007	13065
923.116	13213
923.224	13198
923.333	13072
923.442	12985
923.55	12985
923.659	12996
923.767	12970
923.876	13004
923.984	12989
924.092	12954
924.201	12935
924.309	12901
924.417	13031
924.525	12867
924.633	12886
924.741	13636
924.849	12559
924.956	12791
925.064	12745
925.172	12441
925.279	12513
925.387	12540
925.494	12479
925.602	12677
925.709	12688
925.816	12593
925.924	12544
926.031	12642
926.138	12532
926.245	12597
926.352	12391
926.459	12551
926.566	12555
926.673	12426
926.779	12407
926.886	12369
926.993	12220
927.099	12129
927.206	12117
927.312	12148
927.419	12224
927.525	12239
927.631	12224
927.737	12091
927.843	12003
927.95	11920
928.056	12015
928.162	11939
928.267	11996
928.373	12646
928.479	12034
928.585	11931
928.69	11954
928.796	11999
928.901	11916
929.007	11722
929.112	11969
929.218	11859
929.323	11680
929.428	11714
929.533	11878
929.638	11703
929.743	11695
929.848	11729
929.953	11653
930.058	11585
930.163	11520
930.267	11433
930.372	11459
930.477	11436
930.581	11665
930.685	11440
930.79	11307
930.894	11330
930.998	11250
931.103	11391
931.207	11060
931.311	11052
931.415	10976
931.519	10694
931.623	10668
