Data from test_V78500241_532.txt Node
Date: Fri Mar 25 15:13:33 CST 2022
User: usil
Spectrometer: V785-0024
Trigger mode: 0
Integration Time (sec): 4.000000E-1
Scans to average: 1
Nonlinearity correction enabled: false
Boxcar width: 0
Storing dark spectrum: false
XAxis mode: Wavelengths
Number of Pixels in Spectrum: 1024
>>>>>Begin Spectral Data<<<<<
801.071	27279
801.214	27302
801.356	27017
801.499	27077
801.641	26998
801.783	26994
801.926	26883
802.068	26982
802.211	26686
802.353	26648
802.496	26606
802.638	26552
802.78	26537
802.923	26552
803.065	26526
803.208	26476
803.35	26575
803.492	26674
803.635	26720
803.777	26400
803.919	26716
804.061	26948
804.204	26670
804.346	26678
804.488	26579
804.63	26796
804.773	26636
804.915	26804
805.057	26663
805.199	26602
805.341	26880
805.483	26906
805.626	26876
805.768	26689
805.91	26861
806.052	26929
806.194	26655
806.336	27058
806.478	26807
806.62	26720
806.762	26895
806.904	27173
807.046	27393
807.188	27252
807.33	27180
807.472	27348
807.614	27169
807.756	27245
807.898	26979
808.04	26899
808.182	27055
808.324	27077
808.465	27036
808.607	27256
808.749	27424
808.891	27519
809.033	27610
809.174	27477
809.316	27492
809.458	27420
809.6	27519
809.741	27557
809.883	27591
810.025	27713
810.166	27675
810.308	27778
810.45	27698
810.591	27694
810.733	27534
810.875	27355
811.016	27401
811.158	27256
811.299	27545
811.441	27545
811.582	27606
811.724	27374
811.865	27268
812.007	27370
812.148	27378
812.29	27477
812.431	27663
812.573	27816
812.714	27827
812.855	28059
812.997	28013
813.138	28078
813.279	28105
813.421	28036
813.562	28029
813.703	27751
813.845	27739
813.986	27397
814.127	27272
814.268	27055
814.41	27085
814.551	27017
814.692	27211
814.833	26994
814.974	27188
815.115	27036
815.256	27066
815.397	27009
815.539	27024
815.68	26902
815.821	26895
815.962	26921
816.103	26887
816.244	26644
816.385	26632
816.526	26724
816.666	26511
816.807	26309
816.948	26336
817.089	26537
817.23	26438
817.371	26465
817.512	26389
817.653	26396
817.793	26240
817.934	26355
818.075	26412
818.216	26343
818.356	26256
818.497	26294
818.638	26183
818.778	26199
818.919	26081
819.06	26134
819.2	26317
819.341	26366
819.481	26389
819.622	26587
819.762	26796
819.903	26663
820.043	26602
820.184	26522
820.324	26488
820.465	26568
820.605	26457
820.746	26442
820.886	26313
821.026	26476
821.167	26408
821.307	26393
821.447	26552
821.588	26309
821.728	26161
821.868	26035
822.008	25738
822.149	25936
822.289	25830
822.429	25540
822.569	25445
822.709	25453
822.849	25415
822.99	25156
823.13	25240
823.27	25354
823.41	25190
823.55	24958
823.69	25190
823.83	25266
823.97	25031
824.11	24928
824.25	24856
824.389	25034
824.529	25099
824.669	24985
824.809	25152
824.949	25110
825.089	25076
825.228	25004
825.368	24764
825.508	24749
825.648	24894
825.787	24852
825.927	24878
826.067	24844
826.206	24814
826.346	24924
826.485	24821
826.625	24726
826.765	24867
826.904	24924
827.044	24677
827.183	24639
827.323	24357
827.462	24597
827.601	24570
827.741	24574
827.88	24612
828.02	24498
828.159	24399
828.298	24677
828.437	24707
828.577	24532
828.716	24715
828.855	24536
828.994	24254
829.134	24235
829.273	24327
829.412	24380
829.551	24197
829.69	24277
829.829	24178
829.968	24228
830.107	24350
830.246	24289
830.385	24209
830.524	24194
830.663	24155
830.802	24057
830.941	23999
831.08	23916
831.219	23942
831.357	23908
831.496	24057
831.635	23946
831.774	23836
831.913	23657
832.051	23687
832.19	23729
832.329	23665
832.467	23642
832.606	23425
832.744	23596
832.883	23539
833.022	23703
833.16	23684
833.299	23554
833.437	23684
833.576	23828
833.714	23562
833.852	23623
833.991	23676
834.129	23630
834.267	23737
834.406	23672
834.544	23752
834.682	23661
834.821	23589
834.959	23843
835.097	23627
835.235	23600
835.373	23585
835.511	23581
835.65	23474
835.788	23459
835.926	23322
836.064	23254
836.202	23410
836.34	23535
836.478	23570
836.615	23455
836.753	23414
836.891	23524
837.029	23581
837.167	23395
837.305	23398
837.443	23452
837.58	23239
837.718	23417
837.856	23296
837.993	23277
838.131	23288
838.269	23200
838.406	23189
838.544	23200
838.681	22930
838.819	23102
838.956	22793
839.094	22889
839.231	22748
839.369	22972
839.506	23174
839.643	22972
839.781	22805
839.918	22763
840.055	22831
840.193	22793
840.33	22664
840.467	22710
840.604	22771
840.742	22881
840.879	22649
841.016	22710
841.153	22554
841.29	22755
841.427	22740
841.564	22786
841.701	22809
841.838	22717
841.975	22588
842.112	22630
842.249	22565
842.385	22470
842.522	22618
842.659	22577
842.796	22519
842.933	22504
843.069	22554
843.206	22550
843.343	22641
843.479	22447
843.616	22478
843.752	22268
843.889	22249
844.025	22462
844.162	22333
844.298	22363
844.435	22303
844.571	22242
844.708	22234
844.844	22337
844.98	22493
845.117	22402
845.253	22215
845.389	22181
845.525	22143
845.661	22048
845.798	22010
845.934	22063
846.07	21930
846.206	22044
846.342	22131
846.478	21922
846.614	21835
846.75	21717
846.886	21614
847.022	21739
847.158	21709
847.294	21838
847.429	21842
847.565	21755
847.701	21892
847.837	21416
847.972	21443
848.108	21431
848.244	21530
848.379	21412
848.515	21329
848.65	21321
848.786	21424
848.921	21420
849.057	21336
849.192	21435
849.328	21325
849.463	21272
849.598	21260
849.734	21279
849.869	21268
850.004	21119
850.14	21119
850.275	21157
850.41	21009
850.545	21043
850.68	20960
850.815	21100
850.95	21112
851.085	21127
851.22	21165
851.355	21032
851.49	21039
851.625	21116
851.76	21112
851.895	21001
852.03	20956
852.165	20990
852.299	21184
852.434	21214
852.569	21062
852.703	21119
852.838	21264
852.973	21359
853.107	21268
853.242	21085
853.376	20883
853.511	20735
853.645	21001
853.78	21074
853.914	20914
854.048	20960
854.183	21017
854.317	21005
854.451	21043
854.585	20906
854.72	20826
854.854	20982
854.988	20876
855.122	21032
855.256	20754
855.39	20823
855.524	21070
855.658	20960
855.792	20895
855.926	20925
856.06	20956
856.194	20853
856.327	20895
856.461	20895
856.595	20762
856.729	20819
856.862	21108
856.996	21058
857.13	20830
857.263	20967
857.397	21036
857.53	20792
857.664	20929
857.797	20971
857.931	21051
858.064	20872
858.197	21036
858.331	21001
858.464	20819
858.597	20769
858.731	20963
858.864	21009
858.997	20800
859.13	20937
859.263	20891
859.396	21077
859.529	20830
859.662	20800
859.795	20811
859.928	21039
860.061	20925
860.194	21070
860.327	20914
860.46	20906
860.592	21070
860.725	20998
860.858	20948
860.99	20960
861.123	20941
861.256	20906
861.388	20956
861.521	21690
861.653	20777
861.786	20823
861.918	20750
862.05	20716
862.183	20746
862.315	20765
862.447	21009
862.58	20792
862.712	20575
862.844	20606
862.976	20689
863.108	20613
863.24	20994
863.372	20541
863.504	20552
863.636	20541
863.768	20549
863.9	20663
864.032	20697
864.164	20533
864.296	20716
864.428	20823
864.559	20697
864.691	20743
864.823	20724
864.954	20511
865.086	20689
865.217	20454
865.349	20495
865.48	20431
865.612	20526
865.743	20602
865.875	20564
866.006	20492
866.137	20556
866.269	20530
866.4	20552
866.531	20511
866.662	20484
866.793	20400
866.924	20393
867.055	20423
867.186	20461
867.317	20560
867.448	20324
867.579	20495
867.71	20358
867.841	20385
867.972	20465
868.103	20454
868.233	20514
868.364	20556
868.495	20606
868.625	20720
868.756	20697
868.886	20552
869.017	20636
869.147	20826
869.278	20902
869.408	20857
869.539	20746
869.669	20705
869.799	20765
869.929	20796
870.06	20811
870.19	21062
870.32	21066
870.45	21020
870.58	21100
870.71	21268
870.84	21241
870.97	21043
871.1	21146
871.23	21332
871.36	21268
871.489	21237
871.619	21329
871.749	21245
871.879	21355
872.008	21420
872.138	21336
872.267	21329
872.397	21135
872.526	21176
872.656	21180
872.785	21146
872.915	21256
873.044	21488
873.173	21321
873.303	21344
873.432	21408
873.561	21572
873.69	21344
873.819	21363
873.948	21420
874.077	21393
874.206	21306
874.335	21184
874.464	21431
874.593	21606
874.722	21485
874.851	21606
874.979	21564
875.108	21576
875.237	21526
875.365	21454
875.494	21435
875.623	21622
875.751	21576
875.88	21595
876.008	21755
876.136	21671
876.265	21949
876.393	22063
876.521	21964
876.65	22025
876.778	21918
876.906	21846
877.034	21838
877.162	21903
877.29	21766
877.418	21937
877.546	21941
877.674	21934
877.802	21975
877.93	21892
878.058	21835
878.185	21698
878.313	21861
878.441	21823
878.568	21679
878.696	21884
878.824	21846
878.951	21884
879.079	22139
879.206	22169
879.333	22025
879.461	22097
879.588	22040
879.715	22074
879.842	22124
879.97	22093
880.097	21781
880.224	21816
880.351	21808
880.478	21804
880.605	21762
880.732	21816
880.859	21983
880.986	21713
881.112	21793
881.239	21526
881.366	21523
881.493	21416
881.619	21313
881.746	21222
881.872	21393
881.999	21325
882.125	21184
882.252	21412
882.378	21386
882.505	21435
882.631	21207
882.757	21055
882.883	21165
883.01	21180
883.136	21024
883.262	20933
883.388	20830
883.514	21203
883.64	21009
883.766	20971
883.892	20842
884.018	20823
884.143	20948
884.269	21055
884.395	20724
884.52	20564
884.646	20655
884.772	20545
884.897	20697
885.023	20758
885.148	20720
885.274	20724
885.399	20667
885.524	20708
885.65	20731
885.775	20594
885.9	20530
886.025	20670
886.15	20739
886.275	20682
886.4	20568
886.525	20678
886.65	20514
886.775	20659
886.9	20731
887.025	20811
887.149	20701
887.274	20431
887.399	20415
887.523	20488
887.648	20377
887.773	20389
887.897	20598
888.021	20587
888.146	20446
888.27	20454
888.395	20503
888.519	20423
888.643	20526
888.767	20499
888.891	20404
889.015	20328
889.139	20374
889.263	20237
889.387	20393
889.511	20457
889.635	20385
889.759	20084
889.883	20202
890.006	20248
890.13	20248
890.254	20084
890.377	20001
890.501	20031
890.624	20016
890.748	20050
890.871	19906
890.995	19837
891.118	19715
891.241	19814
891.364	19658
891.488	19784
891.611	19909
891.734	19666
891.857	19883
891.98	19852
892.103	19894
892.226	19879
892.349	19799
892.471	19620
892.594	19795
892.717	19830
892.839	19712
892.962	19780
893.085	19715
893.207	19852
893.33	19670
893.452	19544
893.575	19757
893.697	19635
893.819	19784
893.941	19879
894.064	19951
894.186	19674
894.308	19674
894.43	19734
894.552	19951
894.674	19845
894.796	19723
894.918	19757
895.04	19651
895.161	19761
895.283	19837
895.405	19708
895.526	19753
895.648	19772
895.769	19712
895.891	19723
896.012	19715
896.134	19803
896.255	19712
896.376	19738
896.498	19761
896.619	19811
896.74	19635
896.861	19788
896.982	19993
897.103	20161
897.224	20065
897.345	19963
897.466	19978
897.587	19841
897.708	20024
897.828	20031
897.949	19830
898.07	19864
898.19	19890
898.311	20020
898.431	19974
898.552	19906
898.672	20012
898.792	19951
898.913	19913
899.033	19803
899.153	19864
899.273	19635
899.393	19670
899.513	19719
899.633	19788
899.753	19696
899.873	19696
899.993	19791
900.113	19628
900.232	19734
900.352	19533
900.472	19594
900.591	19457
900.711	19548
900.83	19438
900.95	19502
901.069	19529
901.189	19339
901.308	19099
901.427	19168
901.546	19099
901.665	19126
901.784	19091
901.904	19008
902.023	18867
902.141	18776
902.26	18601
902.379	18654
902.498	18627
902.617	18551
902.735	18749
902.854	18536
902.973	18521
903.091	18258
903.21	18350
903.328	18300
903.446	18194
903.565	18064
903.683	18087
903.801	17999
903.919	18087
904.038	17942
904.156	17809
904.274	17908
904.392	17836
904.51	17870
904.627	17855
904.745	17931
904.863	18011
904.981	17608
905.098	17440
905.216	17516
905.334	17547
905.451	17490
905.569	17440
905.686	17570
905.803	17611
905.921	17303
906.038	17554
906.155	17269
906.272	17189
906.389	17330
906.506	17098
906.623	17174
906.74	17132
906.857	16942
906.974	17045
907.091	17124
907.208	17143
907.324	17128
907.441	17010
907.557	16710
907.674	16740
907.79	16752
907.907	16755
908.023	16820
908.139	16805
908.256	16774
908.372	16687
908.488	16710
908.604	16493
908.72	16527
908.836	16550
908.952	16546
909.068	16474
909.184	16626
909.3	16516
909.415	16516
909.531	16508
909.647	16261
909.762	16276
909.878	16325
909.993	16219
910.108	16234
910.224	16276
910.339	16238
910.454	16112
910.57	16074
910.685	15987
910.8	16291
910.915	16177
911.03	16013
911.145	15873
911.259	15827
911.374	15861
911.489	15770
911.604	15751
911.718	15523
911.833	15511
911.947	15401
912.062	15454
912.176	15534
912.291	15603
912.405	15545
912.519	15709
912.633	15747
912.748	15606
912.862	15485
912.976	15355
913.09	15260
913.204	15378
913.318	15382
913.431	15435
913.545	15405
913.659	15511
913.772	15317
913.886	15165
914	15169
914.113	15252
914.226	15321
914.34	15218
914.453	15104
914.566	15203
914.68	15116
914.793	14982
914.906	14861
915.019	14845
915.132	14720
915.245	14861
915.358	14823
915.47	14800
915.583	14804
915.696	14830
915.809	14941
915.921	14956
916.034	14701
916.146	14815
916.259	14693
916.371	14777
916.483	14811
916.595	14632
916.708	14731
916.82	14659
916.932	14682
917.044	14545
917.156	14530
917.268	14473
917.38	14575
917.491	14423
917.603	14499
917.715	14575
917.826	14610
917.938	14400
918.049	14309
918.161	14480
918.272	14587
918.384	14533
918.495	14355
918.606	14336
918.717	14248
918.828	14351
918.939	14313
919.05	14225
919.161	14191
919.272	13982
919.383	14062
919.494	14164
919.604	14381
919.715	14202
919.826	14149
919.936	14180
920.047	14271
920.157	14229
920.267	14461
920.378	14267
920.488	14221
920.598	14358
920.708	14526
920.818	14408
920.928	14263
921.038	14492
921.148	14484
921.258	14199
921.368	14145
921.477	13986
921.587	13963
921.697	13849
921.806	13917
921.916	13837
922.025	13628
922.134	13537
922.244	13632
922.353	13639
922.462	13419
922.571	13358
922.68	13274
922.789	13209
922.898	13202
923.007	13240
923.116	13255
923.224	13228
923.333	13255
923.442	13023
923.55	13019
923.659	13057
923.767	13160
923.876	13015
923.984	13152
924.092	13042
924.201	13110
924.309	13027
924.417	13042
924.525	12932
924.633	12928
924.741	13776
924.849	12726
924.956	12897
925.064	12703
925.172	12692
925.279	12597
925.387	12719
925.494	12681
925.602	12738
925.709	12837
925.816	12601
925.924	12574
926.031	12722
926.138	12593
926.245	12635
926.352	12551
926.459	12631
926.566	12700
926.673	12559
926.779	12391
926.886	12490
926.993	12243
927.099	12247
927.206	12201
927.312	12239
927.419	12258
927.525	12277
927.631	12369
927.737	12133
927.843	12133
927.95	11969
928.056	12079
928.162	12098
928.267	12102
928.373	12646
928.479	12190
928.585	11954
928.69	12007
928.796	12114
928.901	11984
929.007	11885
929.112	11908
929.218	11855
929.323	11870
929.428	11878
929.533	11927
929.638	11710
929.743	11703
929.848	11878
929.953	11691
930.058	11691
930.163	11520
930.267	11509
930.372	11653
930.477	11493
930.581	11661
930.685	11543
930.79	11421
930.894	11493
930.998	11471
931.103	11463
931.207	11105
931.311	11098
931.415	10957
931.519	10786
931.623	10877
