Data from test_V78500241_612.txt Node
Date: Fri Mar 25 15:14:07 CST 2022
User: usil
Spectrometer: V785-0024
Trigger mode: 0
Integration Time (sec): 4.000000E-1
Scans to average: 1
Nonlinearity correction enabled: false
Boxcar width: 0
Storing dark spectrum: false
XAxis mode: Wavelengths
Number of Pixels in Spectrum: 1024
>>>>>Begin Spectral Data<<<<<
801.071	27580
801.214	27595
801.356	27230
801.499	27317
801.641	27184
801.783	27157
801.926	27070
802.068	27108
802.211	26986
802.353	26914
802.496	26811
802.638	26758
802.78	26800
802.923	26868
803.065	26701
803.208	26686
803.35	26697
803.492	26823
803.635	26906
803.777	26781
803.919	26853
804.061	27108
804.204	26933
804.346	26933
804.488	26800
804.63	26910
804.773	26823
804.915	26868
805.057	26861
805.199	26960
805.341	26861
805.483	27093
805.626	26902
805.768	26838
805.91	26842
806.052	27047
806.194	26933
806.336	27157
806.478	27093
806.62	27070
806.762	27150
806.904	27367
807.046	27564
807.188	27488
807.33	27545
807.472	27580
807.614	27427
807.756	27416
807.898	27287
808.04	27260
808.182	27313
808.324	27272
808.465	27439
808.607	27515
808.749	27481
808.891	27747
809.033	27854
809.174	27709
809.316	27717
809.458	27789
809.6	27549
809.741	27816
809.883	27762
810.025	27934
810.166	27861
810.308	27930
810.45	27835
810.591	27941
810.733	27747
810.875	27701
811.016	27580
811.158	27679
811.299	27861
811.441	27766
811.582	27865
811.724	27701
811.865	27675
812.007	27591
812.148	27557
812.29	27564
812.431	27797
812.573	28029
812.714	28169
812.855	28143
812.997	28238
813.138	28337
813.279	28443
813.421	28295
813.562	28226
813.703	28200
813.845	27903
813.986	27648
814.127	27435
814.268	27549
814.41	27367
814.551	27370
814.692	27393
814.833	27340
814.974	27359
815.115	27340
815.256	27108
815.397	27287
815.539	27378
815.68	27203
815.821	27032
815.962	27127
816.103	27058
816.244	27066
816.385	27043
816.526	26967
816.666	26682
816.807	26712
816.948	26804
817.089	26830
817.23	26758
817.371	26670
817.512	26758
817.653	26842
817.793	26621
817.934	26609
818.075	26629
818.216	26568
818.356	26617
818.497	26377
818.638	26282
818.778	26370
818.919	26419
819.06	26381
819.2	26450
819.341	26617
819.481	26636
819.622	26796
819.762	26887
819.903	26948
820.043	26834
820.184	26724
820.324	26826
820.465	26708
820.605	26853
820.746	26678
820.886	26549
821.026	26693
821.167	26716
821.307	26891
821.447	26674
821.588	26495
821.728	26427
821.868	26358
822.008	26134
822.149	26035
822.289	26050
822.429	25830
822.569	25753
822.709	25799
822.849	25647
822.99	25658
823.13	25540
823.27	25521
823.41	25411
823.55	25373
823.69	25441
823.83	25354
823.97	25373
824.11	25297
824.25	25228
824.389	25244
824.529	25324
824.669	25171
824.809	25293
824.949	25339
825.089	25358
825.228	25236
825.368	25061
825.508	25050
825.648	25156
825.787	25270
825.927	25103
826.067	25251
826.206	25156
826.346	25202
826.485	25095
826.625	25095
826.765	25263
826.904	25168
827.044	24939
827.183	24939
827.323	25004
827.462	24970
827.601	24867
827.741	24856
827.88	24981
828.02	24711
828.159	24890
828.298	24924
828.437	24992
828.577	24829
828.716	24905
828.855	24760
828.994	24547
829.134	24585
829.273	24544
829.412	24536
829.551	24407
829.69	24585
829.829	24753
829.968	24555
830.107	24559
830.246	24658
830.385	24418
830.524	24357
830.663	24403
830.802	24467
830.941	24064
831.08	24114
831.219	24194
831.357	24285
831.496	24292
831.635	24136
831.774	23988
831.913	24022
832.051	23916
832.19	23988
832.329	23908
832.467	23878
832.606	23798
832.744	23843
832.883	23927
833.022	23657
833.16	23798
833.299	23752
833.437	23935
833.576	23969
833.714	23855
833.852	23885
833.991	23965
834.129	23980
834.267	23988
834.406	23973
834.544	23916
834.682	23847
834.821	23794
834.959	24072
835.097	23699
835.235	23840
835.373	23859
835.511	23843
835.65	23756
835.788	23634
835.926	23638
836.064	23562
836.202	23516
836.34	23786
836.478	23718
836.615	23752
836.753	23767
836.891	23847
837.029	23866
837.167	23672
837.305	23802
837.443	23547
837.58	23505
837.718	23661
837.856	23543
837.993	23562
838.131	23604
838.269	23421
838.406	23448
838.544	23433
838.681	23212
838.819	23178
838.956	23052
839.094	23056
839.231	23223
839.369	23273
839.506	23414
839.643	23425
839.781	23037
839.918	23094
840.055	23018
840.193	22930
840.33	23006
840.467	22953
840.604	22843
840.742	23269
840.879	22858
841.016	22869
841.153	22869
841.29	23014
841.427	22961
841.564	23029
841.701	22961
841.838	22923
841.975	22862
842.112	22904
842.249	22809
842.385	22759
842.522	22881
842.659	22744
842.796	22786
842.933	22729
843.069	22698
843.206	22637
843.343	22805
843.479	22672
843.616	22634
843.752	22607
843.889	22493
844.025	22664
844.162	22478
844.298	22565
844.435	22500
844.571	22519
844.708	22611
844.844	22767
844.98	22649
845.117	22664
845.253	22508
845.389	22382
845.525	22398
845.661	22367
845.798	22299
845.934	22265
846.07	22257
846.206	22272
846.342	22322
846.478	22344
846.614	22196
846.75	21873
846.886	22032
847.022	22078
847.158	21998
847.294	22036
847.429	22006
847.565	21915
847.701	22223
847.837	21751
847.972	21713
848.108	21861
848.244	21800
848.379	21595
848.515	21618
848.65	21469
848.786	21511
848.921	21523
849.057	21675
849.192	21713
849.328	21618
849.463	21599
849.598	21595
849.734	21561
849.869	21325
850.004	21340
850.14	21279
850.275	21230
850.41	21176
850.545	21218
850.68	21325
850.815	21245
850.95	21439
851.085	21545
851.22	21405
851.355	21408
851.49	21332
851.625	21294
851.76	21150
851.895	21256
852.03	21321
852.165	21287
852.299	21374
852.434	21439
852.569	21492
852.703	21469
852.838	21359
852.973	21481
853.107	21481
853.242	21386
853.376	21222
853.511	21116
853.645	21226
853.78	21306
853.914	21157
854.048	21150
854.183	21169
854.317	21245
854.451	21279
854.585	21074
854.72	21131
854.854	21252
854.988	21108
855.122	21203
855.256	21062
855.39	21131
855.524	21169
855.658	21195
855.792	21169
855.926	21123
856.06	21203
856.194	21226
856.327	21218
856.461	21157
856.595	21070
856.729	21268
856.862	21291
856.996	21161
857.13	21195
857.263	21272
857.397	21233
857.53	21036
857.664	21260
857.797	21184
857.931	21306
858.064	21340
858.197	21363
858.331	21062
858.464	21077
858.597	21066
858.731	21127
858.864	21108
858.997	21116
859.13	21207
859.263	21176
859.396	21180
859.529	21104
859.662	21169
859.795	21074
859.928	21245
860.061	21408
860.194	21317
860.327	21131
860.46	21249
860.592	21264
860.725	21367
860.858	21306
860.99	21203
861.123	21089
861.256	21070
861.388	21161
861.521	22070
861.653	21020
861.786	20971
861.918	20963
862.05	21051
862.183	21104
862.315	21005
862.447	21252
862.58	21135
862.712	20849
862.844	20868
862.976	20868
863.108	20971
863.24	21416
863.372	20864
863.504	20670
863.636	20883
863.768	20883
863.9	20815
864.032	20724
864.164	20861
864.296	20823
864.428	20906
864.559	20971
864.691	21013
864.823	20918
864.954	20937
865.086	20785
865.217	20746
865.349	20530
865.48	20823
865.612	20712
865.743	20929
865.875	20826
866.006	20720
866.137	20727
866.269	20811
866.4	20594
866.531	20701
866.662	20693
866.793	20693
866.924	20613
867.055	20781
867.186	20697
867.317	20743
867.448	20659
867.579	20796
867.71	20606
867.841	20686
867.972	20788
868.103	20583
868.233	20708
868.364	20724
868.495	20686
868.625	20895
868.756	21104
868.886	20845
869.017	20944
869.147	21074
869.278	21096
869.408	20990
869.539	21039
869.669	21089
869.799	20994
869.929	20998
870.06	21024
870.19	21279
870.32	21351
870.45	21329
870.58	21313
870.71	21412
870.84	21496
870.97	21332
871.1	21336
871.23	21557
871.36	21549
871.489	21408
871.619	21591
871.749	21492
871.879	21542
872.008	21656
872.138	21591
872.267	21439
872.397	21435
872.526	21340
872.656	21249
872.785	21393
872.915	21564
873.044	21561
873.173	21477
873.303	21603
873.432	21663
873.561	21656
873.69	21526
873.819	21603
873.948	21736
874.077	21526
874.206	21519
874.335	21507
874.464	21641
874.593	21736
874.722	21736
874.851	21800
874.979	21785
875.108	21785
875.237	21690
875.365	21622
875.494	21823
875.623	21846
875.751	21736
875.88	21766
876.008	21846
876.136	22059
876.265	22196
876.393	22287
876.521	22192
876.65	22265
876.778	22242
876.906	22154
877.034	22154
877.162	22219
877.29	22078
877.418	22188
877.546	22059
877.674	22196
877.802	22120
877.93	22074
878.058	22044
878.185	22086
878.313	22128
878.441	22120
878.568	21983
878.696	22036
878.824	22086
878.951	22234
879.079	22375
879.206	22599
879.333	22291
879.461	22166
879.588	22128
879.715	22379
879.842	22565
879.97	22238
880.097	22025
880.224	21918
880.351	22032
880.478	21816
880.605	21934
880.732	21960
880.859	22162
880.986	21831
881.112	22067
881.239	21854
881.366	21743
881.493	21641
881.619	21561
881.746	21606
881.872	21663
881.999	21542
882.125	21389
882.252	21583
882.378	21583
882.505	21530
882.631	21408
882.757	21211
882.883	21336
883.01	21211
883.136	21096
883.262	21207
883.388	21005
883.514	21256
883.64	21241
883.766	21096
883.892	21020
884.018	21119
884.143	21161
884.269	21169
884.395	21028
884.52	20838
884.646	20804
884.772	20804
884.897	20872
885.023	20815
885.148	21070
885.274	21070
885.399	20960
885.524	20880
885.65	20952
885.775	20819
885.9	20845
886.025	21009
886.15	21024
886.275	20906
886.4	20823
886.525	20613
886.65	20880
886.775	20826
886.9	21017
887.025	21013
887.149	20941
887.274	20609
887.399	20754
887.523	20625
887.648	20739
887.773	20507
887.897	20788
888.021	20701
888.146	20678
888.27	20708
888.395	20834
888.519	20689
888.643	20686
888.767	20682
888.891	20469
889.015	20446
889.139	20522
889.263	20393
889.387	20526
889.511	20629
889.635	20556
889.759	20385
889.883	20358
890.006	20450
890.13	20549
890.254	20381
890.377	20339
890.501	20191
890.624	20161
890.748	20275
890.871	20237
890.995	20031
891.118	19932
891.241	20073
891.364	20195
891.488	20119
891.611	20062
891.734	19963
891.857	20122
891.98	20100
892.103	19970
892.226	20058
892.349	20012
892.471	19871
892.594	19951
892.717	19974
892.839	19940
892.962	20005
893.085	20020
893.207	19917
893.33	19826
893.452	19811
893.575	19967
893.697	19917
893.819	19997
893.941	20130
894.064	20016
894.186	19849
894.308	19879
894.43	20054
894.552	19970
894.674	20027
894.796	19795
894.918	19887
895.04	19921
895.161	19944
895.283	20016
895.405	19871
895.526	19898
895.648	19947
895.769	19997
895.891	19986
896.012	20058
896.134	19906
896.255	19951
896.376	19947
896.498	19932
896.619	19944
896.74	19837
896.861	19963
896.982	20199
897.103	20305
897.224	20157
897.345	20069
897.466	20161
897.587	20191
897.708	20332
897.828	20210
897.949	20172
898.07	19932
898.19	20001
898.311	20138
898.431	20073
898.552	20024
898.672	20229
898.792	20244
898.913	20248
899.033	20027
899.153	20001
899.273	19818
899.393	19902
899.513	20008
899.633	19925
899.753	19917
899.873	19791
899.993	19944
900.113	19826
900.232	19780
900.352	19799
900.472	19795
900.591	19643
900.711	19738
900.83	19575
900.95	19807
901.069	19761
901.189	19639
901.308	19362
901.427	19285
901.546	19312
901.665	19365
901.784	19247
901.904	19122
902.023	19019
902.141	18981
902.26	18783
902.379	18837
902.498	18924
902.617	18760
902.735	18829
902.854	18700
902.973	18722
903.091	18604
903.21	18525
903.328	18471
903.446	18296
903.565	18308
903.683	18315
903.801	18129
903.919	18174
904.038	18251
904.156	18091
904.274	17992
904.392	17965
904.51	17954
904.627	18019
904.745	18125
904.863	18140
904.981	17901
905.098	17661
905.216	17691
905.334	17737
905.451	17710
905.569	17672
905.686	17756
905.803	17672
905.921	17436
906.038	17589
906.155	17573
906.272	17379
906.389	17493
906.506	17292
906.623	17273
906.74	17235
906.857	17162
906.974	17231
907.091	17303
907.208	17250
907.324	17296
907.441	17090
907.557	16923
907.674	17029
907.79	16900
907.907	16968
908.023	17029
908.139	16896
908.256	16946
908.372	16862
908.488	16797
908.604	16664
908.72	16660
908.836	16752
908.952	16694
909.068	16668
909.184	16774
909.3	16664
909.415	16820
909.531	16668
909.647	16451
909.762	16344
909.878	16356
909.993	16409
910.108	16421
910.224	16398
910.339	16462
910.454	16223
910.57	16329
910.685	16150
910.8	16375
910.915	16337
911.03	16261
911.145	16082
911.259	16051
911.374	16032
911.489	15899
911.604	15880
911.718	15751
911.833	15770
911.947	15591
912.062	15595
912.176	15637
912.291	15797
912.405	15717
912.519	16013
912.633	15915
912.748	15736
912.862	15724
912.976	15595
913.09	15454
913.204	15443
913.318	15473
913.431	15641
913.545	15542
913.659	15667
913.772	15526
913.886	15469
914	15370
914.113	15496
914.226	15443
914.34	15344
914.453	15154
914.566	15389
914.68	15298
914.793	15142
914.906	15070
915.019	15005
915.132	14925
915.245	14941
915.358	15043
915.47	14880
915.583	14883
915.696	15020
915.809	15058
915.921	15085
916.034	14967
916.146	14872
916.259	14800
916.371	14956
916.483	14944
916.595	14697
916.708	14845
916.82	14849
916.932	14773
917.044	14682
917.156	14861
917.268	14686
917.38	14613
917.491	14514
917.603	14530
917.715	14640
917.826	14823
917.938	14632
918.049	14518
918.161	14537
918.272	14765
918.384	14720
918.495	14556
918.606	14358
918.717	14305
918.828	14419
918.939	14427
919.05	14259
919.161	14339
919.272	14195
919.383	14233
919.494	14419
919.604	14613
919.715	14476
919.826	14282
919.936	14286
920.047	14419
920.157	14370
920.267	14537
920.378	14320
920.488	14385
920.598	14465
920.708	14682
920.818	14492
920.928	14511
921.038	14644
921.148	14590
921.258	14233
921.368	14199
921.477	14096
921.587	14031
921.697	13997
921.806	14142
921.916	13959
922.025	13761
922.134	13689
922.244	13689
922.353	13811
922.462	13639
922.571	13563
922.68	13388
922.789	13400
922.898	13350
923.007	13270
923.116	13438
923.224	13358
923.333	13411
923.442	13244
923.55	13209
923.659	13251
923.767	13247
923.876	13149
923.984	13209
924.092	13038
924.201	13259
924.309	13149
924.417	13152
924.525	13019
924.633	13027
924.741	13845
924.849	12817
924.956	13008
925.064	12829
925.172	12772
925.279	12810
925.387	12783
925.494	12833
925.602	12981
925.709	12817
925.816	12703
925.924	12730
926.031	12757
926.138	12753
926.245	12829
926.352	12681
926.459	12757
926.566	12741
926.673	12631
926.779	12525
926.886	12620
926.993	12429
927.099	12422
927.206	12361
927.312	12365
927.419	12323
927.525	12422
927.631	12372
927.737	12273
927.843	12304
927.95	12087
928.056	12171
928.162	12228
928.267	12209
928.373	12810
928.479	12311
928.585	12057
928.69	12136
928.796	12159
928.901	12057
929.007	11885
929.112	12102
929.218	11999
929.323	12034
929.428	11893
929.533	12110
929.638	11813
929.743	11897
929.848	11927
929.953	11863
930.058	11836
930.163	11630
930.267	11665
930.372	11882
930.477	11604
930.581	11790
930.685	11775
930.79	11562
930.894	11630
930.998	11482
931.103	11653
931.207	11227
931.311	11197
931.415	11189
931.519	10957
931.623	10908
