Data from test_V78500241_3316.txt Node
Date: Fri Mar 25 15:32:57 CST 2022
User: usil
Spectrometer: V785-0024
Trigger mode: 0
Integration Time (sec): 4.000000E-1
Scans to average: 1
Nonlinearity correction enabled: false
Boxcar width: 0
Storing dark spectrum: false
XAxis mode: Wavelengths
Number of Pixels in Spectrum: 1024
>>>>>Begin Spectral Data<<<<<
801.071	27317
801.214	27268
801.356	27127
801.499	26834
801.641	26750
801.783	26986
801.926	26899
802.068	26845
802.211	26823
802.353	26708
802.496	26556
802.638	26625
802.78	26564
802.923	26332
803.065	26343
803.208	26377
803.35	26511
803.492	26492
803.635	26682
803.777	26518
803.919	26571
804.061	27055
804.204	26800
804.346	26693
804.488	26552
804.63	26667
804.773	26503
804.915	26663
805.057	26743
805.199	26594
805.341	26659
805.483	26807
805.626	26758
805.768	26701
805.91	26701
806.052	26796
806.194	26686
806.336	26849
806.478	26918
806.62	26682
806.762	26861
806.904	26960
807.046	27272
807.188	27135
807.33	27131
807.472	27294
807.614	27028
807.756	27142
807.898	26925
808.04	26960
808.182	26971
808.324	27135
808.465	27070
808.607	27298
808.749	27355
808.891	27587
809.033	27454
809.174	27306
809.316	27382
809.458	27473
809.6	27397
809.741	27374
809.883	27523
810.025	27686
810.166	27686
810.308	27515
810.45	27583
810.591	27485
810.733	27389
810.875	27355
811.016	27249
811.158	27454
811.299	27420
811.441	27504
811.582	27431
811.724	27424
811.865	27260
812.007	27241
812.148	27317
812.29	27374
812.431	27534
812.573	27698
812.714	27816
812.855	27755
812.997	27934
813.138	28131
813.279	27816
813.421	27827
813.562	27827
813.703	27656
813.845	27542
813.986	27241
814.127	26998
814.268	27005
814.41	27108
814.551	26895
814.692	27089
814.833	26883
814.974	27001
815.115	26967
815.256	26933
815.397	26933
815.539	26739
815.68	26765
815.821	26674
815.962	26739
816.103	26735
816.244	26598
816.385	26632
816.526	26564
816.666	26320
816.807	26271
816.948	26332
817.089	26301
817.23	26282
817.371	26324
817.512	26164
817.653	26237
817.793	26191
817.934	26259
818.075	26309
818.216	26225
818.356	26225
818.497	26202
818.638	25986
818.778	26050
818.919	25944
819.06	26031
819.2	26206
819.341	26263
819.481	26263
819.622	26480
819.762	26518
819.903	26530
820.043	26355
820.184	26328
820.324	26404
820.465	26492
820.605	26328
820.746	26355
820.886	26240
821.026	26328
821.167	26381
821.307	26339
821.447	26263
821.588	26001
821.728	26138
821.868	25765
822.008	25712
822.149	25761
822.289	25837
822.429	25483
822.569	25441
822.709	25529
822.849	25282
822.99	25324
823.13	25244
823.27	25228
823.41	25031
823.55	25023
823.69	25099
823.83	25118
823.97	25027
824.11	24890
824.25	24890
824.389	24920
824.529	24924
824.669	24795
824.809	24905
824.949	24989
825.089	24958
825.228	24939
825.368	24825
825.508	24639
825.648	24768
825.787	24837
825.927	24768
826.067	24589
826.206	24814
826.346	24745
826.485	24795
826.625	24760
826.765	24882
826.904	24764
827.044	24467
827.183	24627
827.323	24460
827.462	24544
827.601	24585
827.741	24456
827.88	24460
828.02	24395
828.159	24315
828.298	24540
828.437	24410
828.577	24342
828.716	24494
828.855	24304
828.994	24171
829.134	24224
829.273	24102
829.412	24178
829.551	24167
829.69	24163
829.829	24254
829.968	24300
830.107	24243
830.246	24114
830.385	24064
830.524	24159
830.663	23969
830.802	23965
830.941	23863
831.08	23680
831.219	23783
831.357	23840
831.496	23992
831.635	23733
831.774	23604
831.913	23661
832.051	23554
832.19	23524
832.329	23592
832.467	23452
832.606	23318
832.744	23410
832.883	23452
833.022	23429
833.16	23505
833.299	23414
833.437	23505
833.576	23577
833.714	23482
833.852	23516
833.991	23611
834.129	23661
834.267	23581
834.406	23596
834.544	23524
834.682	23592
834.821	23402
834.959	23707
835.097	23387
835.235	23615
835.373	23566
835.511	23471
835.65	23436
835.788	23296
835.926	23296
836.064	23223
836.202	23261
836.34	23360
836.478	23433
836.615	23387
836.753	23444
836.891	23421
837.029	23398
837.167	23315
837.305	23174
837.443	23193
837.58	23220
837.718	23345
837.856	23379
837.993	23246
838.131	23280
838.269	23170
838.406	23143
838.544	23079
838.681	23025
838.819	22987
838.956	22763
839.094	22664
839.231	22767
839.369	22866
839.506	23098
839.643	23037
839.781	22721
839.918	22748
840.055	22618
840.193	22656
840.33	22698
840.467	22649
840.604	22641
840.742	23075
840.879	22466
841.016	22573
841.153	22519
841.29	22755
841.427	22702
841.564	22687
841.701	22660
841.838	22618
841.975	22413
842.112	22596
842.249	22557
842.385	22508
842.522	22641
842.659	22535
842.796	22432
842.933	22413
843.069	22432
843.206	22265
843.343	22424
843.479	22550
843.616	22379
843.752	22261
843.889	22249
844.025	22348
844.162	22226
844.298	22360
844.435	22177
844.571	21979
844.708	22299
844.844	22436
844.98	22253
845.117	22257
845.253	22017
845.389	22059
845.525	22128
845.661	22021
845.798	21945
845.934	21983
846.07	21979
846.206	21937
846.342	22048
846.478	21903
846.614	21785
846.75	21652
846.886	21652
847.022	21736
847.158	21690
847.294	21690
847.429	21747
847.565	21648
847.701	21804
847.837	21447
847.972	21298
848.108	21557
848.244	21504
848.379	21260
848.515	21287
848.65	21233
848.786	21176
848.921	21226
849.057	21348
849.192	21355
849.328	21317
849.463	21176
849.598	21203
849.734	21127
849.869	21138
850.004	21036
850.14	21020
850.275	20979
850.41	20864
850.545	20986
850.68	21009
850.815	21039
850.95	20956
851.085	21230
851.22	21222
851.355	21096
851.49	21036
851.625	21074
851.76	21039
851.895	20895
852.03	21055
852.165	21020
852.299	21089
852.434	21150
852.569	21051
852.703	21081
852.838	21055
852.973	21192
853.107	21188
853.242	20998
853.376	20845
853.511	20815
853.645	20845
853.78	20986
853.914	20910
854.048	20910
854.183	20804
854.317	20902
854.451	20902
854.585	20998
854.72	20937
854.854	20986
854.988	20834
855.122	20777
855.256	20724
855.39	20876
855.524	21039
855.658	20952
855.792	20952
855.926	20956
856.06	20941
856.194	20853
856.327	20731
856.461	20739
856.595	20788
856.729	20811
856.862	20902
856.996	20960
857.13	20910
857.263	20925
857.397	20967
857.53	20781
857.664	20948
857.797	20994
857.931	20849
858.064	20868
858.197	20918
858.331	20891
858.464	20823
858.597	20663
858.731	20823
858.864	20895
858.997	20880
859.13	20826
859.263	20815
859.396	20975
859.529	20845
859.662	20727
859.795	20823
859.928	20948
860.061	20887
860.194	21001
860.327	20864
860.46	20788
860.592	21051
860.725	20975
860.858	20830
860.99	20781
861.123	20792
861.256	20746
861.388	20804
861.521	21405
861.653	20724
861.786	20644
861.918	20644
862.05	20906
862.183	20796
862.315	20765
862.447	20883
862.58	20659
862.712	20587
862.844	20609
862.976	20648
863.108	20678
863.24	21089
863.372	20545
863.504	20495
863.636	20526
863.768	20598
863.9	20632
864.032	20442
864.164	20473
864.296	20499
864.428	20678
864.559	20617
864.691	20686
864.823	20556
864.954	20469
865.086	20545
865.217	20541
865.349	20465
865.48	20469
865.612	20522
865.743	20693
865.875	20370
866.006	20415
866.137	20465
866.269	20446
866.4	20465
866.531	20461
866.662	20396
866.793	20457
866.924	20431
867.055	20431
867.186	20530
867.317	20389
867.448	20275
867.579	20469
867.71	20221
867.841	20366
867.972	20400
868.103	20358
868.233	20377
868.364	20336
868.495	20568
868.625	20594
868.756	20727
868.886	20629
869.017	20670
869.147	20697
869.278	20724
869.408	20746
869.539	20613
869.669	20689
869.799	20762
869.929	20811
870.06	20754
870.19	20921
870.32	20937
870.45	20967
870.58	21077
870.71	21173
870.84	21135
870.97	21195
871.1	21017
871.23	21173
871.36	21245
871.489	21176
871.619	21317
871.749	21218
871.879	21222
872.008	21416
872.138	21321
872.267	21268
872.397	21195
872.526	21116
872.656	21180
872.785	21119
872.915	21233
873.044	21363
873.173	21275
873.303	21428
873.432	21420
873.561	21405
873.69	21272
873.819	21298
873.948	21401
874.077	21249
874.206	21306
874.335	21222
874.464	21176
874.593	21462
874.722	21416
874.851	21583
874.979	21424
875.108	21595
875.237	21485
875.365	21462
875.494	21496
875.623	21606
875.751	21462
875.88	21568
876.008	21732
876.136	21587
876.265	21926
876.393	22112
876.521	21956
876.65	21934
876.778	21968
876.906	21808
877.034	21766
877.162	21884
877.29	21747
877.418	21918
877.546	21979
877.674	21827
877.802	21835
877.93	21785
878.058	21759
878.185	21694
878.313	21884
878.441	21918
878.568	21679
878.696	21728
878.824	21854
878.951	21937
879.079	22135
879.206	22105
879.333	21953
879.461	21937
879.588	22017
879.715	22059
879.842	22090
879.97	21975
880.097	21637
880.224	21656
880.351	21759
880.478	21682
880.605	21618
880.732	21774
880.859	21930
880.986	21629
881.112	21698
881.239	21549
881.366	21466
881.493	21283
881.619	21256
881.746	21313
881.872	21287
881.999	21188
882.125	21146
882.252	21386
882.378	21329
882.505	21351
882.631	21104
882.757	21024
882.883	20960
883.01	21116
883.136	20963
883.262	20937
883.388	20746
883.514	21070
883.64	21070
883.766	20941
883.892	20800
884.018	20773
884.143	20933
884.269	21020
884.395	20754
884.52	20560
884.646	20693
884.772	20560
884.897	20629
885.023	20621
885.148	20693
885.274	20750
885.399	20762
885.524	20518
885.65	20602
885.775	20632
885.9	20625
886.025	20682
886.15	20644
886.275	20629
886.4	20545
886.525	20568
886.65	20609
886.775	20446
886.9	20735
887.025	20769
887.149	20533
887.274	20370
887.399	20419
887.523	20381
887.648	20423
887.773	20381
887.897	20431
888.021	20362
888.146	20404
888.27	20522
888.395	20457
888.519	20473
888.643	20423
888.767	20400
888.891	20336
889.015	20233
889.139	20343
889.263	20183
889.387	20286
889.511	20431
889.635	20309
889.759	20176
889.883	20153
890.006	20256
890.13	20252
890.254	20065
890.377	20058
890.501	19947
890.624	19986
890.748	20031
890.871	19807
890.995	19841
891.118	19803
891.241	19841
891.364	19704
891.488	19947
891.611	19727
891.734	19841
891.857	19788
891.98	19845
892.103	19978
892.226	19799
892.349	19742
892.471	19601
892.594	19712
892.717	19761
892.839	19662
892.962	19757
893.085	19788
893.207	19643
893.33	19632
893.452	19715
893.575	19856
893.697	19693
893.819	19864
893.941	19913
894.064	19841
894.186	19811
894.308	19670
894.43	19791
894.552	19788
894.674	19803
894.796	19658
894.918	19757
895.04	19544
895.161	19727
895.283	19651
895.405	19712
895.526	19605
895.648	19559
895.769	19704
895.891	19639
896.012	19616
896.134	19715
896.255	19662
896.376	19693
896.498	19875
896.619	19719
896.74	19719
896.861	19784
896.982	19993
897.103	20126
897.224	20020
897.345	20035
897.466	19868
897.587	20020
897.708	19944
897.828	19967
897.949	19906
898.07	19776
898.19	19830
898.311	20084
898.431	19864
898.552	19871
898.672	20077
898.792	20043
898.913	19928
899.033	19856
899.153	19875
899.273	19582
899.393	19769
899.513	19742
899.633	19655
899.753	19753
899.873	19571
899.993	19670
900.113	19609
900.232	19658
900.352	19582
900.472	19537
900.591	19365
900.711	19384
900.83	19445
900.95	19563
901.069	19510
901.189	19255
901.308	19107
901.427	19046
901.546	19012
901.665	19160
901.784	19129
901.904	18924
902.023	18894
902.141	18681
902.26	18540
902.379	18669
902.498	18570
902.617	18407
902.735	18570
902.854	18540
902.973	18589
903.091	18232
903.21	18209
903.328	18308
903.446	18178
903.565	18022
903.683	18007
903.801	17912
903.919	18060
904.038	17912
904.156	17832
904.274	17889
904.392	17775
904.51	17760
904.627	17851
904.745	17897
904.863	17840
904.981	17707
905.098	17516
905.216	17402
905.334	17471
905.451	17528
905.569	17539
905.686	17547
905.803	17493
905.921	17292
906.038	17334
906.155	17353
906.272	17204
906.389	17124
906.506	17052
906.623	17071
906.74	17094
906.857	16949
906.974	16881
907.091	17041
907.208	17140
907.324	17006
907.441	16934
907.557	16809
907.674	16710
907.79	16698
907.907	16725
908.023	16831
908.139	16759
908.256	16672
908.372	16615
908.488	16611
908.604	16436
908.72	16516
908.836	16535
908.952	16417
909.068	16421
909.184	16561
909.3	16466
909.415	16462
909.531	16508
909.647	16280
909.762	16272
909.878	16215
909.993	16128
910.108	16173
910.224	16143
910.339	16242
910.454	16055
910.57	16013
910.685	15937
910.8	16261
910.915	16162
911.03	16071
911.145	15808
911.259	15804
911.374	15739
911.489	15724
911.604	15599
911.718	15504
911.833	15637
911.947	15450
912.062	15416
912.176	15549
912.291	15591
912.405	15462
912.519	15743
912.633	15751
912.748	15557
912.862	15545
912.976	15397
913.09	15260
913.204	15161
913.318	15408
913.431	15416
913.545	15370
913.659	15424
913.772	15344
913.886	15154
914	15142
914.113	15199
914.226	15370
914.34	15245
914.453	15036
914.566	15256
914.68	15066
914.793	15043
914.906	14918
915.019	14815
915.132	14712
915.245	14849
915.358	14762
915.47	14815
915.583	14834
915.696	14868
915.809	14868
915.921	14868
916.034	14739
916.146	14750
916.259	14621
916.371	14872
916.483	14735
916.595	14697
916.708	14663
916.82	14769
916.932	14537
917.044	14419
917.156	14526
917.268	14495
917.38	14499
917.491	14442
917.603	14427
917.715	14488
917.826	14499
917.938	14332
918.049	14328
918.161	14324
918.272	14492
918.384	14454
918.495	14347
918.606	14355
918.717	14157
918.828	14240
918.939	14290
919.05	14123
919.161	14317
919.272	14008
919.383	14119
919.494	14233
919.604	14370
919.715	14240
919.826	14058
919.936	14244
920.047	14347
920.157	14130
920.267	14362
920.378	14168
920.488	14145
920.598	14267
920.708	14484
920.818	14317
920.928	14343
921.038	14431
921.148	14370
921.258	14191
921.368	14065
921.477	13951
921.587	13879
921.697	13807
921.806	13902
921.916	13731
922.025	13685
922.134	13605
922.244	13438
922.353	13563
922.462	13525
922.571	13415
922.68	13278
922.789	13194
922.898	13312
923.007	13213
923.116	13236
923.224	13198
923.333	13129
923.442	13149
923.55	13012
923.659	13164
923.767	13107
923.876	13038
923.984	13008
924.092	12993
924.201	12901
924.309	12966
924.417	12894
924.525	13004
924.633	12970
924.741	13879
924.849	12741
924.956	12760
925.064	12673
925.172	12604
925.279	12627
925.387	12616
925.494	12692
925.602	12753
925.709	12582
925.816	12479
925.924	12612
926.031	12669
926.138	12551
926.245	12597
926.352	12513
926.459	12711
926.566	12631
926.673	12521
926.779	12464
926.886	12346
926.993	12281
927.099	12232
927.206	12178
927.312	12106
927.419	12247
927.525	12300
927.631	12334
927.737	12209
927.843	12144
927.95	11984
928.056	11999
928.162	12060
928.267	12083
928.373	12604
928.479	12117
928.585	11977
928.69	12041
928.796	12087
928.901	11904
929.007	11790
929.112	11946
929.218	11859
929.323	11851
929.428	11802
929.533	11950
929.638	11684
929.743	11809
929.848	11764
929.953	11771
930.058	11608
930.163	11478
930.267	11535
930.372	11638
930.477	11448
930.581	11703
930.685	11558
930.79	11429
930.894	11364
930.998	11322
931.103	11482
931.207	10999
931.311	11079
931.415	10968
931.519	10717
931.623	10771
