Data from test_V78500241_64.txt Node
Date: Fri Mar 25 15:10:18 CST 2022
User: usil
Spectrometer: V785-0024
Trigger mode: 0
Integration Time (sec): 4.000000E-1
Scans to average: 1
Nonlinearity correction enabled: false
Boxcar width: 0
Storing dark spectrum: false
XAxis mode: Wavelengths
Number of Pixels in Spectrum: 1024
>>>>>Begin Spectral Data<<<<<
801.071	28641
801.214	28615
801.356	28379
801.499	28314
801.641	28276
801.783	28249
801.926	28242
802.068	28116
802.211	28048
802.353	27964
802.496	27918
802.638	27808
802.78	27736
802.923	27679
803.065	27667
803.208	27713
803.35	27816
803.492	27785
803.635	27846
803.777	27960
803.919	27937
804.061	28333
804.204	27770
804.346	27793
804.488	27701
804.63	27797
804.773	27793
804.915	27755
805.057	27861
805.199	27747
805.341	27918
805.483	27983
805.626	27907
805.768	27812
805.91	27922
806.052	27914
806.194	27857
806.336	28059
806.478	28067
806.62	27930
806.762	27880
806.904	28105
807.046	28344
807.188	28253
807.33	28223
807.472	28268
807.614	28253
807.756	28200
807.898	28006
808.04	27941
808.182	28029
808.324	28124
808.465	28124
808.607	28226
808.749	28234
808.891	28508
809.033	28470
809.174	28527
809.316	28409
809.458	28310
809.6	28318
809.741	28573
809.883	28554
810.025	28649
810.166	28637
810.308	28565
810.45	28622
810.591	28432
810.733	28329
810.875	28333
811.016	28455
811.158	28120
811.299	28394
811.441	28432
811.582	28417
811.724	28329
811.865	28150
812.007	28299
812.148	28375
812.29	28405
812.431	28580
812.573	28660
812.714	28679
812.855	28805
812.997	28904
813.138	29041
813.279	29128
813.421	28900
813.562	28706
813.703	28592
813.845	28421
813.986	28223
814.127	28063
814.268	27854
814.41	28032
814.551	27873
814.692	27983
814.833	27922
814.974	27785
815.115	27808
815.256	27770
815.397	27842
815.539	27759
815.68	27690
815.821	27561
815.962	27663
816.103	27671
816.244	27424
816.385	27507
816.526	27435
816.666	27302
816.807	27138
816.948	27207
817.089	27195
817.23	27100
817.371	27096
817.512	27081
817.653	27032
817.793	27001
817.934	27074
818.075	26982
818.216	26956
818.356	26868
818.497	26895
818.638	26758
818.778	26754
818.919	26796
819.06	26876
819.2	26853
819.341	26921
819.481	26960
819.622	27169
819.762	27154
819.903	27329
820.043	27211
820.184	27062
820.324	27020
820.465	26979
820.605	27074
820.746	27089
820.886	26940
821.026	27009
821.167	26887
821.307	27013
821.447	26906
821.588	26750
821.728	26648
821.868	26549
822.008	26343
822.149	26511
822.289	26488
822.429	26172
822.569	26027
822.709	26103
822.849	25890
822.99	25833
823.13	25852
823.27	25795
823.41	25719
823.55	25529
823.69	25605
823.83	25655
823.97	25578
824.11	25457
824.25	25445
824.389	25502
824.529	25369
824.669	25495
824.809	25586
824.949	25559
825.089	25392
825.228	25460
825.368	25263
825.508	25152
825.648	25221
825.787	25198
825.927	25354
826.067	25190
826.206	25122
826.346	25369
826.485	25339
826.625	25274
826.765	25464
826.904	25285
827.044	25061
827.183	24833
827.323	24806
827.462	24951
827.601	24825
827.741	24939
827.88	24909
828.02	24658
828.159	24924
828.298	24973
828.437	25000
828.577	24935
828.716	24932
828.855	24840
828.994	24536
829.134	24551
829.273	24639
829.412	24509
829.551	24517
829.69	24437
829.829	24589
829.968	24620
830.107	24513
830.246	24669
830.385	24410
830.524	24460
830.663	24399
830.802	24186
830.941	24087
831.08	24064
831.219	24213
831.357	24129
831.496	24334
831.635	24163
831.774	23942
831.913	24015
832.051	23893
832.19	23783
832.329	23920
832.467	23638
832.606	23668
832.744	23672
832.883	23786
833.022	23630
833.16	23729
833.299	23764
833.437	23786
833.576	23851
833.714	23771
833.852	23821
833.991	23752
834.129	23885
834.267	23790
834.406	23668
834.544	23817
834.682	23699
834.821	23676
834.959	23901
835.097	23695
835.235	23745
835.373	23699
835.511	23661
835.65	23539
835.788	23478
835.926	23444
836.064	23356
836.202	23353
836.34	23687
836.478	23699
836.615	23547
836.753	23493
836.891	23649
837.029	23539
837.167	23585
837.305	23535
837.443	23421
837.58	23417
837.718	23531
837.856	23421
837.993	23284
838.131	23417
838.269	23303
838.406	23303
838.544	23067
838.681	22957
838.819	23014
838.956	22873
839.094	22729
839.231	22812
839.369	22972
839.506	23208
839.643	22987
839.781	22820
839.918	22736
840.055	22767
840.193	22774
840.33	22763
840.467	22752
840.604	22683
840.742	23025
840.879	22481
841.016	22656
841.153	22672
841.29	22778
841.427	22748
841.564	22725
841.701	22660
841.838	22584
841.975	22493
842.112	22504
842.249	22554
842.385	22481
842.522	22599
842.659	22459
842.796	22462
842.933	22360
843.069	22390
843.206	22341
843.343	22436
843.479	22436
843.616	22375
843.752	22105
843.889	22211
844.025	22352
844.162	22116
844.298	22295
844.435	22143
844.571	22109
844.708	22253
844.844	22192
844.98	22249
845.117	22249
845.253	22074
845.389	22002
845.525	21991
845.661	21979
845.798	21850
845.934	21941
846.07	21789
846.206	21907
846.342	22021
846.478	21846
846.614	21755
846.75	21595
846.886	21599
847.022	21648
847.158	21709
847.294	21511
847.429	21656
847.565	21599
847.701	21861
847.837	21279
847.972	21230
848.108	21382
848.244	21272
848.379	21222
848.515	21127
848.65	21093
848.786	21218
848.921	21135
849.057	21207
849.192	21112
849.328	21161
849.463	21093
849.598	21074
849.734	21024
849.869	21020
850.004	20883
850.14	20925
850.275	20807
850.41	20750
850.545	20746
850.68	20891
850.815	20830
850.95	20754
851.085	20948
851.22	20990
851.355	20811
851.49	20781
851.625	20792
851.76	20861
851.895	20682
852.03	20705
852.165	20708
852.299	20929
852.434	20876
852.569	20807
852.703	20750
852.838	20804
852.973	20952
853.107	20929
853.242	20796
853.376	20701
853.511	20469
853.645	20594
853.78	20785
853.914	20636
854.048	20526
854.183	20511
854.317	20617
854.451	20849
854.585	20579
854.72	20625
854.854	20819
854.988	20571
855.122	20476
855.256	20377
855.39	20648
855.524	20663
855.658	20678
855.792	20636
855.926	20568
856.06	20636
856.194	20731
856.327	20689
856.461	20530
856.595	20568
856.729	20503
856.862	20727
856.996	20613
857.13	20667
857.263	20750
857.397	20788
857.53	20492
857.664	20663
857.797	20678
857.931	20800
858.064	20579
858.197	20621
858.331	20507
858.464	20522
858.597	20423
858.731	20503
858.864	20503
858.997	20495
859.13	20469
859.263	20613
859.396	20583
859.529	20526
859.662	20518
859.795	20526
859.928	20514
860.061	20754
860.194	20716
860.327	20674
860.46	20545
860.592	20427
860.725	20724
860.858	20579
860.99	20575
861.123	20389
861.256	20374
861.388	20480
861.521	21161
861.653	20492
861.786	20339
861.918	20393
862.05	20514
862.183	20617
862.315	20697
862.447	20518
862.58	20579
862.712	20442
862.844	20355
862.976	20298
863.108	20400
863.24	20712
863.372	20180
863.504	20320
863.636	20320
863.768	20248
863.9	20240
864.032	20088
864.164	20259
864.296	20145
864.428	20339
864.559	20278
864.691	20309
864.823	20305
864.954	20130
865.086	20142
865.217	20138
865.349	20016
865.48	20252
865.612	20202
865.743	20122
865.875	20248
866.006	20065
866.137	20149
866.269	20122
866.4	20183
866.531	20065
866.662	20126
866.793	20050
866.924	20157
867.055	20043
867.186	20050
867.317	20008
867.448	20054
867.579	19986
867.71	19894
867.841	19978
867.972	20069
868.103	20065
868.233	20012
868.364	20088
868.495	20126
868.625	20221
868.756	20400
868.886	20252
869.017	20252
869.147	20263
869.278	20495
869.408	20271
869.539	20271
869.669	20301
869.799	20237
869.929	20370
870.06	20476
870.19	20648
870.32	20648
870.45	20583
870.58	20629
870.71	20724
870.84	20788
870.97	20590
871.1	20648
871.23	20887
871.36	20906
871.489	20887
871.619	20979
871.749	20876
871.879	20857
872.008	20906
872.138	20914
872.267	20765
872.397	20746
872.526	20731
872.656	20716
872.785	20705
872.915	20891
873.044	21009
873.173	20872
873.303	20910
873.432	20925
873.561	20902
873.69	21009
873.819	20883
873.948	21001
874.077	20986
874.206	20861
874.335	20895
874.464	21116
874.593	21112
874.722	21081
874.851	21207
874.979	21108
875.108	21176
875.237	21066
875.365	21093
875.494	21154
875.623	21154
875.751	21188
875.88	21195
876.008	21447
876.136	21279
876.265	21534
876.393	21610
876.521	21663
876.65	21580
876.778	21679
876.906	21435
877.034	21412
877.162	21458
877.29	21424
877.418	21500
877.546	21564
877.674	21576
877.802	21435
877.93	21469
878.058	21549
878.185	21321
878.313	21523
878.441	21481
878.568	21294
878.696	21454
878.824	21610
878.951	21530
879.079	21717
879.206	21751
879.333	21675
879.461	21504
879.588	21614
879.715	21599
879.842	21823
879.97	21538
880.097	21405
880.224	21367
880.351	21310
880.478	21351
880.605	21283
880.732	21355
880.859	21701
880.986	21329
881.112	21382
881.239	21256
881.366	21093
881.493	20906
881.619	20880
881.746	20975
881.872	20960
881.999	20902
882.125	20895
882.252	21001
882.378	20853
882.505	20994
882.631	20891
882.757	20636
882.883	20800
883.01	20716
883.136	20564
883.262	20484
883.388	20461
883.514	20758
883.64	20651
883.766	20651
883.892	20476
884.018	20526
884.143	20594
884.269	20602
884.395	20351
884.52	20343
884.646	20286
884.772	20301
884.897	20309
885.023	20362
885.148	20343
885.274	20389
885.399	20438
885.524	20290
885.65	20317
885.775	20301
885.9	20404
886.025	20419
886.15	20263
886.275	20237
886.4	20065
886.525	20309
886.65	20259
886.775	20126
886.9	20461
887.025	20507
887.149	20301
887.274	20088
887.399	20149
887.523	20096
887.648	20054
887.773	20103
887.897	20046
888.021	20153
888.146	19947
888.27	20214
888.395	20214
888.519	20058
888.643	20157
888.767	20119
888.891	20001
889.015	19875
889.139	19993
889.263	19955
889.387	20008
889.511	20088
889.635	19947
889.759	19833
889.883	19978
890.006	19925
890.13	19936
890.254	19864
890.377	19696
890.501	19529
890.624	19616
890.748	19757
890.871	19601
890.995	19525
891.118	19301
891.241	19422
891.364	19480
891.488	19616
891.611	19358
891.734	19453
891.857	19495
891.98	19460
892.103	19548
892.226	19472
892.349	19362
892.471	19274
892.594	19392
892.717	19415
892.839	19407
892.962	19430
893.085	19487
893.207	19324
893.33	19255
893.452	19358
893.575	19384
893.697	19304
893.819	19434
893.941	19537
894.064	19533
894.186	19384
894.308	19228
894.43	19499
894.552	19491
894.674	19499
894.796	19308
894.918	19304
895.04	19339
895.161	19411
895.283	19362
895.405	19289
895.526	19464
895.648	19343
895.769	19388
895.891	19335
896.012	19407
896.134	19480
896.255	19316
896.376	19403
896.498	19422
896.619	19556
896.74	19537
896.861	19499
896.982	19837
897.103	19963
897.224	19719
897.345	19674
897.466	19597
897.587	19624
897.708	19719
897.828	19635
897.949	19639
898.07	19525
898.19	19537
898.311	19719
898.431	19514
898.552	19571
898.672	19696
898.792	19712
898.913	19567
899.033	19369
899.153	19419
899.273	19278
899.393	19358
899.513	19339
899.633	19339
899.753	19384
899.873	19403
899.993	19415
900.113	19202
900.232	19365
900.352	19217
900.472	19145
900.591	19057
900.711	19152
900.83	19038
900.95	19285
901.069	19187
901.189	19088
901.308	18768
901.427	18730
901.546	18684
901.665	18890
901.784	18848
901.904	18547
902.023	18517
902.141	18289
902.26	18342
902.379	18292
902.498	18194
902.617	18125
902.735	18277
902.854	18140
902.973	18140
903.091	17889
903.21	17817
903.328	17958
903.446	17863
903.565	17722
903.683	17672
903.801	17558
903.919	17672
904.038	17718
904.156	17547
904.274	17634
904.392	17471
904.51	17539
904.627	17600
904.745	17490
904.863	17509
904.981	17292
905.098	17132
905.216	17147
905.334	17261
905.451	17239
905.569	17052
905.686	17204
905.803	17136
905.921	16976
906.038	17025
906.155	16911
906.272	16873
906.389	16866
906.506	16725
906.623	16698
906.74	16725
906.857	16611
906.974	16523
907.091	16778
907.208	16778
907.324	16641
907.441	16508
907.557	16421
907.674	16333
907.79	16386
907.907	16356
908.023	16440
908.139	16421
908.256	16246
908.372	16295
908.488	16120
908.604	16044
908.72	16150
908.836	16109
908.952	16021
909.068	16158
909.184	16223
909.3	16086
909.415	16154
909.531	16101
909.647	15812
909.762	15800
909.878	15755
909.993	15633
910.108	15701
910.224	15675
910.339	15766
910.454	15648
910.57	15629
910.685	15511
910.8	15778
910.915	15789
911.03	15511
911.145	15462
911.259	15336
911.374	15397
911.489	15211
911.604	15264
911.718	15028
911.833	15138
911.947	15081
912.062	14937
912.176	15024
912.291	15001
912.405	14982
912.519	15169
912.633	15283
912.748	15222
912.862	15138
912.976	14963
913.09	14788
913.204	14845
913.318	14937
913.431	15009
913.545	15066
913.659	15001
913.772	14868
913.886	14800
914	14686
914.113	14792
914.226	14960
914.34	14788
914.453	14625
914.566	14750
914.68	14648
914.793	14552
914.906	14518
915.019	14313
915.132	14298
915.245	14355
915.358	14374
915.47	14347
915.583	14343
915.696	14355
915.809	14545
915.921	14457
916.034	14351
916.146	14214
916.259	14294
916.371	14408
916.483	14210
916.595	14263
916.708	14176
916.82	14202
916.932	14134
917.044	14142
917.156	14145
917.268	14012
917.38	14084
917.491	14100
917.603	13913
917.715	14142
917.826	14183
917.938	14031
918.049	13837
918.161	14043
918.272	14081
918.384	14111
918.495	13986
918.606	13822
918.717	13887
918.828	13852
918.939	13837
919.05	13731
919.161	13852
919.272	13582
919.383	13685
919.494	13826
919.604	13947
919.715	13784
919.826	13655
919.936	13670
920.047	13841
920.157	13772
920.267	13970
920.378	13803
920.488	13674
920.598	14005
920.708	14020
920.818	13879
920.928	13811
921.038	14103
921.148	13963
921.258	13727
921.368	13613
921.477	13514
921.587	13521
921.697	13343
921.806	13499
921.916	13346
922.025	13160
922.134	13217
922.244	13129
922.353	13232
922.462	13053
922.571	12962
922.68	12890
922.789	12711
922.898	12821
923.007	12703
923.116	12817
923.224	12726
923.333	12757
923.442	12715
923.55	12692
923.659	12688
923.767	12745
923.876	12574
923.984	12692
924.092	12574
924.201	12601
924.309	12506
924.417	12536
924.525	12441
924.633	12422
924.741	13209
924.849	12258
924.956	12448
925.064	12194
925.172	12182
925.279	12247
925.387	12304
925.494	12254
925.602	12441
925.709	12258
925.816	12186
925.924	12201
926.031	12239
926.138	12194
926.245	12270
926.352	12064
926.459	12239
926.566	12235
926.673	12091
926.779	12049
926.886	11973
926.993	11859
927.099	11794
927.206	11817
927.312	11821
927.419	11954
927.525	11874
927.631	11859
927.737	11786
927.843	11718
927.95	11562
928.056	11779
928.162	11649
928.267	11775
928.373	12346
928.479	11783
928.585	11501
928.69	11539
928.796	11729
928.901	11551
929.007	11337
929.112	11627
929.218	11440
929.323	11455
929.428	11467
929.533	11524
929.638	11395
929.743	11372
929.848	11395
929.953	11429
930.058	11231
930.163	11136
930.267	11147
930.372	11254
930.477	11022
930.581	11189
930.685	11162
930.79	10946
930.894	10980
930.998	10923
931.103	11086
931.207	10752
931.311	10672
931.415	10489
931.519	10455
931.623	10306
