Data from test_V78500241_3477.txt Node
Date: Fri Mar 25 15:34:04 CST 2022
User: usil
Spectrometer: V785-0024
Trigger mode: 0
Integration Time (sec): 4.000000E-1
Scans to average: 1
Nonlinearity correction enabled: false
Boxcar width: 0
Storing dark spectrum: false
XAxis mode: Wavelengths
Number of Pixels in Spectrum: 1024
>>>>>Begin Spectral Data<<<<<
801.071	27272
801.214	27306
801.356	27036
801.499	26952
801.641	26921
801.783	26902
801.926	26883
802.068	26651
802.211	26762
802.353	26678
802.496	26526
802.638	26640
802.78	26385
802.923	26259
803.065	26336
803.208	26400
803.35	26594
803.492	26743
803.635	26613
803.777	26541
803.919	26613
804.061	26933
804.204	26651
804.346	26404
804.488	26533
804.63	26568
804.773	26484
804.915	26651
805.057	26697
805.199	26590
805.341	26689
805.483	26826
805.626	26762
805.768	26625
805.91	26689
806.052	26880
806.194	26743
806.336	26937
806.478	26750
806.62	26792
806.762	26895
806.904	26963
807.046	27230
807.188	27123
807.33	27192
807.472	27245
807.614	27055
807.756	27089
807.898	26933
808.04	26838
808.182	26956
808.324	26994
808.465	26971
808.607	27154
808.749	27245
808.891	27336
809.033	27572
809.174	27382
809.316	27298
809.458	27260
809.6	27283
809.741	27374
809.883	27515
810.025	27435
810.166	27675
810.308	27515
810.45	27511
810.591	27591
810.733	27382
810.875	27268
811.016	27188
811.158	27264
811.299	27549
811.441	27542
811.582	27435
811.724	27344
811.865	27222
812.007	27469
812.148	27313
812.29	27359
812.431	27367
812.573	27606
812.714	27682
812.855	27785
812.997	28013
813.138	27960
813.279	28048
813.421	27759
813.562	27903
813.703	27534
813.845	27492
813.986	27279
814.127	27161
814.268	26944
814.41	26994
814.551	26944
814.692	26994
814.833	26868
814.974	26937
815.115	26998
815.256	26842
815.397	26883
815.539	26944
815.68	26807
815.821	26750
815.962	26758
816.103	26667
816.244	26648
816.385	26503
816.526	26328
816.666	26290
816.807	26130
816.948	26282
817.089	26412
817.23	26320
817.371	26240
817.512	26218
817.653	26256
817.793	26069
817.934	26183
818.075	26263
818.216	26252
818.356	26187
818.497	26161
818.638	25925
818.778	25955
818.919	26069
819.06	26115
819.2	26107
819.341	26191
819.481	26294
819.622	26298
819.762	26583
819.903	26533
820.043	26492
820.184	26393
820.324	26385
820.465	26393
820.605	26313
820.746	26336
820.886	26210
821.026	26339
821.167	26062
821.307	26347
821.447	26202
821.588	26168
821.728	26062
821.868	25928
822.008	25742
822.149	25761
822.289	25613
822.429	25495
822.569	25457
822.709	25232
822.849	25217
822.99	25232
823.13	25175
823.27	25027
823.41	25042
823.55	24935
823.69	25069
823.83	24947
823.97	24932
824.11	24863
824.25	24890
824.389	24833
824.529	24894
824.669	24802
824.809	24913
824.949	24871
825.089	24928
825.228	24894
825.368	24696
825.508	24722
825.648	24658
825.787	24764
825.927	24867
826.067	24707
826.206	24772
826.346	24730
826.485	24757
826.625	24726
826.765	24768
826.904	24848
827.044	24509
827.183	24559
827.323	24471
827.462	24456
827.601	24422
827.741	24399
827.88	24555
828.02	24216
828.159	24502
828.298	24426
828.437	24475
828.577	24365
828.716	24544
828.855	24456
828.994	24197
829.134	24015
829.273	24083
829.412	24095
829.551	24106
829.69	24247
829.829	24182
829.968	24194
830.107	24060
830.246	24087
830.385	24068
830.524	24178
830.663	24102
830.802	23935
830.941	23794
831.08	23889
831.219	23843
831.357	23958
831.496	24038
831.635	23779
831.774	23672
831.913	23665
832.051	23509
832.19	23509
832.329	23634
832.467	23402
832.606	23383
832.744	23402
832.883	23471
833.022	23440
833.16	23543
833.299	23440
833.437	23410
833.576	23581
833.714	23467
833.852	23501
833.991	23585
834.129	23623
834.267	23676
834.406	23512
834.544	23665
834.682	23551
834.821	23562
834.959	23611
835.097	23376
835.235	23592
835.373	23417
835.511	23547
835.65	23326
835.788	23433
835.926	23273
836.064	23181
836.202	23250
836.34	23398
836.478	23421
836.615	23307
836.753	23364
836.891	23478
837.029	23341
837.167	23356
837.305	23246
837.443	23341
837.58	23220
837.718	23143
837.856	23166
837.993	23086
838.131	23223
838.269	23052
838.406	23151
838.544	23044
838.681	22889
838.819	22820
838.956	22634
839.094	22854
839.231	22786
839.369	22908
839.506	23025
839.643	22995
839.781	22691
839.918	22713
840.055	22706
840.193	22717
840.33	22675
840.467	22767
840.604	22694
840.742	22854
840.879	22584
841.016	22618
841.153	22466
841.29	22801
841.427	22535
841.564	22793
841.701	22565
841.838	22462
841.975	22512
842.112	22470
842.249	22436
842.385	22470
842.522	22531
842.659	22569
842.796	22398
842.933	22238
843.069	22382
843.206	22322
843.343	22485
843.479	22478
843.616	22390
843.752	22154
843.889	22147
844.025	22242
844.162	22226
844.298	22188
844.435	22143
844.571	22135
844.708	22261
844.844	22337
844.98	22249
845.117	22230
845.253	22223
845.389	22025
845.525	22150
845.661	22021
845.798	21972
845.934	22006
846.07	21941
846.206	21926
846.342	22017
846.478	21739
846.614	21671
846.75	21652
846.886	21652
847.022	21770
847.158	21682
847.294	21587
847.429	21682
847.565	21644
847.701	21785
847.837	21424
847.972	21374
848.108	21435
848.244	21450
848.379	21260
848.515	21252
848.65	21192
848.786	21283
848.921	21306
849.057	21272
849.192	21378
849.328	21294
849.463	21302
849.598	21104
849.734	21123
849.869	21077
850.004	21032
850.14	21024
850.275	21032
850.41	20990
850.545	20994
850.68	20933
850.815	21047
850.95	20906
851.085	21188
851.22	21055
851.355	21001
851.49	20998
851.625	20967
851.76	21100
851.895	20910
852.03	20883
852.165	20921
852.299	20948
852.434	21051
852.569	20937
852.703	20975
852.838	21017
852.973	21062
853.107	21154
853.242	20933
853.376	20842
853.511	20629
853.645	20823
853.78	20994
853.914	20792
854.048	20838
854.183	20781
854.317	20876
854.451	20956
854.585	20777
854.72	20762
854.854	20906
854.988	20735
855.122	20891
855.256	20617
855.39	20632
855.524	20902
855.658	20830
855.792	20872
855.926	20773
856.06	20914
856.194	20857
856.327	20785
856.461	20804
856.595	20739
856.729	20815
856.862	20861
856.996	20883
857.13	20823
857.263	20994
857.397	20971
857.53	20876
857.664	20876
857.797	20864
857.931	20986
858.064	20868
858.197	20842
858.331	20830
858.464	20750
858.597	20792
858.731	20895
858.864	20845
858.997	20826
859.13	20853
859.263	20819
859.396	20880
859.529	20807
859.662	20735
859.795	20697
859.928	20853
860.061	20952
860.194	20925
860.327	20887
860.46	20762
860.592	20990
860.725	20990
860.858	20853
860.99	20743
861.123	20758
861.256	20686
861.388	20902
861.521	21469
861.653	20655
861.786	20575
861.918	20636
862.05	20667
862.183	20804
862.315	20758
862.447	20807
862.58	20678
862.712	20587
862.844	20549
862.976	20644
863.108	20708
863.24	21024
863.372	20514
863.504	20507
863.636	20480
863.768	20609
863.9	20533
864.032	20511
864.164	20450
864.296	20617
864.428	20708
864.559	20590
864.691	20541
864.823	20560
864.954	20537
865.086	20568
865.217	20473
865.349	20396
865.48	20434
865.612	20446
865.743	20560
865.875	20408
866.006	20469
866.137	20347
866.269	20229
866.4	20434
866.531	20427
866.662	20301
866.793	20393
866.924	20427
867.055	20419
867.186	20404
867.317	20347
867.448	20210
867.579	20320
867.71	20343
867.841	20282
867.972	20301
868.103	20400
868.233	20362
868.364	20339
868.495	20541
868.625	20663
868.756	20788
868.886	20579
869.017	20640
869.147	20640
869.278	20724
869.408	20609
869.539	20663
869.669	20769
869.799	20651
869.929	20864
870.06	20693
870.19	20982
870.32	20876
870.45	20979
870.58	21020
870.71	21135
870.84	21176
870.97	21066
871.1	21032
871.23	21154
871.36	21241
871.489	21116
871.619	21112
871.749	21237
871.879	21157
872.008	21283
872.138	21264
872.267	21184
872.397	21077
872.526	21066
872.656	21135
872.785	21100
872.915	21203
873.044	21492
873.173	21370
873.303	21306
873.432	21226
873.561	21279
873.69	21275
873.819	21199
873.948	21287
874.077	21351
874.206	21116
874.335	21287
874.464	21435
874.593	21492
874.722	21325
874.851	21538
874.979	21568
875.108	21488
875.237	21549
875.365	21405
875.494	21469
875.623	21606
875.751	21595
875.88	21553
876.008	21663
876.136	21751
876.265	22021
876.393	22074
876.521	22097
876.65	22010
876.778	21907
876.906	21861
877.034	21869
877.162	21755
877.29	21823
877.418	21880
877.546	22029
877.674	21785
877.802	21816
877.93	21895
878.058	21755
878.185	21679
878.313	21747
878.441	21785
878.568	21667
878.696	21865
878.824	21774
878.951	21930
879.079	21987
879.206	22040
879.333	21968
879.461	21918
879.588	21953
879.715	22032
879.842	22070
879.97	21915
880.097	21633
880.224	21675
880.351	21694
880.478	21766
880.605	21564
880.732	21747
880.859	21899
880.986	21762
881.112	21766
881.239	21557
881.366	21340
881.493	21332
881.619	21214
881.746	21294
881.872	21222
881.999	21233
882.125	21146
882.252	21226
882.378	21218
882.505	21405
882.631	21161
882.757	20982
882.883	21116
883.01	20918
883.136	20868
883.262	20727
883.388	20773
883.514	21032
883.64	21001
883.766	20933
883.892	20720
884.018	20693
884.143	20880
884.269	21009
884.395	20792
884.52	20488
884.646	20659
884.772	20518
884.897	20533
885.023	20670
885.148	20701
885.274	20705
885.399	20678
885.524	20720
885.65	20609
885.775	20609
885.9	20590
886.025	20670
886.15	20659
886.275	20495
886.4	20492
886.525	20552
886.65	20545
886.775	20461
886.9	20731
887.025	20800
887.149	20617
887.274	20415
887.399	20393
887.523	20415
887.648	20290
887.773	20355
887.897	20412
888.021	20431
888.146	20263
888.27	20473
888.395	20415
888.519	20385
888.643	20476
888.767	20473
888.891	20275
889.015	20263
889.139	20145
889.263	20142
889.387	20259
889.511	20492
889.635	20324
889.759	20206
889.883	20062
890.006	20275
890.13	20305
890.254	20084
890.377	20138
890.501	20005
890.624	19913
890.748	19921
890.871	19955
890.995	19757
891.118	19734
891.241	19734
891.364	19685
891.488	19902
891.611	19693
891.734	19753
891.857	19799
891.98	19890
892.103	19830
892.226	19689
892.349	19620
892.471	19628
892.594	19670
892.717	19693
892.839	19639
892.962	19780
893.085	19670
893.207	19624
893.33	19597
893.452	19445
893.575	19681
893.697	19666
893.819	19750
893.941	19837
894.064	19784
894.186	19674
894.308	19552
894.43	19708
894.552	19738
894.674	19715
894.796	19635
894.918	19693
895.04	19624
895.161	19822
895.283	19845
895.405	19590
895.526	19723
895.648	19708
895.769	19639
895.891	19601
896.012	19658
896.134	19795
896.255	19632
896.376	19571
896.498	19757
896.619	19738
896.74	19685
896.861	19837
896.982	20043
897.103	20054
897.224	20012
897.345	19849
897.466	19765
897.587	19826
897.708	20096
897.828	20027
897.949	19826
898.07	19750
898.19	19852
898.311	19959
898.431	19860
898.552	19894
898.672	20073
898.792	20043
898.913	19894
899.033	19807
899.153	19700
899.273	19586
899.393	19658
899.513	19681
899.633	19643
899.753	19681
899.873	19632
899.993	19674
900.113	19548
900.232	19624
900.352	19510
900.472	19499
900.591	19358
900.711	19441
900.83	19346
900.95	19537
901.069	19567
901.189	19343
901.308	19179
901.427	19046
901.546	19084
901.665	19019
901.784	19050
901.904	18871
902.023	18829
902.141	18608
902.26	18513
902.379	18582
902.498	18612
902.617	18521
902.735	18585
902.854	18528
902.973	18490
903.091	18258
903.21	18194
903.328	18121
903.446	18121
903.565	18091
903.683	18159
903.801	17897
903.919	18049
904.038	17992
904.156	17855
904.274	17821
904.392	17779
904.51	17798
904.627	17733
904.745	17885
904.863	17847
904.981	17684
905.098	17516
905.216	17395
905.334	17638
905.451	17547
905.569	17379
905.686	17596
905.803	17524
905.921	17246
906.038	17334
906.155	17231
906.272	17242
906.389	17200
906.506	17102
906.623	17006
906.74	17060
906.857	16923
906.974	16904
907.091	17029
907.208	17143
907.324	17048
907.441	16927
907.557	16710
907.674	16755
907.79	16702
907.907	16691
908.023	16797
908.139	16733
908.256	16710
908.372	16637
908.488	16596
908.604	16615
908.72	16466
908.836	16466
908.952	16436
909.068	16519
909.184	16550
909.3	16474
909.415	16565
909.531	16531
909.647	16253
909.762	16173
909.878	16219
909.993	16196
910.108	16177
910.224	16090
910.339	16074
910.454	16078
910.57	15994
910.685	15873
910.8	16238
910.915	16150
911.03	16029
911.145	15899
911.259	15736
911.374	15774
911.489	15720
911.604	15618
911.718	15534
911.833	15568
911.947	15431
912.062	15389
912.176	15526
912.291	15618
912.405	15515
912.519	15705
912.633	15698
912.748	15462
912.862	15568
912.976	15310
913.09	15340
913.204	15340
913.318	15428
913.431	15496
913.545	15439
913.659	15458
913.772	15287
913.886	15093
914	15230
914.113	15222
914.226	15222
914.34	15142
914.453	15081
914.566	15070
914.68	15123
914.793	15009
914.906	14720
915.019	14796
915.132	14724
915.245	14743
915.358	14746
915.47	14785
915.583	14689
915.696	14716
915.809	14941
915.921	14845
916.034	14735
916.146	14613
916.259	14712
916.371	14720
916.483	14674
916.595	14629
916.708	14583
916.82	14716
916.932	14590
917.044	14518
917.156	14583
917.268	14480
917.38	14400
917.491	14396
917.603	14400
917.715	14511
917.826	14522
917.938	14434
918.049	14275
918.161	14324
918.272	14571
918.384	14583
918.495	14355
918.606	14263
918.717	14134
918.828	14237
918.939	14256
919.05	14168
919.161	14225
919.272	14024
919.383	14065
919.494	14195
919.604	14347
919.715	14278
919.826	14149
919.936	14145
920.047	14157
920.157	14195
920.267	14347
920.378	14218
920.488	14130
920.598	14457
920.708	14495
920.818	14347
920.928	14400
921.038	14469
921.148	14396
921.258	14145
921.368	14008
921.477	13898
921.587	13925
921.697	13788
921.806	13967
921.916	13757
922.025	13514
922.134	13540
922.244	13552
922.353	13643
922.462	13483
922.571	13362
922.68	13335
922.789	13270
922.898	13209
923.007	13141
923.116	13209
923.224	13160
923.333	13103
923.442	13088
923.55	13046
923.659	13004
923.767	13031
923.876	12981
923.984	13076
924.092	12932
924.201	12916
924.309	12993
924.417	12970
924.525	12829
924.633	12852
924.741	13677
924.849	12677
924.956	12817
925.064	12681
925.172	12620
925.279	12662
925.387	12722
925.494	12601
925.602	12757
925.709	12700
925.816	12589
925.924	12616
926.031	12662
926.138	12585
926.245	12673
926.352	12448
926.459	12582
926.566	12749
926.673	12486
926.779	12384
926.886	12334
926.993	12220
927.099	12239
927.206	12243
927.312	12235
927.419	12251
927.525	12114
927.631	12178
927.737	12144
927.843	12019
927.95	11969
928.056	11954
928.162	12041
928.267	12171
928.373	12616
928.479	12136
928.585	11904
928.69	12030
928.796	12007
928.901	11908
929.007	11794
929.112	11878
929.218	11748
929.323	11817
929.428	11794
929.533	11832
929.638	11737
929.743	11741
929.848	11771
929.953	11657
930.058	11558
930.163	11436
930.267	11474
930.372	11619
930.477	11490
930.581	11657
930.685	11452
930.79	11318
930.894	11387
930.998	11433
931.103	11497
931.207	11124
931.311	11086
931.415	11071
931.519	10740
931.623	10733
