Data from test_V78500241_1567.txt Node
Date: Fri Mar 25 15:20:46 CST 2022
User: usil
Spectrometer: V785-0024
Trigger mode: 0
Integration Time (sec): 4.000000E-1
Scans to average: 1
Nonlinearity correction enabled: false
Boxcar width: 0
Storing dark spectrum: false
XAxis mode: Wavelengths
Number of Pixels in Spectrum: 1024
>>>>>Begin Spectral Data<<<<<
801.071	27823
801.214	27804
801.356	27515
801.499	27542
801.641	27401
801.783	27431
801.926	27583
802.068	27450
802.211	27473
802.353	27256
802.496	27116
802.638	27214
802.78	27085
802.923	27089
803.065	27036
803.208	26918
803.35	27039
803.492	27237
803.635	27310
803.777	27112
803.919	27173
804.061	27439
804.204	27336
804.346	27138
804.488	27062
804.63	27264
804.773	27176
804.915	27378
805.057	27408
805.199	27332
805.341	27226
805.483	27485
805.626	27325
805.768	27249
805.91	27424
806.052	27287
806.194	27443
806.336	27637
806.478	27450
806.62	27355
806.762	27450
806.904	27641
807.046	27941
807.188	27895
807.33	27846
807.472	27774
807.614	27629
807.756	27861
807.898	27728
808.04	27713
808.182	27644
808.324	27751
808.465	27698
808.607	27911
808.749	28139
808.891	28166
809.033	28063
809.174	28109
809.316	28059
809.458	27945
809.6	27934
809.741	28310
809.883	28295
810.025	28341
810.166	28246
810.308	28276
810.45	28329
810.591	28204
810.733	28029
810.875	28040
811.016	27972
811.158	27994
811.299	27998
811.441	28173
811.582	28150
811.724	28006
811.865	28044
812.007	28044
812.148	27892
812.29	28044
812.431	28169
812.573	28455
812.714	28466
812.855	28634
812.997	28771
813.138	28824
813.279	28702
813.421	28561
813.562	28683
813.703	28337
813.845	28363
813.986	27975
814.127	27922
814.268	27717
814.41	27835
814.551	27732
814.692	27838
814.833	27705
814.974	27705
815.115	27690
815.256	27660
815.397	27660
815.539	27641
815.68	27420
815.821	27431
815.962	27275
816.103	27435
816.244	27477
816.385	27260
816.526	27321
816.666	27028
816.807	26994
816.948	27074
817.089	27142
817.23	27074
817.371	26956
817.512	27001
817.653	26910
817.793	26975
817.934	26994
818.075	27028
818.216	26944
818.356	26929
818.497	26891
818.638	26785
818.778	26716
818.919	26807
819.06	26804
819.2	26750
819.341	26963
819.481	27093
819.622	27085
819.762	27317
819.903	27397
820.043	27283
820.184	27017
820.324	27131
820.465	27150
820.605	27192
820.746	27116
820.886	27058
821.026	27207
821.167	27051
821.307	27066
821.447	26952
821.588	26883
821.728	26823
821.868	26518
822.008	26606
822.149	26427
822.289	26473
822.429	26240
822.569	26214
822.709	26161
822.849	26100
822.99	26050
823.13	25921
823.27	25906
823.41	25784
823.55	25746
823.69	25898
823.83	25807
823.97	25719
824.11	25575
824.25	25643
824.389	25613
824.529	25643
824.669	25765
824.809	25670
824.949	25712
825.089	25696
825.228	25605
825.368	25407
825.508	25563
825.648	25578
825.787	25540
825.927	25529
826.067	25479
826.206	25544
826.346	25521
826.485	25620
826.625	25582
826.765	25495
826.904	25518
827.044	25285
827.183	25244
827.323	25274
827.462	25225
827.601	25194
827.741	25289
827.88	25270
828.02	25206
828.159	25027
828.298	25206
828.437	25217
828.577	25126
828.716	25244
828.855	25133
828.994	24798
829.134	24867
829.273	24954
829.412	25042
829.551	24932
829.69	24787
829.829	24897
829.968	24916
830.107	25046
830.246	24913
830.385	24837
830.524	24837
830.663	24757
830.802	24669
830.941	24505
831.08	24513
831.219	24532
831.357	24639
831.496	24779
831.635	24547
831.774	24414
831.913	24300
832.051	24296
832.19	24384
832.329	24342
832.467	24159
832.606	24049
832.744	24079
832.883	24038
833.022	24167
833.16	24216
833.299	24178
833.437	24114
833.576	24311
833.714	24262
833.852	24190
833.991	24285
834.129	24247
834.267	24304
834.406	24285
834.544	24338
834.682	24213
834.821	24155
834.959	24410
835.097	24224
835.235	24251
835.373	24159
835.511	24247
835.65	24011
835.788	24034
835.926	23977
836.064	23931
836.202	23840
836.34	24049
836.478	24251
836.615	23980
836.753	24133
836.891	24148
837.029	24045
837.167	24079
837.305	23912
837.443	23889
837.58	23882
837.718	24030
837.856	23950
837.993	23729
838.131	24034
838.269	23775
838.406	23824
838.544	23665
838.681	23589
838.819	23573
838.956	23421
839.094	23383
839.231	23440
839.369	23429
839.506	23760
839.643	23665
839.781	23444
839.918	23311
840.055	23299
840.193	23429
840.33	23178
840.467	23261
840.604	23341
840.742	23528
840.879	23193
841.016	23105
841.153	23197
841.29	23387
841.427	23239
841.564	23277
841.701	23193
841.838	23204
841.975	23098
842.112	23254
842.249	23155
842.385	22972
842.522	23208
842.659	23143
842.796	22923
842.933	23094
843.069	22991
843.206	23098
843.343	23178
843.479	23083
843.616	22961
843.752	22763
843.889	22759
844.025	22991
844.162	22763
844.298	22801
844.435	22812
844.571	22805
844.708	22759
844.844	22953
844.98	22953
845.117	23006
845.253	22854
845.389	22672
845.525	22649
845.661	22656
845.798	22565
845.934	22535
846.07	22523
846.206	22535
846.342	22569
846.478	22432
846.614	22405
846.75	22097
846.886	22188
847.022	22390
847.158	22325
847.294	22348
847.429	22276
847.565	22211
847.701	22398
847.837	21876
847.972	21964
848.108	22150
848.244	21964
848.379	21964
848.515	21869
848.65	21842
848.786	21816
848.921	21934
849.057	21937
849.192	21865
849.328	21804
849.463	21827
849.598	21854
849.734	21800
849.869	21720
850.004	21667
850.14	21717
850.275	21663
850.41	21595
850.545	21736
850.68	21739
850.815	21698
850.95	21583
851.085	21899
851.22	21705
851.355	21633
851.49	21633
851.625	21652
851.76	21614
851.895	21587
852.03	21549
852.165	21530
852.299	21637
852.434	21667
852.569	21530
852.703	21694
852.838	21641
852.973	21781
853.107	21766
853.242	21686
853.376	21420
853.511	21317
853.645	21568
853.78	21606
853.914	21534
854.048	21389
854.183	21378
854.317	21412
854.451	21564
854.585	21420
854.72	21507
854.854	21393
854.988	21359
855.122	21393
855.256	21405
855.39	21306
855.524	21686
855.658	21485
855.792	21481
855.926	21587
856.06	21405
856.194	21462
856.327	21302
856.461	21428
856.595	21405
856.729	21447
856.862	21648
856.996	21401
857.13	21405
857.263	21591
857.397	21580
857.53	21477
857.664	21424
857.797	21447
857.931	21523
858.064	21439
858.197	21481
858.331	21344
858.464	21454
858.597	21298
858.731	21424
858.864	21454
858.997	21420
859.13	21458
859.263	21511
859.396	21576
859.529	21389
859.662	21317
859.795	21401
859.928	21466
860.061	21606
860.194	21682
860.327	21485
860.46	21439
860.592	21603
860.725	21572
860.858	21561
860.99	21439
861.123	21317
861.256	21382
861.388	21443
861.521	22173
861.653	21256
861.786	21218
861.918	21351
862.05	21245
862.183	21344
862.315	21416
862.447	21408
862.58	21340
862.712	21089
862.844	21192
862.976	21195
863.108	21089
863.24	21523
863.372	21211
863.504	21211
863.636	21184
863.768	21207
863.9	21131
864.032	21085
864.164	21108
864.296	21161
864.428	21180
864.559	21359
864.691	21226
864.823	21230
864.954	21108
865.086	21074
865.217	21142
865.349	20986
865.48	20982
865.612	21077
865.743	21184
865.875	21100
866.006	20925
866.137	21100
866.269	21123
866.4	21020
866.531	20975
866.662	20857
866.793	20941
866.924	20990
867.055	21100
867.186	20998
867.317	20986
867.448	20838
867.579	20941
867.71	20838
867.841	20849
867.972	20986
868.103	20868
868.233	20883
868.364	21020
868.495	21100
868.625	21268
868.756	21363
868.886	21222
869.017	21222
869.147	21325
869.278	21374
869.408	21161
869.539	21214
869.669	21317
869.799	21359
869.929	21420
870.06	21416
870.19	21545
870.32	21492
870.45	21587
870.58	21481
870.71	21663
870.84	21610
870.97	21530
871.1	21675
871.23	21816
871.36	21884
871.489	21732
871.619	21823
871.749	21766
871.879	21869
872.008	21926
872.138	21804
872.267	21804
872.397	21614
872.526	21652
872.656	21709
872.785	21526
872.915	21762
873.044	22002
873.173	21869
873.303	21899
873.432	21972
873.561	21892
873.69	21781
873.819	21812
873.948	21930
874.077	21907
874.206	21800
874.335	21755
874.464	22070
874.593	21960
874.722	22101
874.851	22025
874.979	22067
875.108	22154
875.237	22051
875.365	21918
875.494	22051
875.623	22059
875.751	21991
875.88	22040
876.008	22147
876.136	22249
876.265	22542
876.393	22641
876.521	22527
876.65	22497
876.778	22432
876.906	22382
877.034	22394
877.162	22440
877.29	22219
877.418	22367
877.546	22405
877.674	22451
877.802	22325
877.93	22402
878.058	22337
878.185	22268
878.313	22413
878.441	22280
878.568	22303
878.696	22386
878.824	22417
878.951	22485
879.079	22527
879.206	22615
879.333	22542
879.461	22367
879.588	22508
879.715	22500
879.842	22630
879.97	22436
880.097	22135
880.224	22185
880.351	22196
880.478	22276
880.605	22158
880.732	22246
880.859	22375
880.986	22246
881.112	22265
881.239	22154
881.366	22040
881.493	21922
881.619	21850
881.746	21778
881.872	21732
881.999	21785
882.125	21804
882.252	21747
882.378	21770
882.505	21972
882.631	21747
882.757	21523
882.883	21583
883.01	21496
883.136	21466
883.262	21249
883.388	21332
883.514	21542
883.64	21561
883.766	21416
883.892	21230
884.018	21268
884.143	21530
884.269	21492
884.395	21093
884.52	21207
884.646	21157
884.772	21096
884.897	21123
885.023	21104
885.148	21199
885.274	21310
885.399	21233
885.524	21157
885.65	21199
885.775	21188
885.9	21043
886.025	21150
886.15	21199
886.275	21157
886.4	20937
886.525	21066
886.65	21055
886.775	21116
886.9	21302
887.025	21264
887.149	21127
887.274	20925
887.399	20914
887.523	20823
887.648	20872
887.773	20819
887.897	20971
888.021	20864
888.146	20956
888.27	21077
888.395	20845
888.519	20800
888.643	20956
888.767	20887
888.891	20929
889.015	20632
889.139	20667
889.263	20640
889.387	20781
889.511	20845
889.635	20891
889.759	20648
889.883	20739
890.006	20712
890.13	20788
890.254	20579
890.377	20629
890.501	20446
890.624	20347
890.748	20431
890.871	20393
890.995	20313
891.118	20199
891.241	20244
891.364	20187
891.488	20438
891.611	20351
891.734	20320
891.857	20240
891.98	20237
892.103	20240
892.226	20278
892.349	20278
892.471	20088
892.594	20180
892.717	20218
892.839	20210
892.962	20252
893.085	20259
893.207	20237
893.33	20111
893.452	20092
893.575	20130
893.697	20195
893.819	20263
893.941	20328
894.064	20320
894.186	20103
894.308	20142
894.43	20290
894.552	20248
894.674	20275
894.796	20134
894.918	20183
895.04	20024
895.161	20164
895.283	20225
895.405	20084
895.526	20130
895.648	20210
895.769	20103
895.891	20199
896.012	20259
896.134	20366
896.255	20240
896.376	20103
896.498	20218
896.619	20286
896.74	20176
896.861	20081
896.982	20541
897.103	20644
897.224	20492
897.345	20438
897.466	20210
897.587	20431
897.708	20606
897.828	20370
897.949	20275
898.07	20157
898.19	20309
898.311	20465
898.431	20343
898.552	20332
898.672	20385
898.792	20522
898.913	20389
899.033	20187
899.153	20111
899.273	20142
899.393	20199
899.513	20218
899.633	20225
899.753	20161
899.873	20020
899.993	20176
900.113	20084
900.232	20065
900.352	20054
900.472	19909
900.591	19875
900.711	19852
900.83	19849
900.95	19871
901.069	19936
901.189	19769
901.308	19499
901.427	19590
901.546	19578
901.665	19510
901.784	19487
901.904	19499
902.023	19259
902.141	19027
902.26	19057
902.379	19072
902.498	19038
902.617	18985
902.735	19080
902.854	18935
902.973	18863
903.091	18677
903.21	18551
903.328	18631
903.446	18559
903.565	18433
903.683	18582
903.801	18418
903.919	18467
904.038	18388
904.156	18216
904.274	18342
904.392	18330
904.51	18155
904.627	18266
904.745	18270
904.863	18315
904.981	17988
905.098	17988
905.216	17958
905.334	17996
905.451	17882
905.569	17859
905.686	17866
905.803	17840
905.921	17638
906.038	17809
906.155	17748
906.272	17528
906.389	17657
906.506	17608
906.623	17459
906.74	17433
906.857	17353
906.974	17414
907.091	17414
907.208	17600
907.324	17528
907.441	17292
907.557	17242
907.674	17143
907.79	17166
907.907	17090
908.023	17227
908.139	17079
908.256	17117
908.372	17045
908.488	17143
908.604	16930
908.72	16869
908.836	16858
908.952	16896
909.068	16892
909.184	16839
909.3	16843
909.415	16873
909.531	16866
909.647	16603
909.762	16626
909.878	16512
909.993	16717
910.108	16634
910.224	16634
910.339	16523
910.454	16447
910.57	16329
910.685	16333
910.8	16565
910.915	16493
911.03	16375
911.145	16314
911.259	16253
911.374	16173
911.489	16078
911.604	16032
911.718	15960
911.833	15835
911.947	15800
912.062	15736
912.176	15895
912.291	15892
912.405	15747
912.519	16166
912.633	16112
912.748	15972
912.862	15945
912.976	15762
913.09	15641
913.204	15705
913.318	15686
913.431	15781
913.545	15778
913.659	15861
913.772	15648
913.886	15564
914	15523
914.113	15701
914.226	15644
914.34	15606
914.453	15439
914.566	15534
914.68	15572
914.793	15405
914.906	15283
915.019	15138
915.132	14990
915.245	15108
915.358	15180
915.47	15074
915.583	15252
915.696	15161
915.809	15256
915.921	15272
916.034	15127
916.146	15104
916.259	15081
916.371	15104
916.483	15100
916.595	14921
916.708	14986
916.82	14994
916.932	14975
917.044	14910
917.156	14815
917.268	14849
917.38	14853
917.491	14815
917.603	14739
917.715	14929
917.826	14842
917.938	14693
918.049	14678
918.161	14667
918.272	14902
918.384	14933
918.495	14667
918.606	14663
918.717	14442
918.828	14587
918.939	14651
919.05	14450
919.161	14564
919.272	14290
919.383	14404
919.494	14575
919.604	14625
919.715	14511
919.826	14427
919.936	14473
920.047	14495
920.157	14476
920.267	14708
920.378	14571
920.488	14366
920.598	14697
920.708	14777
920.818	14712
920.928	14636
921.038	14769
921.148	14644
921.258	14507
921.368	14328
921.477	14233
921.587	14202
921.697	14084
921.806	14214
921.916	13959
922.025	13982
922.134	13928
922.244	13856
922.353	13989
922.462	13655
922.571	13746
922.68	13426
922.789	13506
922.898	13575
923.007	13403
923.116	13537
923.224	13506
923.333	13510
923.442	13335
923.55	13384
923.659	13350
923.767	13449
923.876	13289
923.984	13289
924.092	13308
924.201	13304
924.309	13232
924.417	13343
924.525	13168
924.633	13183
924.741	13944
924.849	12954
924.956	13221
925.064	13004
925.172	12882
925.279	12958
925.387	12958
925.494	12943
925.602	13004
925.709	13008
925.816	12897
925.924	12863
926.031	13004
926.138	12867
926.245	12844
926.352	12684
926.459	12970
926.566	12993
926.673	12867
926.779	12715
926.886	12787
926.993	12555
927.099	12509
927.206	12517
927.312	12483
927.419	12563
927.525	12532
927.631	12585
927.737	12418
927.843	12376
927.95	12190
928.056	12319
928.162	12380
928.267	12338
928.373	12996
928.479	12327
928.585	12182
928.69	12258
928.796	12369
928.901	12167
929.007	12121
929.112	12232
929.218	12072
929.323	12133
929.428	12068
929.533	12232
929.638	12011
929.743	12003
929.848	12106
929.953	12030
930.058	11859
930.163	11748
930.267	11790
930.372	11908
930.477	11699
930.581	11996
930.685	11790
930.79	11585
930.894	11684
930.998	11596
931.103	11726
931.207	11326
931.311	11368
931.415	11242
931.519	11098
931.623	11029
