Data from test_V78500241_1520.txt Node
Date: Fri Mar 25 15:20:26 CST 2022
User: usil
Spectrometer: V785-0024
Trigger mode: 0
Integration Time (sec): 4.000000E-1
Scans to average: 1
Nonlinearity correction enabled: false
Boxcar width: 0
Storing dark spectrum: false
XAxis mode: Wavelengths
Number of Pixels in Spectrum: 1024
>>>>>Begin Spectral Data<<<<<
801.071	28124
801.214	27998
801.356	27739
801.499	27762
801.641	27629
801.783	27622
801.926	27732
802.068	27717
802.211	27599
802.353	27492
802.496	27412
802.638	27382
802.78	27222
802.923	27317
803.065	27188
803.208	27287
803.35	27332
803.492	27393
803.635	27633
803.777	27393
803.919	27439
804.061	27911
804.204	27507
804.346	27504
804.488	27450
804.63	27545
804.773	27370
804.915	27637
805.057	27625
805.199	27523
805.341	27633
805.483	27648
805.626	27644
805.768	27492
805.91	27500
806.052	27587
806.194	27587
806.336	27903
806.478	27724
806.62	27709
806.762	27747
806.904	27797
807.046	28101
807.188	28051
807.33	27972
807.472	28086
807.614	27987
807.756	28105
807.898	27926
808.04	27956
808.182	27934
808.324	28059
808.465	28116
808.607	28230
808.749	28394
808.891	28325
809.033	28348
809.174	28440
809.316	28284
809.458	28401
809.6	28352
809.741	28398
809.883	28538
810.025	28668
810.166	28588
810.308	28580
810.45	28535
810.591	28584
810.733	28382
810.875	28352
811.016	28246
811.158	28211
811.299	28440
811.441	28421
811.582	28363
811.724	28291
811.865	28238
812.007	28200
812.148	28386
812.29	28299
812.431	28550
812.573	28615
812.714	28759
812.855	28774
812.997	28915
813.138	29075
813.279	28953
813.421	28835
813.562	28850
813.703	28729
813.845	28588
813.986	28318
814.127	28124
814.268	28188
814.41	27964
814.551	27968
814.692	28116
814.833	28044
814.974	27994
815.115	28120
815.256	27876
815.397	27922
815.539	27835
815.68	27751
815.821	27755
815.962	27766
816.103	27827
816.244	27625
816.385	27667
816.526	27660
816.666	27485
816.807	27325
816.948	27374
817.089	27443
817.23	27313
817.371	27401
817.512	27252
817.653	27351
817.793	27287
817.934	27321
818.075	27291
818.216	27424
818.356	27195
818.497	27188
818.638	26967
818.778	27096
818.919	26906
819.06	27077
819.2	27116
819.341	27252
819.481	27256
819.622	27393
819.762	27831
819.903	27515
820.043	27420
820.184	27462
820.324	27393
820.465	27553
820.605	27386
820.746	27424
820.886	27249
821.026	27302
821.167	27298
821.307	27435
821.447	27443
821.588	27214
821.728	27138
821.868	26883
822.008	26902
822.149	26777
822.289	26708
822.429	26552
822.569	26385
822.709	26583
822.849	26237
822.99	26362
823.13	26168
823.27	26263
823.41	26237
823.55	26027
823.69	26115
823.83	26107
823.97	26039
824.11	25925
824.25	25947
824.389	26039
824.529	26020
824.669	25890
824.809	25978
824.949	25974
825.089	25963
825.228	25993
825.368	25833
825.508	25750
825.648	25757
825.787	25765
825.927	25731
826.067	25708
826.206	25890
826.346	25693
826.485	25750
826.625	25677
826.765	25936
826.904	25826
827.044	25632
827.183	25521
827.323	25460
827.462	25586
827.601	25597
827.741	25472
827.88	25396
828.02	25316
828.159	25426
828.298	25540
828.437	25655
828.577	25453
828.716	25594
828.855	25354
828.994	25236
829.134	25175
829.273	25236
829.412	25255
829.551	25133
829.69	25251
829.829	25175
829.968	25320
830.107	25346
830.246	25301
830.385	25038
830.524	25088
830.663	25027
830.802	24814
830.941	24798
831.08	24806
831.219	24932
831.357	24924
831.496	25088
831.635	24829
831.774	24734
831.913	24726
832.051	24681
832.19	24639
832.329	24570
832.467	24467
832.606	24369
832.744	24395
832.883	24513
833.022	24513
833.16	24563
833.299	24475
833.437	24422
833.576	24540
833.714	24612
833.852	24616
833.991	24684
834.129	24563
834.267	24528
834.406	24563
834.544	24555
834.682	24441
834.821	24433
834.959	24677
835.097	24437
835.235	24700
835.373	24521
835.511	24403
835.65	24460
835.788	24429
835.926	24357
836.064	24277
836.202	24209
836.34	24433
836.478	24441
836.615	24327
836.753	24410
836.891	24399
837.029	24334
837.167	24342
837.305	24369
837.443	24167
837.58	24327
837.718	24182
837.856	24194
837.993	24201
838.131	24167
838.269	24011
838.406	24163
838.544	24038
838.681	23786
838.819	23783
838.956	23756
839.094	23714
839.231	23714
839.369	23779
839.506	24186
839.643	23923
839.781	23642
839.918	23653
840.055	23794
840.193	23703
840.33	23501
840.467	23581
840.604	23570
840.742	23840
840.879	23452
841.016	23577
841.153	23398
841.29	23672
841.427	23638
841.564	23608
841.701	23596
841.838	23520
841.975	23520
842.112	23421
842.249	23227
842.385	23212
842.522	23452
842.659	23387
842.796	23364
842.933	23322
843.069	23402
843.206	23269
843.343	23334
843.479	23341
843.616	23299
843.752	23136
843.889	23147
844.025	23296
844.162	22995
844.298	23185
844.435	23223
844.571	23056
844.708	23071
844.844	23269
844.98	23246
845.117	23132
845.253	23037
845.389	23022
845.525	23075
845.661	23003
845.798	22816
845.934	22930
846.07	22873
846.206	22824
846.342	22790
846.478	22892
846.614	22736
846.75	22459
846.886	22519
847.022	22622
847.158	22538
847.294	22531
847.429	22462
847.565	22531
847.701	22736
847.837	22306
847.972	22226
848.108	22428
848.244	22348
848.379	22074
848.515	22078
848.65	22055
848.786	22090
848.921	22242
849.057	22223
849.192	22287
849.328	22246
849.463	22086
849.598	22021
849.734	22067
849.869	22002
850.004	21869
850.14	21861
850.275	21911
850.41	21728
850.545	21770
850.68	21915
850.815	21987
850.95	21865
851.085	22181
851.22	21907
851.355	21945
851.49	21857
851.625	21880
851.76	21903
851.895	21781
852.03	21781
852.165	22010
852.299	21895
852.434	21903
852.569	21865
852.703	21895
852.838	21937
852.973	21998
853.107	21975
853.242	21899
853.376	21724
853.511	21701
853.645	21713
853.78	21804
853.914	21774
854.048	21641
854.183	21865
854.317	21922
854.451	21987
854.585	21599
854.72	21717
854.854	21823
854.988	21656
855.122	21656
855.256	21618
855.39	21694
855.524	21911
855.658	21831
855.792	21705
855.926	21759
856.06	21781
856.194	21793
856.327	21739
856.461	21603
856.595	21698
856.729	21682
856.862	21994
856.996	21770
857.13	21831
857.263	21743
857.397	21660
857.53	21633
857.664	21785
857.797	21774
857.931	21861
858.064	21667
858.197	21819
858.331	21728
858.464	21667
858.597	21507
858.731	21667
858.864	21713
858.997	21660
859.13	21781
859.263	21701
859.396	21804
859.529	21701
859.662	21713
859.795	21622
859.928	21880
860.061	21884
860.194	21854
860.327	21922
860.46	21823
860.592	21823
860.725	21907
860.858	21831
860.99	21812
861.123	21705
861.256	21743
861.388	21846
861.521	22466
861.653	21778
861.786	21561
861.918	21580
862.05	21648
862.183	21644
862.315	21583
862.447	21800
862.58	21717
862.712	21500
862.844	21397
862.976	21583
863.108	21568
863.24	21808
863.372	21355
863.504	21450
863.636	21504
863.768	21595
863.9	21405
864.032	21367
864.164	21477
864.296	21443
864.428	21545
864.559	21580
864.691	21641
864.823	21660
864.954	21363
865.086	21412
865.217	21408
865.349	21306
865.48	21485
865.612	21306
865.743	21454
865.875	21310
866.006	21332
866.137	21393
866.269	21279
866.4	21344
866.531	21317
866.662	21203
866.793	21329
866.924	21313
867.055	21321
867.186	21344
867.317	21245
867.448	21165
867.579	21291
867.71	21230
867.841	21272
867.972	21332
868.103	21230
868.233	21374
868.364	21370
868.495	21450
868.625	21496
868.756	21557
868.886	21363
869.017	21511
869.147	21618
869.278	21576
869.408	21523
869.539	21580
869.669	21641
869.799	21507
869.929	21679
870.06	21644
870.19	21804
870.32	21785
870.45	21873
870.58	21937
870.71	21975
870.84	21949
870.97	21941
871.1	21869
871.23	22082
871.36	22013
871.489	21991
871.619	22032
871.749	22131
871.879	22090
872.008	22204
872.138	22025
872.267	22021
872.397	22010
872.526	22010
872.656	22010
872.785	22082
872.915	22093
873.044	22185
873.173	22215
873.303	22166
873.432	22067
873.561	22261
873.69	22150
873.819	22143
873.948	22257
874.077	22101
874.206	22154
874.335	22162
874.464	22166
874.593	22371
874.722	22402
874.851	22382
874.979	22287
875.108	22284
875.237	22341
875.365	22166
875.494	22386
875.623	22394
875.751	22215
875.88	22440
876.008	22371
876.136	22512
876.265	22831
876.393	22759
876.521	22721
876.65	22862
876.778	22801
876.906	22710
877.034	22721
877.162	22824
877.29	22653
877.418	22691
877.546	22641
877.674	22664
877.802	22698
877.93	22733
878.058	22573
878.185	22603
878.313	22527
878.441	22660
878.568	22497
878.696	22653
878.824	22694
878.951	22805
879.079	22919
879.206	22896
879.333	22938
879.461	22691
879.588	22759
879.715	22797
879.842	22976
879.97	22839
880.097	22481
880.224	22546
880.351	22565
880.478	22641
880.605	22379
880.732	22588
880.859	22706
880.986	22455
881.112	22634
881.239	22447
881.366	22253
881.493	22268
881.619	22109
881.746	22158
881.872	22067
881.999	21941
882.125	22044
882.252	21983
882.378	22101
882.505	22048
882.631	21892
882.757	21926
882.883	21838
883.01	21835
883.136	21747
883.262	21599
883.388	21599
883.514	21774
883.64	21861
883.766	21603
883.892	21496
884.018	21511
884.143	21698
884.269	21739
884.395	21477
884.52	21367
884.646	21500
884.772	21298
884.897	21291
885.023	21454
885.148	21466
885.274	21496
885.399	21477
885.524	21348
885.65	21439
885.775	21367
885.9	21405
886.025	21511
886.15	21431
886.275	21382
886.4	21393
886.525	21424
886.65	21332
886.775	21462
886.9	21405
887.025	21641
887.149	21401
887.274	21085
887.399	21233
887.523	21085
887.648	21207
887.773	21070
887.897	21237
888.021	21138
888.146	21146
888.27	21233
888.395	21237
888.519	21119
888.643	21252
888.767	21260
888.891	21096
889.015	20834
889.139	21055
889.263	20990
889.387	21062
889.511	21074
889.635	21066
889.759	20906
889.883	20990
890.006	20857
890.13	21062
890.254	20941
890.377	20883
890.501	20826
890.624	20800
890.748	20823
890.871	20682
890.995	20522
891.118	20537
891.241	20514
891.364	20530
891.488	20629
891.611	20533
891.734	20484
891.857	20632
891.98	20545
892.103	20503
892.226	20438
892.349	20571
892.471	20290
892.594	20305
892.717	20461
892.839	20461
892.962	20507
893.085	20537
893.207	20446
893.33	20290
893.452	20259
893.575	20457
893.697	20389
893.819	20461
893.941	20587
894.064	20530
894.186	20370
894.308	20320
894.43	20381
894.552	20450
894.674	20431
894.796	20324
894.918	20362
895.04	20385
895.161	20396
895.283	20362
895.405	20385
895.526	20320
895.648	20434
895.769	20518
895.891	20461
896.012	20651
896.134	20450
896.255	20400
896.376	20355
896.498	20469
896.619	20552
896.74	20412
896.861	20385
896.982	20689
897.103	20853
897.224	20746
897.345	20632
897.466	20507
897.587	20663
897.708	20735
897.828	20617
897.949	20533
898.07	20404
898.19	20564
898.311	20705
898.431	20511
898.552	20705
898.672	20689
898.792	20693
898.913	20568
899.033	20454
899.153	20511
899.273	20259
899.393	20347
899.513	20476
899.633	20404
899.753	20389
899.873	20248
899.993	20499
900.113	20324
900.232	20332
900.352	20256
900.472	20278
900.591	20240
900.711	20191
900.83	20119
900.95	20206
901.069	20172
901.189	20134
901.308	19776
901.427	19833
901.546	19723
901.665	19791
901.784	19639
901.904	19533
902.023	19525
902.141	19407
902.26	19297
902.379	19419
902.498	19343
902.617	19255
902.735	19339
902.854	19194
902.973	19118
903.091	18909
903.21	18890
903.328	18894
903.446	18779
903.565	18616
903.683	18692
903.801	18616
903.919	18593
904.038	18616
904.156	18635
904.274	18448
904.392	18490
904.51	18528
904.627	18490
904.745	18506
904.863	18479
904.981	18338
905.098	18159
905.216	18190
905.334	18247
905.451	18159
905.569	18117
905.686	18167
905.803	18174
905.921	17874
906.038	18030
906.155	17965
906.272	17870
906.389	17863
906.506	17699
906.623	17714
906.74	17676
906.857	17562
906.974	17539
907.091	17748
907.208	17832
907.324	17737
907.441	17665
907.557	17345
907.674	17372
907.79	17334
907.907	17402
908.023	17512
908.139	17402
908.256	17372
908.372	17273
908.488	17315
908.604	17060
908.72	17064
908.836	17060
908.952	17037
909.068	17022
909.184	17220
909.3	17060
909.415	17193
909.531	17185
909.647	16801
909.762	16782
909.878	16755
909.993	16744
910.108	16752
910.224	16763
910.339	16797
910.454	16698
910.57	16679
910.685	16573
910.8	16759
910.915	16713
911.03	16611
911.145	16466
911.259	16462
911.374	16333
911.489	16348
911.604	16318
911.718	16128
911.833	16128
911.947	16006
912.062	16021
912.176	16071
912.291	16101
912.405	16032
912.519	16280
912.633	16204
912.748	16181
912.862	16074
912.976	15903
913.09	15823
913.204	15937
913.318	15922
913.431	16074
913.545	16013
913.659	16086
913.772	15892
913.886	15739
914	15789
914.113	15850
914.226	15865
914.34	15781
914.453	15599
914.566	15728
914.68	15679
914.793	15591
914.906	15370
915.019	15393
915.132	15260
915.245	15374
915.358	15367
915.47	15363
915.583	15218
915.696	15424
915.809	15496
915.921	15439
916.034	15306
916.146	15291
916.259	15237
916.371	15348
916.483	15291
916.595	15165
916.708	15097
916.82	15176
916.932	15119
917.044	15127
917.156	15108
917.268	15051
917.38	15089
917.491	14944
917.603	14979
917.715	15028
917.826	14979
917.938	15009
918.049	14902
918.161	14952
918.272	14990
918.384	15036
918.495	14906
918.606	14781
918.717	14670
918.828	14743
918.939	14811
919.05	14552
919.161	14785
919.272	14552
919.383	14674
919.494	14739
919.604	14918
919.715	14705
919.826	14667
919.936	14606
920.047	14762
920.157	14644
920.267	14990
920.378	14705
920.488	14773
920.598	14883
920.708	14979
920.818	14788
920.928	14788
921.038	14971
921.148	14845
921.258	14716
921.368	14526
921.477	14511
921.587	14492
921.697	14347
921.806	14461
921.916	14248
922.025	14081
922.134	14027
922.244	14088
922.353	14077
922.462	13982
922.571	13894
922.68	13750
922.789	13674
922.898	13693
923.007	13685
923.116	13704
923.224	13639
923.333	13563
923.442	13628
923.55	13552
923.659	13689
923.767	13514
923.876	13529
923.984	13552
924.092	13384
924.201	13445
924.309	13335
924.417	13487
924.525	13377
924.633	13434
924.741	14164
924.849	13221
924.956	13327
925.064	13141
925.172	13023
925.279	13137
925.387	13126
925.494	13198
925.602	13255
925.709	13126
925.816	12932
925.924	13088
926.031	13171
926.138	13122
926.245	13187
926.352	13008
926.459	13187
926.566	13202
926.673	12962
926.779	12890
926.886	12825
926.993	12726
927.099	12768
927.206	12715
927.312	12601
927.419	12810
927.525	12734
927.631	12703
927.737	12639
927.843	12559
927.95	12445
928.056	12498
928.162	12547
928.267	12585
928.373	13206
928.479	12665
928.585	12357
928.69	12532
928.796	12604
928.901	12460
929.007	12315
929.112	12334
929.218	12338
929.323	12277
929.428	12235
929.533	12338
929.638	12167
929.743	12258
929.848	12323
929.953	12155
930.058	12136
930.163	11973
930.267	11969
930.372	12060
930.477	11836
930.581	12114
930.685	11904
930.79	11847
930.894	11916
930.998	11828
931.103	11916
931.207	11535
931.311	11528
931.415	11395
931.519	11189
931.623	11201
