Data from test_V78500241_1455.txt Node
Date: Fri Mar 25 15:19:59 CST 2022
User: usil
Spectrometer: V785-0024
Trigger mode: 0
Integration Time (sec): 4.000000E-1
Scans to average: 1
Nonlinearity correction enabled: false
Boxcar width: 0
Storing dark spectrum: false
XAxis mode: Wavelengths
Number of Pixels in Spectrum: 1024
>>>>>Begin Spectral Data<<<<<
801.071	27865
801.214	27789
801.356	27492
801.499	27507
801.641	27298
801.783	27332
801.926	27249
802.068	27405
802.211	27184
802.353	26982
802.496	27100
802.638	26986
802.78	27005
802.923	26777
803.065	26823
803.208	26906
803.35	26937
803.492	27142
803.635	27150
803.777	26830
803.919	27123
804.061	27405
804.204	27112
804.346	27154
804.488	27005
804.63	27230
804.773	27066
804.915	27222
805.057	27180
805.199	27275
805.341	27329
805.483	27378
805.626	27302
805.768	27188
805.91	27397
806.052	27199
806.194	27199
806.336	27492
806.478	27230
806.62	27317
806.762	27500
806.904	27583
807.046	27797
807.188	27652
807.33	27667
807.472	27808
807.614	27675
807.756	27812
807.898	27553
808.04	27667
808.182	27561
808.324	27637
808.465	27629
808.607	27739
808.749	27869
808.891	27937
809.033	28021
809.174	28036
809.316	28002
809.458	27937
809.6	27804
809.741	27979
809.883	28032
810.025	28238
810.166	28310
810.308	28181
810.45	28219
810.591	28074
810.733	28124
810.875	27945
811.016	27698
811.158	27762
811.299	27994
811.441	28154
811.582	28169
811.724	28002
811.865	28006
812.007	28070
812.148	27941
812.29	27865
812.431	28204
812.573	28215
812.714	28348
812.855	28565
812.997	28493
813.138	28713
813.279	28512
813.421	28382
813.562	28382
813.703	28207
813.845	28272
813.986	27994
814.127	27808
814.268	27557
814.41	27755
814.551	27599
814.692	27701
814.833	27545
814.974	27682
815.115	27591
815.256	27572
815.397	27458
815.539	27504
815.68	27382
815.821	27367
815.962	27397
816.103	27207
816.244	27447
816.385	27241
816.526	27096
816.666	27028
816.807	26918
816.948	26971
817.089	26864
817.23	26921
817.371	26872
817.512	26910
817.653	26971
817.793	26914
817.934	26986
818.075	26971
818.216	26887
818.356	26872
818.497	26754
818.638	26602
818.778	26724
818.919	26560
819.06	26674
819.2	26853
819.341	26952
819.481	26849
819.622	26971
819.762	27184
819.903	27195
820.043	27241
820.184	26990
820.324	26929
820.465	26994
820.605	26998
820.746	26895
820.886	26914
821.026	26940
821.167	26967
821.307	26929
821.447	26925
821.588	26731
821.728	26602
821.868	26431
822.008	26419
822.149	26271
822.289	26465
822.429	26046
822.569	26054
822.709	26069
822.849	25864
822.99	25875
823.13	25947
823.27	25913
823.41	25776
823.55	25533
823.69	25818
823.83	25632
823.97	25734
824.11	25529
824.25	25438
824.389	25472
824.529	25609
824.669	25578
824.809	25578
824.949	25704
825.089	25616
825.228	25605
825.368	25350
825.508	25487
825.648	25491
825.787	25476
825.927	25483
826.067	25327
826.206	25407
826.346	25346
826.485	25331
826.625	25293
826.765	25639
826.904	25441
827.044	25118
827.183	25099
827.323	25145
827.462	25129
827.601	25091
827.741	25251
827.88	25114
828.02	24852
828.159	25042
828.298	24954
828.437	25107
828.577	24970
828.716	25156
828.855	24970
828.994	24719
829.134	24715
829.273	24837
829.412	24783
829.551	24829
829.69	24722
829.829	24719
829.968	24844
830.107	24825
830.246	24768
830.385	24772
830.524	24703
830.663	24433
830.802	24566
830.941	24350
831.08	24296
831.219	24574
831.357	24486
831.496	24669
831.635	24380
831.774	24270
831.913	24285
832.051	24239
832.19	24258
832.329	24251
832.467	24091
832.606	24011
832.744	23927
832.883	24102
833.022	24011
833.16	24060
833.299	24068
833.437	24045
833.576	24121
833.714	24133
833.852	24152
833.991	24155
834.129	24258
834.267	24270
834.406	24152
834.544	24174
834.682	24155
834.821	24098
834.959	24277
835.097	24015
835.235	24205
835.373	24136
835.511	24060
835.65	23984
835.788	23988
835.926	23942
836.064	23699
836.202	23745
836.34	23984
836.478	24030
836.615	24057
836.753	23878
836.891	24030
837.029	23965
837.167	23828
837.305	23790
837.443	23775
837.58	23783
837.718	23836
837.856	23809
837.993	23718
838.131	23722
838.269	23627
838.406	23805
838.544	23691
838.681	23330
838.819	23360
838.956	23364
839.094	23181
839.231	23334
839.369	23566
839.506	23627
839.643	23497
839.781	23299
839.918	23231
840.055	23098
840.193	23197
840.33	23220
840.467	23155
840.604	23292
840.742	23364
840.879	23075
841.016	23029
841.153	23006
841.29	23265
841.427	23258
841.564	23208
841.701	23166
841.838	23083
841.975	23124
842.112	23029
842.249	22923
842.385	22999
842.522	23109
842.659	23056
842.796	22869
842.933	22946
843.069	22942
843.206	22797
843.343	22987
843.479	22881
843.616	22980
843.752	22717
843.889	22767
844.025	22820
844.162	22710
844.298	22889
844.435	22702
844.571	22622
844.708	22774
844.844	22812
844.98	22850
845.117	22835
845.253	22634
845.389	22569
845.525	22569
845.661	22500
845.798	22428
845.934	22432
846.07	22303
846.206	22443
846.342	22611
846.478	22341
846.614	22318
846.75	22078
846.886	22017
847.022	22272
847.158	22230
847.294	22116
847.429	22291
847.565	22135
847.701	22371
847.837	21911
847.972	21911
848.108	21800
848.244	21926
848.379	21895
848.515	21903
848.65	21759
848.786	21762
848.921	21759
849.057	21865
849.192	21895
849.328	21762
849.463	21785
849.598	21629
849.734	21644
849.869	21458
850.004	21473
850.14	21492
850.275	21557
850.41	21507
850.545	21363
850.68	21389
850.815	21583
850.95	21557
851.085	21732
851.22	21648
851.355	21564
851.49	21545
851.625	21526
851.76	21454
851.895	21545
852.03	21450
852.165	21473
852.299	21519
852.434	21583
852.569	21397
852.703	21576
852.838	21576
852.973	21625
853.107	21713
853.242	21557
853.376	21435
853.511	21112
853.645	21249
853.78	21351
853.914	21287
854.048	21298
854.183	21412
854.317	21367
854.451	21481
854.585	21340
854.72	21351
854.854	21348
854.988	21310
855.122	21283
855.256	21157
855.39	21184
855.524	21382
855.658	21344
855.792	21416
855.926	21401
856.06	21408
856.194	21408
856.327	21355
856.461	21279
856.595	21317
856.729	21294
856.862	21485
856.996	21405
857.13	21363
857.263	21363
857.397	21477
857.53	21393
857.664	21348
857.797	21405
857.931	21447
858.064	21340
858.197	21340
858.331	21291
858.464	21313
858.597	21237
858.731	21321
858.864	21279
858.997	21218
859.13	21294
859.263	21431
859.396	21416
859.529	21264
859.662	21420
859.795	21389
859.928	21218
860.061	21481
860.194	21515
860.327	21485
860.46	21332
860.592	21454
860.725	21405
860.858	21405
860.99	21344
861.123	21313
861.256	21165
861.388	21245
861.521	21857
861.653	21214
861.786	21142
861.918	21252
862.05	21173
862.183	21131
862.315	21268
862.447	21367
862.58	21131
862.712	20971
862.844	21089
862.976	21161
863.108	20963
863.24	21397
863.372	20994
863.504	21093
863.636	21123
863.768	21100
863.9	21013
864.032	20982
864.164	21020
864.296	21077
864.428	21070
864.559	21036
864.691	21161
864.823	21062
864.954	20918
865.086	20910
865.217	21001
865.349	20773
865.48	20762
865.612	20963
865.743	21039
865.875	20982
866.006	20887
866.137	20941
866.269	20872
866.4	20990
866.531	20872
866.662	20834
866.793	20800
866.924	20845
867.055	20971
867.186	20838
867.317	20891
867.448	20785
867.579	20800
867.71	20663
867.841	20788
867.972	20826
868.103	20815
868.233	20819
868.364	20872
868.495	20906
868.625	21150
868.756	21268
868.886	21051
869.017	21150
869.147	21112
869.278	21150
869.408	21066
869.539	21123
869.669	21214
869.799	21192
869.929	21241
870.06	21230
870.19	21344
870.32	21329
870.45	21298
870.58	21526
870.71	21583
870.84	21606
870.97	21583
871.1	21477
871.23	21622
871.36	21701
871.489	21576
871.619	21671
871.749	21736
871.879	21762
872.008	21850
872.138	21580
872.267	21720
872.397	21534
872.526	21454
872.656	21519
872.785	21496
872.915	21644
873.044	21816
873.173	21728
873.303	21709
873.432	21743
873.561	21850
873.69	21724
873.819	21724
873.948	21842
874.077	21709
874.206	21625
874.335	21755
874.464	21804
874.593	21911
874.722	21915
874.851	21937
874.979	21937
875.108	21983
875.237	21846
875.365	21770
875.494	21956
875.623	22006
875.751	21945
875.88	21846
876.008	21975
876.136	21918
876.265	22287
876.393	22459
876.521	22360
876.65	22462
876.778	22417
876.906	22333
877.034	22166
877.162	22257
877.29	22116
877.418	22344
877.546	22284
877.674	22268
877.802	22204
877.93	22409
878.058	22215
878.185	22173
878.313	22306
878.441	22219
878.568	22097
878.696	22207
878.824	22287
878.951	22219
879.079	22386
879.206	22622
879.333	22386
879.461	22287
879.588	22451
879.715	22413
879.842	22519
879.97	22440
880.097	22101
880.224	22036
880.351	22128
880.478	22097
880.605	22074
880.732	22017
880.859	22306
880.986	22059
881.112	21979
881.239	21953
881.366	21953
881.493	21739
881.619	21724
881.746	21618
881.872	21580
881.999	21656
882.125	21705
882.252	21698
882.378	21603
882.505	21762
882.631	21538
882.757	21355
882.883	21519
883.01	21389
883.136	21291
883.262	21344
883.388	21142
883.514	21420
883.64	21363
883.766	21336
883.892	21089
884.018	21211
884.143	21230
884.269	21348
884.395	21138
884.52	20910
884.646	21154
884.772	21077
884.897	20823
885.023	21100
885.148	21123
885.274	21195
885.399	21176
885.524	20925
885.65	20941
885.775	21028
885.9	21051
886.025	21013
886.15	21135
886.275	21051
886.4	20887
886.525	20971
886.65	20864
886.775	20849
886.9	21058
887.025	21241
887.149	21043
887.274	20902
887.399	20621
887.523	20838
887.648	20754
887.773	20659
887.897	20830
888.021	20792
888.146	20708
888.27	20895
888.395	20849
888.519	20697
888.643	20910
888.767	20750
888.891	20686
889.015	20632
889.139	20632
889.263	20518
889.387	20674
889.511	20804
889.635	20682
889.759	20514
889.883	20545
890.006	20545
890.13	20670
890.254	20549
890.377	20518
890.501	20320
890.624	20301
890.748	20301
890.871	20263
890.995	20180
891.118	20168
891.241	20176
891.364	20153
891.488	20263
891.611	20206
891.734	20172
891.857	20168
891.98	20073
892.103	20244
892.226	20248
892.349	20069
892.471	20039
892.594	20069
892.717	20058
892.839	20050
892.962	20035
893.085	20096
893.207	20027
893.33	19856
893.452	20008
893.575	20183
893.697	20138
893.819	20248
893.941	20248
894.064	20149
894.186	19997
894.308	20001
894.43	20039
894.552	20183
894.674	20130
894.796	20008
894.918	20084
895.04	20012
895.161	20024
895.283	20088
895.405	19913
895.526	20043
895.648	20016
895.769	20084
895.891	20012
896.012	20096
896.134	20130
896.255	19959
896.376	19993
896.498	20027
896.619	20183
896.74	20035
896.861	20058
896.982	20339
897.103	20476
897.224	20355
897.345	20389
897.466	20229
897.587	20328
897.708	20389
897.828	20358
897.949	20202
898.07	20119
898.19	20180
898.311	20320
898.431	20218
898.552	20206
898.672	20377
898.792	20358
898.913	20358
899.033	20180
899.153	20077
899.273	19898
899.393	20084
899.513	20020
899.633	19947
899.753	20145
899.873	19928
899.993	20012
900.113	20050
900.232	20107
900.352	19974
900.472	19864
900.591	19864
900.711	19841
900.83	19696
900.95	19750
901.069	19928
901.189	19700
901.308	19472
901.427	19369
901.546	19354
901.665	19324
901.784	19384
901.904	19251
902.023	19221
902.141	19042
902.26	18935
902.379	18981
902.498	18905
902.617	18753
902.735	18958
902.854	18764
902.973	18810
903.091	18681
903.21	18608
903.328	18681
903.446	18517
903.565	18384
903.683	18372
903.801	18311
903.919	18285
904.038	18319
904.156	18190
904.274	18209
904.392	18201
904.51	18083
904.627	18091
904.745	18155
904.863	18220
904.981	17950
905.098	17863
905.216	17802
905.334	17973
905.451	17920
905.569	17748
905.686	17828
905.803	17783
905.921	17646
906.038	17608
906.155	17611
906.272	17490
906.389	17459
906.506	17448
906.623	17387
906.74	17368
906.857	17254
906.974	17307
907.091	17402
907.208	17528
907.324	17368
907.441	17208
907.557	17102
907.674	17098
907.79	16995
907.907	16984
908.023	17010
908.139	17060
908.256	17102
908.372	16968
908.488	17010
908.604	16908
908.72	16721
908.836	16698
908.952	16717
909.068	16816
909.184	16862
909.3	16763
909.415	16850
909.531	16634
909.647	16577
909.762	16615
909.878	16447
909.993	16565
910.108	16462
910.224	16512
910.339	16394
910.454	16310
910.57	16265
910.685	16143
910.8	16615
910.915	16379
911.03	16409
911.145	16074
911.259	16101
911.374	15991
911.489	16051
911.604	15956
911.718	15766
911.833	15835
911.947	15724
912.062	15614
912.176	15854
912.291	15865
912.405	15876
912.519	15926
912.633	16002
912.748	15850
912.862	15827
912.976	15663
913.09	15599
913.204	15606
913.318	15641
913.431	15686
913.545	15656
913.659	15698
913.772	15618
913.886	15549
914	15511
914.113	15576
914.226	15523
914.34	15515
914.453	15424
914.566	15439
914.68	15477
914.793	15214
914.906	15100
915.019	15104
915.132	14952
915.245	15058
915.358	15036
915.47	14971
915.583	15100
915.696	15123
915.809	15184
915.921	15089
916.034	14929
916.146	14944
916.259	15017
916.371	14990
916.483	14921
916.595	14914
916.708	15005
916.82	14967
916.932	14937
917.044	14792
917.156	14807
917.268	14739
917.38	14716
917.491	14678
917.603	14625
917.715	14830
917.826	14773
917.938	14617
918.049	14526
918.161	14613
918.272	14804
918.384	14826
918.495	14674
918.606	14545
918.717	14434
918.828	14492
918.939	14480
919.05	14381
919.161	14450
919.272	14301
919.383	14233
919.494	14492
919.604	14602
919.715	14381
919.826	14301
919.936	14454
920.047	14465
920.157	14469
920.267	14678
920.378	14492
920.488	14320
920.598	14613
920.708	14697
920.818	14575
920.928	14545
921.038	14701
921.148	14674
921.258	14446
921.368	14180
921.477	14362
921.587	14161
921.697	14020
921.806	14202
921.916	14001
922.025	13830
922.134	13799
922.244	13788
922.353	13887
922.462	13674
922.571	13556
922.68	13620
922.789	13453
922.898	13491
923.007	13434
923.116	13460
923.224	13518
923.333	13384
923.442	13335
923.55	13187
923.659	13343
923.767	13278
923.876	13278
923.984	13232
924.092	13160
924.201	13217
924.309	13152
924.417	13164
924.525	13129
924.633	13175
924.741	13856
924.849	13038
924.956	13027
925.064	12954
925.172	12852
925.279	12844
925.387	12913
925.494	12867
925.602	12951
925.709	12894
925.816	12760
925.924	12806
926.031	12935
926.138	12848
926.245	12852
926.352	12692
926.459	12962
926.566	12932
926.673	12783
926.779	12589
926.886	12597
926.993	12452
927.099	12437
927.206	12399
927.312	12376
927.419	12467
927.525	12467
927.631	12407
927.737	12403
927.843	12327
927.95	12194
928.056	12334
928.162	12300
928.267	12327
928.373	12787
928.479	12353
928.585	12110
928.69	12216
928.796	12216
928.901	12171
929.007	11999
929.112	12106
929.218	12140
929.323	11988
929.428	11999
929.533	12114
929.638	12003
929.743	12064
929.848	12003
929.953	11840
930.058	11840
930.163	11611
930.267	11718
930.372	11824
930.477	11638
930.581	11847
930.685	11805
930.79	11543
930.894	11668
930.998	11581
931.103	11638
931.207	11341
931.311	11269
931.415	11155
931.519	10999
931.623	10908
