Data from test_V78500241_2452.txt Node
Date: Fri Mar 25 15:26:55 CST 2022
User: usil
Spectrometer: V785-0024
Trigger mode: 0
Integration Time (sec): 4.000000E-1
Scans to average: 1
Nonlinearity correction enabled: false
Boxcar width: 0
Storing dark spectrum: false
XAxis mode: Wavelengths
Number of Pixels in Spectrum: 1024
>>>>>Begin Spectral Data<<<<<
801.071	27051
801.214	26842
801.356	26788
801.499	26670
801.641	26575
801.783	26415
801.926	26568
802.068	26571
802.211	26358
802.353	26336
802.496	26168
802.638	26206
802.78	26172
802.923	26069
803.065	26054
803.208	26054
803.35	26202
803.492	26263
803.635	26229
803.777	26145
803.919	26374
804.061	26575
804.204	26393
804.346	26122
804.488	26240
804.63	26328
804.773	26119
804.915	26244
805.057	26381
805.199	26195
805.341	26389
805.483	26434
805.626	26278
805.768	26263
805.91	26343
806.052	26438
806.194	26233
806.336	26415
806.478	26385
806.62	26400
806.762	26545
806.904	26644
807.046	26891
807.188	26716
807.33	26804
807.472	26830
807.614	26651
807.756	26743
807.898	26708
808.04	26594
808.182	26640
808.324	26686
808.465	26743
808.607	26735
808.749	26891
808.891	27043
809.033	27032
809.174	26990
809.316	26918
809.458	27028
809.6	26868
809.741	27005
809.883	27176
810.025	27233
810.166	27291
810.308	27074
810.45	27256
810.591	27123
810.733	26975
810.875	26838
811.016	26819
811.158	26864
811.299	26971
811.441	26956
811.582	27047
811.724	26929
811.865	27013
812.007	26967
812.148	26887
812.29	26982
812.431	27051
812.573	27329
812.714	27359
812.855	27329
812.997	27568
813.138	27561
813.279	27534
813.421	27401
813.562	27447
813.703	27218
813.845	27142
813.986	26880
814.127	26857
814.268	26552
814.41	26686
814.551	26568
814.692	26697
814.833	26541
814.974	26556
815.115	26636
815.256	26457
815.397	26476
815.539	26499
815.68	26404
815.821	26320
815.962	26438
816.103	26362
816.244	26244
816.385	26271
816.526	26142
816.666	25921
816.807	25868
816.948	26001
817.089	25993
817.23	25856
817.371	25875
817.512	25883
817.653	25944
817.793	25906
817.934	25887
818.075	25837
818.216	25898
818.356	25883
818.497	25738
818.638	25578
818.778	25499
818.919	25670
819.06	25708
819.2	25708
819.341	25788
819.481	25761
819.622	25997
819.762	26221
819.903	26161
820.043	25890
820.184	25997
820.324	25966
820.465	26149
820.605	25986
820.746	26096
820.886	25811
821.026	25932
821.167	25902
821.307	25986
821.447	25822
821.588	25757
821.728	25856
821.868	25537
822.008	25335
822.149	25411
822.289	25400
822.429	25088
822.569	25088
822.709	25091
822.849	24871
822.99	24909
823.13	24875
823.27	24852
823.41	24578
823.55	24437
823.69	24681
823.83	24627
823.97	24593
824.11	24513
824.25	24479
824.389	24532
824.529	24509
824.669	24410
824.809	24559
824.949	24631
825.089	24574
825.228	24483
825.368	24441
825.508	24342
825.648	24471
825.787	24353
825.927	24391
826.067	24216
826.206	24308
826.346	24338
826.485	24243
826.625	24270
826.765	24350
826.904	24418
827.044	24125
827.183	24159
827.323	24034
827.462	24060
827.601	23973
827.741	24079
827.88	23999
828.02	23859
828.159	24038
828.298	24045
828.437	24095
828.577	23939
828.716	24133
828.855	23847
828.994	23729
829.134	23813
829.273	23779
829.412	23668
829.551	23707
829.69	23718
829.829	23832
829.968	23912
830.107	23893
830.246	23748
830.385	23665
830.524	23642
830.663	23516
830.802	23505
830.941	23471
831.08	23334
831.219	23459
831.357	23509
831.496	23543
831.635	23330
831.774	23455
831.913	23261
832.051	23166
832.19	23223
832.329	23193
832.467	23185
832.606	23090
832.744	22991
832.883	23117
833.022	23037
833.16	23242
833.299	23044
833.437	23227
833.576	23109
833.714	22968
833.852	23212
833.991	23170
834.129	23261
834.267	23136
834.406	23075
834.544	23174
834.682	23105
834.821	23155
834.959	23231
835.097	23006
835.235	23200
835.373	22991
835.511	23178
835.65	23048
835.788	22995
835.926	22816
836.064	22828
836.202	22911
836.34	22953
836.478	23113
836.615	22995
836.753	22881
836.891	23037
837.029	22965
837.167	22873
837.305	22862
837.443	22854
837.58	22790
837.718	22881
837.856	22911
837.993	22843
838.131	22790
838.269	22706
838.406	22786
838.544	22573
838.681	22508
838.819	22546
838.956	22238
839.094	22265
839.231	22348
839.369	22478
839.506	22702
839.643	22512
839.781	22249
839.918	22268
840.055	22284
840.193	22310
840.33	22268
840.467	22265
840.604	22272
840.742	22432
840.879	22097
841.016	22158
841.153	22192
841.29	22341
841.427	22204
841.564	22230
841.701	22188
841.838	22131
841.975	22139
842.112	22169
842.249	22139
842.385	22010
842.522	22173
842.659	21994
842.796	21991
842.933	22070
843.069	21869
843.206	22002
843.343	22093
843.479	21884
843.616	21975
843.752	21789
843.889	21755
844.025	21880
844.162	21827
844.298	21899
844.435	21797
844.571	21842
844.708	21907
844.844	21930
844.98	21861
845.117	21884
845.253	21808
845.389	21599
845.525	21686
845.661	21618
845.798	21629
845.934	21603
846.07	21572
846.206	21473
846.342	21663
846.478	21485
846.614	21268
846.75	21272
846.886	21161
847.022	21291
847.158	21233
847.294	21161
847.429	21218
847.565	21138
847.701	21408
847.837	21032
847.972	20895
848.108	21058
848.244	21058
848.379	20933
848.515	20845
848.65	20838
848.786	20956
848.921	20845
849.057	21013
849.192	20994
849.328	20815
849.463	20750
849.598	20777
849.734	20636
849.869	20670
850.004	20670
850.14	20617
850.275	20602
850.41	20537
850.545	20568
850.68	20682
850.815	20575
850.95	20568
851.085	20712
851.22	20697
851.355	20735
851.49	20644
851.625	20609
851.76	20499
851.895	20518
852.03	20454
852.165	20617
852.299	20575
852.434	20579
852.569	20701
852.703	20621
852.838	20560
852.973	20674
853.107	20682
853.242	20708
853.376	20408
853.511	20366
853.645	20358
853.78	20644
853.914	20339
854.048	20423
854.183	20370
854.317	20461
854.451	20651
854.585	20518
854.72	20480
854.854	20533
854.988	20412
855.122	20419
855.256	20415
855.39	20423
855.524	20549
855.658	20541
855.792	20465
855.926	20511
856.06	20670
856.194	20568
856.327	20454
856.461	20377
856.595	20252
856.729	20320
856.862	20571
856.996	20427
857.13	20457
857.263	20621
857.397	20427
857.53	20587
857.664	20473
857.797	20488
857.931	20564
858.064	20427
858.197	20583
858.331	20461
858.464	20454
858.597	20256
858.731	20431
858.864	20419
858.997	20396
859.13	20366
859.263	20442
859.396	20518
859.529	20415
859.662	20503
859.795	20358
859.928	20545
860.061	20609
860.194	20609
860.327	20541
860.46	20476
860.592	20640
860.725	20568
860.858	20480
860.99	20492
861.123	20362
861.256	20377
861.388	20355
861.521	20979
861.653	20278
861.786	20225
861.918	20339
862.05	20240
862.183	20358
862.315	20324
862.447	20328
862.58	20442
862.712	20199
862.844	20187
862.976	20221
863.108	20130
863.24	20571
863.372	20100
863.504	20153
863.636	20275
863.768	20191
863.9	20259
864.032	20065
864.164	20191
864.296	20145
864.428	20183
864.559	20263
864.691	20267
864.823	20096
864.954	20157
865.086	20252
865.217	20065
865.349	20016
865.48	20107
865.612	20157
865.743	20225
865.875	20122
866.006	19986
866.137	20149
866.269	20054
866.4	20077
866.531	20062
866.662	19982
866.793	19928
866.924	20005
867.055	20062
867.186	20046
867.317	20016
867.448	19871
867.579	19974
867.71	19936
867.841	19963
867.972	20115
868.103	19963
868.233	19959
868.364	19871
868.495	20081
868.625	20195
868.756	20320
868.886	20183
869.017	20191
869.147	20438
869.278	20305
869.408	20233
869.539	20225
869.669	20290
869.799	20176
869.929	20355
870.06	20385
870.19	20613
870.32	20549
870.45	20629
870.58	20583
870.71	20765
870.84	20796
870.97	20663
871.1	20629
871.23	20861
871.36	20807
871.489	20800
871.619	20857
871.749	20910
871.879	20792
872.008	20990
872.138	20960
872.267	20857
872.397	20636
872.526	20667
872.656	20743
872.785	20727
872.915	20815
873.044	21024
873.173	20910
873.303	21032
873.432	20842
873.561	20960
873.69	20921
873.819	20948
873.948	21024
874.077	21043
874.206	20830
874.335	20883
874.464	21112
874.593	21131
874.722	21108
874.851	21218
874.979	21146
875.108	21096
875.237	21146
875.365	20944
875.494	20982
875.623	21264
875.751	21081
875.88	21237
876.008	21146
876.136	21359
876.265	21530
876.393	21743
876.521	21667
876.65	21637
876.778	21618
876.906	21515
877.034	21462
877.162	21428
877.29	21545
877.418	21454
877.546	21557
877.674	21435
877.802	21363
877.93	21557
878.058	21515
878.185	21355
878.313	21488
878.441	21488
878.568	21310
878.696	21462
878.824	21450
878.951	21469
879.079	21682
879.206	21789
879.333	21698
879.461	21408
879.588	21641
879.715	21751
879.842	21774
879.97	21576
880.097	21336
880.224	21386
880.351	21340
880.478	21317
880.605	21298
880.732	21363
880.859	21580
880.986	21298
881.112	21310
881.239	21192
881.366	21108
881.493	20933
881.619	20914
881.746	20857
881.872	20902
881.999	20914
882.125	20914
882.252	20887
882.378	20895
882.505	20819
882.631	20651
882.757	20609
882.883	20731
883.01	20686
883.136	20457
883.262	20518
883.388	20537
883.514	20621
883.64	20606
883.766	20549
883.892	20434
884.018	20469
884.143	20495
884.269	20670
884.395	20240
884.52	20267
884.646	20256
884.772	20145
884.897	20134
885.023	20385
885.148	20313
885.274	20438
885.399	20381
885.524	20237
885.65	20393
885.775	20282
885.9	20267
886.025	20434
886.15	20366
886.275	20221
886.4	20225
886.525	20343
886.65	20233
886.775	20202
886.9	20347
887.025	20438
887.149	20244
887.274	20065
887.399	20020
887.523	19978
887.648	20039
887.773	19868
887.897	20107
888.021	20119
888.146	20043
888.27	19989
888.395	20062
888.519	20206
888.643	20031
888.767	20027
888.891	20005
889.015	19879
889.139	19917
889.263	19864
889.387	19841
889.511	20058
889.635	19978
889.759	19799
889.883	19830
890.006	19788
890.13	19974
890.254	19795
890.377	19693
890.501	19647
890.624	19578
890.748	19655
890.871	19586
890.995	19483
891.118	19251
891.241	19510
891.364	19434
891.488	19521
891.611	19373
891.734	19521
891.857	19396
891.98	19388
892.103	19552
892.226	19426
892.349	19339
892.471	19266
892.594	19343
892.717	19365
892.839	19358
892.962	19483
893.085	19510
893.207	19396
893.33	19202
893.452	19225
893.575	19468
893.697	19362
893.819	19529
893.941	19514
894.064	19331
894.186	19285
894.308	19251
894.43	19441
894.552	19502
894.674	19373
894.796	19320
894.918	19312
895.04	19449
895.161	19514
895.283	19384
895.405	19293
895.526	19495
895.648	19365
895.769	19312
895.891	19506
896.012	19373
896.134	19381
896.255	19384
896.376	19320
896.498	19324
896.619	19365
896.74	19339
896.861	19343
896.982	19643
897.103	19738
897.224	19552
897.345	19605
897.466	19533
897.587	19594
897.708	19860
897.828	19533
897.949	19491
898.07	19464
898.19	19537
898.311	19738
898.431	19533
898.552	19472
898.672	19639
898.792	19643
898.913	19666
899.033	19426
899.153	19396
899.273	19320
899.393	19381
899.513	19304
899.633	19327
899.753	19293
899.873	19308
899.993	19483
900.113	19304
900.232	19266
900.352	19225
900.472	19247
900.591	19148
900.711	19088
900.83	19103
900.95	19156
901.069	19187
901.189	19034
901.308	18802
901.427	18730
901.546	18661
901.665	18760
901.784	18776
901.904	18601
902.023	18528
902.141	18319
902.26	18251
902.379	18369
902.498	18243
902.617	18201
902.735	18273
902.854	18220
902.973	18228
903.091	18003
903.21	17843
903.328	17889
903.446	17745
903.565	17771
903.683	17821
903.801	17570
903.919	17707
904.038	17707
904.156	17539
904.274	17570
904.392	17444
904.51	17429
904.627	17589
904.745	17509
904.863	17562
904.981	17318
905.098	17155
905.216	17067
905.334	17162
905.451	17178
905.569	17124
905.686	17124
905.803	17239
905.921	16946
906.038	17067
906.155	17113
906.272	16828
906.389	16965
906.506	16668
906.623	16774
906.74	16755
906.857	16615
906.974	16615
907.091	16797
907.208	16729
907.324	16774
907.441	16599
907.557	16565
907.674	16489
907.79	16424
907.907	16371
908.023	16428
908.139	16405
908.256	16344
908.372	16424
908.488	16348
908.604	16188
908.72	16124
908.836	16238
908.952	16090
909.068	16249
909.184	16295
909.3	16192
909.415	16207
909.531	16166
909.647	15838
909.762	15865
909.878	15835
909.993	15884
910.108	15888
910.224	15774
910.339	15899
910.454	15865
910.57	15728
910.685	15648
910.8	15911
910.915	15869
911.03	15713
911.145	15500
911.259	15485
911.374	15408
911.489	15389
911.604	15439
911.718	15279
911.833	15188
911.947	15207
912.062	15154
912.176	15230
912.291	15207
912.405	15230
912.519	15374
912.633	15405
912.748	15233
912.862	15184
912.976	15165
913.09	14944
913.204	15104
913.318	15013
913.431	15108
913.545	15180
913.659	15138
913.772	15081
913.886	14906
914	14883
914.113	15058
914.226	14963
914.34	14929
914.453	14758
914.566	14899
914.68	14689
914.793	14765
914.906	14629
915.019	14560
915.132	14522
915.245	14495
915.358	14503
915.47	14495
915.583	14488
915.696	14606
915.809	14556
915.921	14602
916.034	14393
916.146	14396
916.259	14438
916.371	14465
916.483	14461
916.595	14374
916.708	14278
916.82	14419
916.932	14351
917.044	14305
917.156	14275
917.268	14164
917.38	14130
917.491	14100
917.603	14145
917.715	14183
917.826	14191
917.938	14092
918.049	14092
918.161	14084
918.272	14271
918.384	14275
918.495	14149
918.606	14039
918.717	13925
918.828	13936
918.939	13940
919.05	13856
919.161	13974
919.272	13811
919.383	13875
919.494	14008
919.604	14111
919.715	13982
919.826	13765
919.936	13944
920.047	13951
920.157	13902
920.267	14157
920.378	13890
920.488	13826
920.598	14130
920.708	14298
920.818	13989
920.928	14050
921.038	14294
921.148	14172
921.258	13822
921.368	13784
921.477	13685
921.587	13605
921.697	13556
921.806	13666
921.916	13533
922.025	13297
922.134	13282
922.244	13422
922.353	13278
922.462	13232
922.571	13187
922.68	13057
922.789	12966
922.898	12901
923.007	12947
923.116	13008
923.224	13008
923.333	12932
923.442	12821
923.55	12802
923.659	12924
923.767	12890
923.876	12760
923.984	12821
924.092	12749
924.201	12795
924.309	12684
924.417	12692
924.525	12673
924.633	12692
924.741	13636
924.849	12490
924.956	12604
925.064	12304
925.172	12311
925.279	12456
925.387	12448
925.494	12422
925.602	12544
925.709	12448
925.816	12334
925.924	12384
926.031	12456
926.138	12414
926.245	12517
926.352	12258
926.459	12418
926.566	12483
926.673	12311
926.779	12064
926.886	12243
926.993	11999
927.099	12003
927.206	11984
927.312	11977
927.419	12072
927.525	12129
927.631	12007
927.737	11878
927.843	11878
927.95	11756
928.056	11832
928.162	11946
928.267	11908
928.373	12502
928.479	11882
928.585	11691
928.69	11802
928.796	11824
928.901	11661
929.007	11573
929.112	11684
929.218	11604
929.323	11562
929.428	11539
929.533	11684
929.638	11490
929.743	11592
929.848	11558
929.953	11482
930.058	11433
930.163	11242
930.267	11292
930.372	11444
930.477	11330
930.581	11505
930.685	11299
930.79	11174
930.894	11143
930.998	11132
931.103	11326
931.207	10968
931.311	10843
931.415	10778
931.519	10637
931.623	10618
