Data from test_V78500241_932.txt Node
Date: Fri Mar 25 15:16:20 CST 2022
User: usil
Spectrometer: V785-0024
Trigger mode: 0
Integration Time (sec): 4.000000E-1
Scans to average: 1
Nonlinearity correction enabled: false
Boxcar width: 0
Storing dark spectrum: false
XAxis mode: Wavelengths
Number of Pixels in Spectrum: 1024
>>>>>Begin Spectral Data<<<<<
801.071	28082
801.214	27945
801.356	27633
801.499	27701
801.641	27679
801.783	27652
801.926	27671
802.068	27686
802.211	27504
802.353	27523
802.496	27302
802.638	27279
802.78	27252
802.923	27218
803.065	27157
803.208	27264
803.35	27237
803.492	27340
803.635	27485
803.777	27313
803.919	27462
804.061	27739
804.204	27648
804.346	27389
804.488	27370
804.63	27348
804.773	27488
804.915	27348
805.057	27485
805.199	27458
805.341	27595
805.483	27583
805.626	27663
805.768	27367
805.91	27492
806.052	27580
806.194	27595
806.336	27614
806.478	27717
806.62	27682
806.762	27709
806.904	27804
807.046	28090
807.188	28029
807.33	28078
807.472	28112
807.614	27922
807.756	27934
807.898	27835
808.04	27804
808.182	27956
808.324	27842
808.465	27918
808.607	28101
808.749	28268
808.891	28291
809.033	28325
809.174	28367
809.316	28299
809.458	28204
809.6	28223
809.741	28337
809.883	28417
810.025	28516
810.166	28577
810.308	28569
810.45	28554
810.591	28379
810.733	28329
810.875	28299
811.016	28188
811.158	28162
811.299	28459
811.441	28280
811.582	28344
811.724	28196
811.865	28249
812.007	28333
812.148	28246
812.29	28329
812.431	28546
812.573	28634
812.714	28725
812.855	28752
812.997	28786
813.138	28984
813.279	28820
813.421	28824
813.562	28740
813.703	28645
813.845	28474
813.986	28200
814.127	28067
814.268	27911
814.41	27979
814.551	27922
814.692	27972
814.833	27823
814.974	27926
815.115	27892
815.256	27778
815.397	27838
815.539	27918
815.68	27747
815.821	27698
815.962	27751
816.103	27709
816.244	27686
816.385	27667
816.526	27485
816.666	27359
816.807	27230
816.948	27310
817.089	27370
817.23	27294
817.371	27294
817.512	27226
817.653	27275
817.793	27127
817.934	27291
818.075	27161
818.216	27344
818.356	27264
818.497	27188
818.638	27066
818.778	27001
818.919	27138
819.06	27123
819.2	27378
819.341	27233
819.481	27275
819.622	27348
819.762	27599
819.903	27595
820.043	27629
820.184	27420
820.324	27458
820.465	27427
820.605	27321
820.746	27321
820.886	27272
821.026	27370
821.167	27351
821.307	27378
821.447	27085
821.588	27127
821.728	27085
821.868	26830
822.008	26826
822.149	26629
822.289	26739
822.429	26412
822.569	26465
822.709	26427
822.849	26400
822.99	26221
823.13	26248
823.27	26145
823.41	26263
823.55	25947
823.69	26115
823.83	26035
823.97	25982
824.11	25970
824.25	25909
824.389	25822
824.529	26096
824.669	25928
824.809	26100
824.949	26012
825.089	26100
825.228	25913
825.368	25791
825.508	25814
825.648	25791
825.787	25875
825.927	25871
826.067	25807
826.206	25563
826.346	25666
826.485	25776
826.625	25803
826.765	26016
826.904	25852
827.044	25472
827.183	25575
827.323	25434
827.462	25719
827.601	25514
827.741	25362
827.88	25449
828.02	25343
828.159	25506
828.298	25658
828.437	25643
828.577	25441
828.716	25666
828.855	25339
828.994	25171
829.134	25152
829.273	25365
829.412	25152
829.551	25156
829.69	25206
829.829	25293
829.968	25358
830.107	25282
830.246	25213
830.385	25190
830.524	25217
830.663	24863
830.802	24989
830.941	24745
831.08	24768
831.219	24962
831.357	24882
831.496	25076
831.635	24886
831.774	24798
831.913	24544
832.051	24623
832.19	24627
832.329	24532
832.467	24490
832.606	24479
832.744	24525
832.883	24540
833.022	24517
833.16	24509
833.299	24616
833.437	24471
833.576	24620
833.714	24612
833.852	24528
833.991	24555
834.129	24616
834.267	24646
834.406	24517
834.544	24589
834.682	24525
834.821	24574
834.959	24661
835.097	24502
835.235	24642
835.373	24574
835.511	24490
835.65	24414
835.788	24429
835.926	24285
836.064	24182
836.202	24194
836.34	24338
836.478	24422
836.615	24422
836.753	24422
836.891	24486
837.029	24414
837.167	24319
837.305	24399
837.443	24338
837.58	24296
837.718	24285
837.856	24262
837.993	24220
838.131	24247
838.269	24174
838.406	24053
838.544	24068
838.681	23882
838.819	23885
838.956	23813
839.094	23661
839.231	23927
839.369	23920
839.506	24026
839.643	23988
839.781	23779
839.918	23737
840.055	23615
840.193	23630
840.33	23722
840.467	23748
840.604	23668
840.742	23920
840.879	23463
841.016	23570
841.153	23493
841.29	23539
841.427	23589
841.564	23558
841.701	23665
841.838	23516
841.975	23604
842.112	23429
842.249	23463
842.385	23455
842.522	23490
842.659	23436
842.796	23391
842.933	23349
843.069	23421
843.206	23353
843.343	23353
843.479	23436
843.616	23356
843.752	23037
843.889	23178
844.025	23383
844.162	23200
844.298	23254
844.435	23140
844.571	23147
844.708	23239
844.844	23436
844.98	23258
845.117	23292
845.253	23109
845.389	23056
845.525	23064
845.661	22934
845.798	22968
845.934	22942
846.07	22812
846.206	22797
846.342	22984
846.478	22873
846.614	22622
846.75	22557
846.886	22561
847.022	22637
847.158	22462
847.294	22740
847.429	22599
847.565	22573
847.701	22850
847.837	22451
847.972	22417
848.108	22409
848.244	22485
848.379	22223
848.515	22188
848.65	22246
848.786	22196
848.921	22211
849.057	22303
849.192	22219
849.328	22166
849.463	22131
849.598	22177
849.734	22101
849.869	22093
850.004	21975
850.14	21998
850.275	22086
850.41	21762
850.545	21979
850.68	21975
850.815	21953
850.95	22029
851.085	22166
851.22	22025
851.355	21926
851.49	21987
851.625	21975
851.76	21831
851.895	21880
852.03	21926
852.165	21892
852.299	22067
852.434	22109
852.569	21960
852.703	21941
852.838	22032
852.973	22135
853.107	22093
853.242	22036
853.376	21842
853.511	21701
853.645	21743
853.78	21915
853.914	21778
854.048	21819
854.183	21880
854.317	21751
854.451	21926
854.585	21751
854.72	21789
854.854	21865
854.988	21656
855.122	21869
855.256	21614
855.39	21713
855.524	21922
855.658	21892
855.792	21720
855.926	21732
856.06	21880
856.194	21956
856.327	21679
856.461	21720
856.595	21739
856.729	21819
856.862	21926
856.996	21854
857.13	21793
857.263	21838
857.397	21876
857.53	21781
857.664	21895
857.797	21831
857.931	21953
858.064	21759
858.197	21880
858.331	21793
858.464	21785
858.597	21652
858.731	21724
858.864	21835
858.997	21774
859.13	21895
859.263	21759
859.396	21960
859.529	21694
859.662	21751
859.795	21686
859.928	21743
860.061	21979
860.194	22082
860.327	21816
860.46	21861
860.592	21888
860.725	21975
860.858	22055
860.99	21907
861.123	21739
861.256	21709
861.388	21846
861.521	22478
861.653	21690
861.786	21538
861.918	21622
862.05	21587
862.183	21728
862.315	21698
862.447	21762
862.58	21766
862.712	21504
862.844	21389
862.976	21618
863.108	21412
863.24	21793
863.372	21431
863.504	21462
863.636	21507
863.768	21393
863.9	21462
864.032	21408
864.164	21530
864.296	21534
864.428	21564
864.559	21603
864.691	21549
864.823	21580
864.954	21386
865.086	21435
865.217	21443
865.349	21340
865.48	21321
865.612	21481
865.743	21488
865.875	21306
866.006	21332
866.137	21389
866.269	21325
866.4	21359
866.531	21329
866.662	21321
866.793	21439
866.924	21382
867.055	21363
867.186	21344
867.317	21237
867.448	21188
867.579	21260
867.71	21199
867.841	21195
867.972	21317
868.103	21249
868.233	21367
868.364	21325
868.495	21481
868.625	21443
868.756	21595
868.886	21443
869.017	21363
869.147	21679
869.278	21724
869.408	21507
869.539	21542
869.669	21648
869.799	21595
869.929	21682
870.06	21762
870.19	21915
870.32	21797
870.45	21964
870.58	21857
870.71	21991
870.84	22112
870.97	21960
871.1	21975
871.23	22059
871.36	22055
871.489	22044
871.619	22158
871.749	22280
871.879	22082
872.008	22299
872.138	22185
872.267	22185
872.397	21991
872.526	21960
872.656	22021
872.785	21979
872.915	22196
873.044	22143
873.173	22287
873.303	22230
873.432	22299
873.561	22238
873.69	22154
873.819	22192
873.948	22215
874.077	22215
874.206	22143
874.335	22188
874.464	22402
874.593	22398
874.722	22322
874.851	22310
874.979	22489
875.108	22413
875.237	22337
875.365	22325
875.494	22417
875.623	22485
875.751	22333
875.88	22310
876.008	22550
876.136	22504
876.265	22778
876.393	22828
876.521	22828
876.65	22801
876.778	22835
876.906	22664
877.034	22672
877.162	22736
877.29	22721
877.418	22793
877.546	22694
877.674	22771
877.802	22675
877.93	22759
878.058	22694
878.185	22580
878.313	22759
878.441	22694
878.568	22538
878.696	22729
878.824	22805
878.951	22816
879.079	22938
879.206	23022
879.333	22793
879.461	22656
879.588	22793
879.715	22850
879.842	22980
879.97	22748
880.097	22538
880.224	22592
880.351	22573
880.478	22626
880.605	22565
880.732	22546
880.859	22828
880.986	22538
881.112	22554
881.239	22352
881.366	22272
881.493	22185
881.619	22093
881.746	22215
881.872	22116
881.999	22032
882.125	22166
882.252	22070
882.378	22059
882.505	22287
882.631	21865
882.757	21857
882.883	21873
883.01	21743
883.136	21827
883.262	21690
883.388	21652
883.514	21846
883.64	21861
883.766	21679
883.892	21538
884.018	21610
884.143	21739
884.269	21766
884.395	21603
884.52	21431
884.646	21370
884.772	21477
884.897	21435
885.023	21580
885.148	21564
885.274	21587
885.399	21473
885.524	21443
885.65	21397
885.775	21329
885.9	21439
886.025	21576
886.15	21530
886.275	21431
886.4	21313
886.525	21416
886.65	21348
886.775	21218
886.9	21511
887.025	21648
887.149	21435
887.274	21169
887.399	21203
887.523	21298
887.648	21085
887.773	21112
887.897	21161
888.021	21287
888.146	21131
888.27	21275
888.395	21302
888.519	21173
888.643	21291
888.767	21142
888.891	21020
889.015	20948
889.139	21150
889.263	21017
889.387	21222
889.511	21195
889.635	21195
889.759	20982
889.883	20925
890.006	21058
890.13	21116
890.254	20872
890.377	20895
890.501	20796
890.624	20754
890.748	20925
890.871	20632
890.995	20537
891.118	20571
891.241	20701
891.364	20533
891.488	20796
891.611	20564
891.734	20575
891.857	20716
891.98	20560
892.103	20625
892.226	20571
892.349	20461
892.471	20381
892.594	20366
892.717	20530
892.839	20396
892.962	20419
893.085	20442
893.207	20469
893.33	20336
893.452	20343
893.575	20484
893.697	20427
893.819	20613
893.941	20674
894.064	20655
894.186	20400
894.308	20347
894.43	20598
894.552	20556
894.674	20545
894.796	20358
894.918	20484
895.04	20370
895.161	20545
895.283	20396
895.405	20263
895.526	20446
895.648	20488
895.769	20423
895.891	20457
896.012	20465
896.134	20400
896.255	20598
896.376	20476
896.498	20518
896.619	20480
896.74	20465
896.861	20537
896.982	20735
897.103	20899
897.224	20712
897.345	20625
897.466	20530
897.587	20689
897.708	20788
897.828	20762
897.949	20674
898.07	20454
898.19	20587
898.311	20549
898.431	20564
898.552	20648
898.672	20769
898.792	20731
898.913	20727
899.033	20419
899.153	20339
899.273	20400
899.393	20362
899.513	20473
899.633	20374
899.753	20461
899.873	20328
899.993	20336
900.113	20336
900.232	20282
900.352	20301
900.472	20164
900.591	20122
900.711	20172
900.83	20229
900.95	20339
901.069	20324
901.189	20115
901.308	19841
901.427	19696
901.546	19738
901.665	19723
901.784	19780
901.904	19655
902.023	19544
902.141	19400
902.26	19259
902.379	19400
902.498	19152
902.617	19259
902.735	19373
902.854	19221
902.973	19168
903.091	18970
903.21	19012
903.328	18951
903.446	18825
903.565	18791
903.683	18741
903.801	18734
903.919	18764
904.038	18726
904.156	18502
904.274	18528
904.392	18528
904.51	18646
904.627	18452
904.745	18498
904.863	18612
904.981	18342
905.098	18239
905.216	18254
905.334	18224
905.451	18228
905.569	18251
905.686	18334
905.803	18152
905.921	17977
906.038	18159
906.155	18174
906.272	17874
906.389	17870
906.506	17714
906.623	17840
906.74	17832
906.857	17627
906.974	17627
907.091	17805
907.208	17901
907.324	17726
907.441	17630
907.557	17512
907.674	17562
907.79	17376
907.907	17414
908.023	17452
908.139	17402
908.256	17433
908.372	17330
908.488	17391
908.604	17216
908.72	17105
908.836	17117
908.952	17155
909.068	17193
909.184	17364
909.3	17178
909.415	17220
909.531	17086
909.647	16843
909.762	16885
909.878	16858
909.993	16961
910.108	16786
910.224	16828
910.339	16835
910.454	16721
910.57	16645
910.685	16630
910.8	16854
910.915	16774
911.03	16672
911.145	16561
911.259	16398
911.374	16455
911.489	16398
911.604	16417
911.718	16238
911.833	16303
911.947	16082
912.062	15941
912.176	16120
912.291	16223
912.405	16086
912.519	16295
912.633	16417
912.748	16192
912.862	16242
912.976	16048
913.09	15895
913.204	15975
913.318	15964
913.431	16116
913.545	16166
913.659	16124
913.772	16010
913.886	15899
914	15743
914.113	15937
914.226	15895
914.34	15781
914.453	15713
914.566	15842
914.68	15717
914.793	15641
914.906	15504
915.019	15488
915.132	15389
915.245	15367
915.358	15458
915.47	15367
915.583	15306
915.696	15416
915.809	15523
915.921	15572
916.034	15351
916.146	15374
916.259	15233
916.371	15447
916.483	15313
916.595	15207
916.708	15233
916.82	15317
916.932	15226
917.044	15233
917.156	15184
917.268	15070
917.38	15066
917.491	15097
917.603	15077
917.715	15104
917.826	15089
917.938	15017
918.049	14937
918.161	15017
918.272	15241
918.384	15146
918.495	14952
918.606	14792
918.717	14796
918.828	14807
918.939	14902
919.05	14708
919.161	14781
919.272	14606
919.383	14568
919.494	14880
919.604	15116
919.715	14811
919.826	14735
919.936	14670
920.047	14830
920.157	14758
920.267	14994
920.378	14781
920.488	14838
920.598	14982
920.708	15043
920.818	14883
920.928	14967
921.038	15074
921.148	15055
921.258	14689
921.368	14594
921.477	14469
921.587	14606
921.697	14358
921.806	14507
921.916	14362
922.025	14206
922.134	14115
922.244	14005
922.353	14164
922.462	13955
922.571	13974
922.68	13799
922.789	13868
922.898	13772
923.007	13651
923.116	13769
923.224	13738
923.333	13734
923.442	13639
923.55	13578
923.659	13742
923.767	13674
923.876	13556
923.984	13651
924.092	13529
924.201	13521
924.309	13559
924.417	13590
924.525	13400
924.633	13464
924.741	14370
924.849	13297
924.956	13346
925.064	13285
925.172	13251
925.279	13114
925.387	13149
925.494	13179
925.602	13285
925.709	13282
925.816	13080
925.924	13206
926.031	13217
926.138	13050
926.245	13095
926.352	13031
926.459	13084
926.566	13141
926.673	13141
926.779	12856
926.886	12856
926.993	12798
927.099	12772
927.206	12669
927.312	12696
927.419	12814
927.525	12734
927.631	12757
927.737	12612
927.843	12566
927.95	12509
928.056	12475
928.162	12601
928.267	12544
928.373	13129
928.479	12623
928.585	12372
928.69	12506
928.796	12589
928.901	12407
929.007	12334
929.112	12490
929.218	12372
929.323	12308
929.428	12155
929.533	12319
929.638	12175
929.743	12224
929.848	12228
929.953	12201
930.058	12190
930.163	11935
930.267	11920
930.372	12034
930.477	11912
930.581	12087
930.685	12072
930.79	11855
930.894	11840
930.998	11798
931.103	11923
931.207	11691
931.311	11493
931.415	11509
931.519	11311
931.623	11242
