Data from test_V78500241_2456.txt Node
Date: Fri Mar 25 15:26:57 CST 2022
User: usil
Spectrometer: V785-0024
Trigger mode: 0
Integration Time (sec): 4.000000E-1
Scans to average: 1
Nonlinearity correction enabled: false
Boxcar width: 0
Storing dark spectrum: false
XAxis mode: Wavelengths
Number of Pixels in Spectrum: 1024
>>>>>Begin Spectral Data<<<<<
801.071	27066
801.214	26914
801.356	26727
801.499	26667
801.641	26571
801.783	26621
801.926	26518
802.068	26575
802.211	26389
802.353	26301
802.496	26252
802.638	26119
802.78	26077
802.923	25993
803.065	25868
803.208	26039
803.35	26119
803.492	26263
803.635	26206
803.777	26062
803.919	26244
804.061	26621
804.204	26412
804.346	26240
804.488	26168
804.63	26278
804.773	26172
804.915	26256
805.057	26412
805.199	26180
805.341	26298
805.483	26381
805.626	26453
805.768	26225
805.91	26332
806.052	26305
806.194	26347
806.336	26423
806.478	26370
806.62	26240
806.762	26492
806.904	26613
807.046	26842
807.188	26705
807.33	26705
807.472	26765
807.614	26701
807.756	26773
807.898	26640
808.04	26476
808.182	26541
808.324	26712
808.465	26598
808.607	26826
808.749	27017
808.891	27062
809.033	27142
809.174	27028
809.316	26899
809.458	26925
809.6	26937
809.741	27047
809.883	26998
810.025	27142
810.166	27203
810.308	27066
810.45	27184
810.591	27024
810.733	26967
810.875	26819
811.016	26804
811.158	26807
811.299	26918
811.441	26998
811.582	26948
811.724	26849
811.865	26800
812.007	26899
812.148	26754
812.29	27032
812.431	26960
812.573	27176
812.714	27359
812.855	27450
812.997	27561
813.138	27610
813.279	27568
813.421	27435
813.562	27389
813.703	27340
813.845	27287
813.986	26868
814.127	26765
814.268	26617
814.41	26651
814.551	26571
814.692	26697
814.833	26514
814.974	26484
815.115	26594
815.256	26484
815.397	26503
815.539	26484
815.68	26366
815.821	26252
815.962	26362
816.103	26317
816.244	26221
816.385	26161
816.526	26221
816.666	25811
816.807	25826
816.948	25974
817.089	25951
817.23	25742
817.371	25769
817.512	25734
817.653	25852
817.793	25757
817.934	25761
818.075	25795
818.216	25826
818.356	25723
818.497	25719
818.638	25544
818.778	25586
818.919	25666
819.06	25540
819.2	25620
819.341	25803
819.481	25822
819.622	25951
819.762	26073
819.903	25982
820.043	25993
820.184	25864
820.324	25890
820.465	26020
820.605	25902
820.746	25890
820.886	25822
821.026	25887
821.167	25811
821.307	25917
821.447	25887
821.588	25803
821.728	25601
821.868	25415
822.008	25282
822.149	25411
822.289	25297
822.429	25053
822.569	24947
822.709	24920
822.849	24863
822.99	24783
823.13	24757
823.27	24734
823.41	24604
823.55	24426
823.69	24582
823.83	24612
823.97	24540
824.11	24437
824.25	24441
824.389	24475
824.529	24540
824.669	24391
824.809	24544
824.949	24589
825.089	24429
825.228	24456
825.368	24247
825.508	24235
825.648	24224
825.787	24315
825.927	24292
826.067	24323
826.206	24224
826.346	24273
826.485	24194
826.625	24350
826.765	24346
826.904	24182
827.044	24125
827.183	24041
827.323	23927
827.462	24098
827.601	24053
827.741	23931
827.88	23950
828.02	23870
828.159	24076
828.298	24106
828.437	24045
828.577	23942
828.716	24178
828.855	23889
828.994	23657
829.134	23649
829.273	23798
829.412	23585
829.551	23634
829.69	23710
829.829	23805
829.968	23794
830.107	23836
830.246	23745
830.385	23756
830.524	23566
830.663	23627
830.802	23448
830.941	23425
831.08	23360
831.219	23383
831.357	23398
831.496	23440
831.635	23391
831.774	23280
831.913	23174
832.051	23052
832.19	23075
832.329	23178
832.467	22991
832.606	23033
832.744	22949
832.883	22995
833.022	23025
833.16	22999
833.299	23052
833.437	23075
833.576	23033
833.714	23098
833.852	23208
833.991	23147
834.129	23124
834.267	23136
834.406	23010
834.544	23140
834.682	23060
834.821	23071
834.959	23227
835.097	22961
835.235	23044
835.373	23136
835.511	23159
835.65	23006
835.788	22896
835.926	22786
836.064	22683
836.202	22748
836.34	23003
836.478	23006
836.615	22869
836.753	22858
836.891	23048
837.029	22946
837.167	22828
837.305	22816
837.443	22733
837.58	22740
837.718	22828
837.856	22767
837.993	22702
838.131	22797
838.269	22721
838.406	22603
838.544	22603
838.681	22394
838.819	22428
838.956	22295
839.094	22333
839.231	22299
839.369	22371
839.506	22615
839.643	22455
839.781	22344
839.918	22185
840.055	22211
840.193	22223
840.33	22162
840.467	22246
840.604	22268
840.742	22447
840.879	21994
841.016	22048
841.153	22036
841.29	22325
841.427	22185
841.564	22120
841.701	22093
841.838	22044
841.975	22097
842.112	22109
842.249	22040
842.385	21964
842.522	22124
842.659	21899
842.796	21892
842.933	21895
843.069	21812
843.206	21888
843.343	21983
843.479	21972
843.616	21941
843.752	21751
843.889	21686
844.025	21724
844.162	21686
844.298	21755
844.435	21694
844.571	21724
844.708	21675
844.844	21911
844.98	21869
845.117	21800
845.253	21747
845.389	21610
845.525	21656
845.661	21595
845.798	21526
845.934	21412
846.07	21587
846.206	21363
846.342	21572
846.478	21348
846.614	21203
846.75	21081
846.886	21070
847.022	21351
847.158	21100
847.294	21230
847.429	21226
847.565	21154
847.701	21542
847.837	20857
847.972	20861
848.108	20990
848.244	21116
848.379	20963
848.515	20815
848.65	20705
848.786	20724
848.921	20796
849.057	20807
849.192	20815
849.328	20807
849.463	20781
849.598	20727
849.734	20678
849.869	20492
850.004	20625
850.14	20556
850.275	20617
850.41	20488
850.545	20579
850.68	20560
850.815	20655
850.95	20549
851.085	20800
851.22	20689
851.355	20606
851.49	20488
851.625	20587
851.76	20556
851.895	20370
852.03	20526
852.165	20533
852.299	20579
852.434	20568
852.569	20590
852.703	20473
852.838	20708
852.973	20708
853.107	20701
853.242	20484
853.376	20431
853.511	20347
853.645	20385
853.78	20423
853.914	20404
854.048	20381
854.183	20434
854.317	20396
854.451	20590
854.585	20503
854.72	20377
854.854	20461
854.988	20434
855.122	20404
855.256	20202
855.39	20294
855.524	20560
855.658	20484
855.792	20370
855.926	20381
856.06	20366
856.194	20492
856.327	20412
856.461	20309
856.595	20263
856.729	20309
856.862	20450
856.996	20355
857.13	20484
857.263	20419
857.397	20537
857.53	20461
857.664	20332
857.797	20362
857.931	20381
858.064	20412
858.197	20522
858.331	20317
858.464	20271
858.597	20252
858.731	20454
858.864	20442
858.997	20366
859.13	20469
859.263	20408
859.396	20427
859.529	20370
859.662	20393
859.795	20366
859.928	20545
860.061	20450
860.194	20571
860.327	20423
860.46	20503
860.592	20564
860.725	20598
860.858	20625
860.99	20499
861.123	20385
861.256	20351
861.388	20412
861.521	20963
861.653	20286
861.786	20130
861.918	20313
862.05	20339
862.183	20298
862.315	20252
862.447	20332
862.58	20282
862.712	20202
862.844	20107
862.976	20199
863.108	20138
863.24	20667
863.372	20065
863.504	20062
863.636	20065
863.768	20142
863.9	20126
864.032	20180
864.164	20138
864.296	20081
864.428	20195
864.559	20195
864.691	20202
864.823	20187
864.954	20088
865.086	20248
865.217	20081
865.349	20096
865.48	20012
865.612	19928
865.743	20081
865.875	19890
866.006	20077
866.137	19989
866.269	20020
866.4	19845
866.531	19974
866.662	19986
866.793	19837
866.924	19989
867.055	20046
867.186	19841
867.317	19868
867.448	20012
867.579	19936
867.71	19883
867.841	19803
867.972	19864
868.103	19906
868.233	20020
868.364	19890
868.495	20020
868.625	20237
868.756	20328
868.886	20058
869.017	20100
869.147	20267
869.278	20282
869.408	20237
869.539	20206
869.669	20240
869.799	20290
869.929	20313
870.06	20301
870.19	20431
870.32	20537
870.45	20579
870.58	20655
870.71	20750
870.84	20788
870.97	20575
871.1	20518
871.23	20785
871.36	20701
871.489	20754
871.619	20682
871.749	20689
871.879	20861
872.008	20838
872.138	20826
872.267	20921
872.397	20594
872.526	20621
872.656	20655
872.785	20686
872.915	20807
873.044	20895
873.173	20777
873.303	20948
873.432	20731
873.561	20921
873.69	20826
873.819	20853
873.948	20918
874.077	20811
874.206	20796
874.335	20887
874.464	20971
874.593	21024
874.722	21009
874.851	21165
874.979	21070
875.108	21127
875.237	21218
875.365	20952
875.494	21085
875.623	21157
875.751	21081
875.88	21077
876.008	21291
876.136	21222
876.265	21500
876.393	21538
876.521	21431
876.65	21462
876.778	21561
876.906	21310
877.034	21458
877.162	21481
877.29	21439
877.418	21526
877.546	21424
877.674	21439
877.802	21389
877.93	21405
878.058	21462
878.185	21207
878.313	21469
878.441	21401
878.568	21294
878.696	21386
878.824	21428
878.951	21401
879.079	21572
879.206	21724
879.333	21599
879.461	21572
879.588	21500
879.715	21618
879.842	21686
879.97	21485
880.097	21222
880.224	21195
880.351	21374
880.478	21329
880.605	21203
880.732	21260
880.859	21500
880.986	21317
881.112	21321
881.239	21188
881.366	20998
881.493	20933
881.619	20826
881.746	20910
881.872	20853
881.999	20895
882.125	20826
882.252	20872
882.378	20895
882.505	20864
882.631	20796
882.757	20533
882.883	20750
883.01	20545
883.136	20556
883.262	20431
883.388	20332
883.514	20492
883.64	20621
883.766	20507
883.892	20400
884.018	20358
884.143	20526
884.269	20545
884.395	20282
884.52	20168
884.646	20237
884.772	20111
884.897	20122
885.023	20119
885.148	20218
885.274	20343
885.399	20332
885.524	20172
885.65	20248
885.775	20153
885.9	20081
886.025	20290
886.15	20233
886.275	20142
886.4	20115
886.525	20157
886.65	20069
886.775	20100
886.9	20423
887.025	20320
887.149	20180
887.274	20043
887.399	20077
887.523	20035
887.648	19982
887.773	19947
887.897	20054
888.021	19967
888.146	19909
888.27	19993
888.395	20073
888.519	20107
888.643	20024
888.767	19967
888.891	19772
889.015	19765
889.139	19871
889.263	19837
889.387	19856
889.511	19970
889.635	20043
889.759	19769
889.883	19727
890.006	19784
890.13	19845
890.254	19731
890.377	19788
890.501	19559
890.624	19571
890.748	19666
890.871	19464
890.995	19304
891.118	19362
891.241	19419
891.364	19331
891.488	19521
891.611	19373
891.734	19445
891.857	19411
891.98	19441
892.103	19548
892.226	19449
892.349	19358
892.471	19152
892.594	19419
892.717	19396
892.839	19350
892.962	19247
893.085	19316
893.207	19384
893.33	19110
893.452	19266
893.575	19483
893.697	19282
893.819	19540
893.941	19480
894.064	19464
894.186	19259
894.308	19209
894.43	19225
894.552	19464
894.674	19350
894.796	19270
894.918	19285
895.04	19274
895.161	19384
895.283	19388
895.405	19308
895.526	19293
895.648	19464
895.769	19381
895.891	19480
896.012	19430
896.134	19377
896.255	19430
896.376	19441
896.498	19316
896.619	19369
896.74	19411
896.861	19464
896.982	19689
897.103	19799
897.224	19575
897.345	19491
897.466	19483
897.587	19529
897.708	19700
897.828	19540
897.949	19392
898.07	19457
898.19	19540
898.311	19556
898.431	19453
898.552	19521
898.672	19609
898.792	19620
898.913	19529
899.033	19449
899.153	19369
899.273	19255
899.393	19381
899.513	19331
899.633	19304
899.753	19480
899.873	19240
899.993	19293
900.113	19324
900.232	19301
900.352	19221
900.472	19270
900.591	19160
900.711	19065
900.83	19133
900.95	19228
901.069	19270
901.189	18993
901.308	18886
901.427	18730
901.546	18681
901.665	18673
901.784	18646
901.904	18540
902.023	18570
902.141	18448
902.26	18270
902.379	18319
902.498	18178
902.617	18254
902.735	18292
902.854	18254
902.973	18163
903.091	17901
903.21	17996
903.328	17931
903.446	17817
903.565	17699
903.683	17695
903.801	17566
903.919	17676
904.038	17619
904.156	17562
904.274	17646
904.392	17395
904.51	17402
904.627	17459
904.745	17543
904.863	17528
904.981	17299
905.098	17113
905.216	17155
905.334	17311
905.451	17204
905.569	17178
905.686	17239
905.803	17151
905.921	16949
906.038	17086
906.155	17010
906.272	16885
906.389	16930
906.506	16748
906.623	16713
906.74	16816
906.857	16611
906.974	16550
907.091	16900
907.208	16831
907.324	16717
907.441	16649
907.557	16485
907.674	16516
907.79	16424
907.907	16462
908.023	16455
908.139	16440
908.256	16402
908.372	16234
908.488	16261
908.604	16272
908.72	16131
908.836	16207
908.952	16120
909.068	16162
909.184	16265
909.3	16124
909.415	16253
909.531	16188
909.647	15956
909.762	15945
909.878	15880
909.993	15835
910.108	15884
910.224	15808
910.339	15755
910.454	15789
910.57	15701
910.685	15625
910.8	15876
910.915	15911
911.03	15614
911.145	15545
911.259	15530
911.374	15466
911.489	15393
911.604	15351
911.718	15218
911.833	15287
911.947	15226
912.062	15085
912.176	15237
912.291	15283
912.405	15256
912.519	15344
912.633	15420
912.748	15230
912.862	15268
912.976	15119
913.09	14948
913.204	15062
913.318	15123
913.431	15112
913.545	15055
913.659	15161
913.772	15051
913.886	14925
914	14804
914.113	14971
914.226	15013
914.34	14979
914.453	14777
914.566	14914
914.68	14876
914.793	14708
914.906	14594
915.019	14556
915.132	14370
915.245	14545
915.358	14571
915.47	14442
915.583	14541
915.696	14427
915.809	14583
915.921	14583
916.034	14442
916.146	14423
916.259	14457
916.371	14530
916.483	14465
916.595	14275
916.708	14305
916.82	14320
916.932	14332
917.044	14301
917.156	14256
917.268	14164
917.38	14214
917.491	14084
917.603	14157
917.715	14176
917.826	14229
917.938	14119
918.049	13936
918.161	14130
918.272	14305
918.384	14355
918.495	14069
918.606	13993
918.717	13947
918.828	13951
918.939	14092
919.05	13906
919.161	14001
919.272	13784
919.383	13666
919.494	13955
919.604	14225
919.715	13909
919.826	13947
919.936	13875
920.047	14016
920.157	13951
920.267	14088
920.378	13928
920.488	13951
920.598	14088
920.708	14240
920.818	14119
920.928	14065
921.038	14233
921.148	14100
921.258	13871
921.368	13799
921.477	13700
921.587	13597
921.697	13639
921.806	13700
921.916	13529
922.025	13362
922.134	13377
922.244	13304
922.353	13320
922.462	13278
922.571	13076
922.68	12973
922.789	13004
922.898	12905
923.007	12932
923.116	12989
923.224	13008
923.333	12958
923.442	12848
923.55	12795
923.659	12859
923.767	12840
923.876	12817
923.984	12795
924.092	12825
924.201	12814
924.309	12639
924.417	12703
924.525	12662
924.633	12646
924.741	13624
924.849	12433
924.956	12654
925.064	12517
925.172	12361
925.279	12467
925.387	12433
925.494	12414
925.602	12460
925.709	12479
925.816	12304
925.924	12277
926.031	12445
926.138	12422
926.245	12426
926.352	12213
926.459	12426
926.566	12494
926.673	12330
926.779	12194
926.886	12232
926.993	12072
927.099	12019
927.206	12045
927.312	12015
927.419	11961
927.525	12026
927.631	12015
927.737	11897
927.843	11802
927.95	11771
928.056	11790
928.162	11885
928.267	11931
928.373	12555
928.479	11897
928.585	11695
928.69	11824
928.796	11855
928.901	11680
929.007	11604
929.112	11684
929.218	11619
929.323	11505
929.428	11638
929.533	11630
929.638	11493
929.743	11585
929.848	11570
929.953	11490
930.058	11383
930.163	11292
930.267	11269
930.372	11436
930.477	11273
930.581	11505
930.685	11349
930.79	11258
930.894	11208
930.998	11117
931.103	11315
931.207	10934
931.311	10820
931.415	10816
931.519	10584
931.623	10519
