Data from test_V78500241_1362.txt Node
Date: Fri Mar 25 15:19:20 CST 2022
User: usil
Spectrometer: V785-0024
Trigger mode: 0
Integration Time (sec): 4.000000E-1
Scans to average: 1
Nonlinearity correction enabled: false
Boxcar width: 0
Storing dark spectrum: false
XAxis mode: Wavelengths
Number of Pixels in Spectrum: 1024
>>>>>Begin Spectral Data<<<<<
801.071	28154
801.214	28124
801.356	27899
801.499	27861
801.641	27732
801.783	27835
801.926	27800
802.068	27694
802.211	27656
802.353	27564
802.496	27408
802.638	27321
802.78	27268
802.923	27252
803.065	27401
803.208	27405
803.35	27249
803.492	27504
803.635	27500
803.777	27462
803.919	27610
804.061	27850
804.204	27496
804.346	27538
804.488	27447
804.63	27568
804.773	27545
804.915	27644
805.057	27686
805.199	27576
805.341	27557
805.483	27724
805.626	27679
805.768	27625
805.91	27812
806.052	27724
806.194	27739
806.336	27880
806.478	27641
806.62	27720
806.762	27857
806.904	27953
807.046	28401
807.188	28177
807.33	28048
807.472	28078
807.614	28086
807.756	28120
807.898	28128
808.04	27972
808.182	28029
808.324	28120
808.465	28105
808.607	28265
808.749	28424
808.891	28398
809.033	28508
809.174	28557
809.316	28360
809.458	28291
809.6	28398
809.741	28584
809.883	28538
810.025	28615
810.166	28748
810.308	28683
810.45	28599
810.591	28573
810.733	28500
810.875	28401
811.016	28367
811.158	28284
811.299	28360
811.441	28500
811.582	28588
811.724	28253
811.865	28413
812.007	28363
812.148	28310
812.29	28455
812.431	28580
812.573	28771
812.714	28873
812.855	28820
812.997	28995
813.138	29174
813.279	29105
813.421	28873
813.562	29018
813.703	28786
813.845	28489
813.986	28390
814.127	28249
814.268	28242
814.41	27926
814.551	28044
814.692	28067
814.833	28036
814.974	28070
815.115	28154
815.256	27930
815.397	28002
815.539	27873
815.68	27934
815.821	27717
815.962	28029
816.103	27857
816.244	27747
816.385	27633
816.526	27568
816.666	27534
816.807	27351
816.948	27447
817.089	27450
817.23	27397
817.371	27447
817.512	27401
817.653	27435
817.793	27214
817.934	27287
818.075	27401
818.216	27401
818.356	27363
818.497	27332
818.638	27135
818.778	27142
818.919	27203
819.06	27321
819.2	27332
819.341	27374
819.481	27523
819.622	27485
819.762	27793
819.903	27564
820.043	27690
820.184	27545
820.324	27427
820.465	27652
820.605	27519
820.746	27416
820.886	27249
821.026	27443
821.167	27325
821.307	27580
821.447	27439
821.588	27351
821.728	27180
821.868	26952
822.008	26910
822.149	26826
822.289	26788
822.429	26682
822.569	26568
822.709	26476
822.849	26362
822.99	26358
823.13	26286
823.27	26271
823.41	26305
823.55	26077
823.69	26229
823.83	26126
823.97	26195
824.11	25936
824.25	26130
824.389	25974
824.529	26153
824.669	25978
824.809	26115
824.949	26138
825.089	26084
825.228	26005
825.368	25837
825.508	25928
825.648	25909
825.787	25845
825.927	26084
826.067	25875
826.206	25807
826.346	26001
826.485	26043
826.625	25936
826.765	26024
826.904	25845
827.044	25765
827.183	25578
827.323	25537
827.462	25811
827.601	25651
827.741	25651
827.88	25662
828.02	25586
828.159	25544
828.298	25521
828.437	25590
828.577	25613
828.716	25693
828.855	25552
828.994	25225
829.134	25392
829.273	25327
829.412	25244
829.551	25304
829.69	25263
829.829	25270
829.968	25396
830.107	25381
830.246	25365
830.385	25194
830.524	25247
830.663	25164
830.802	25076
830.941	24875
831.08	24924
831.219	25069
831.357	24970
831.496	25251
831.635	24932
831.774	24939
831.913	24840
832.051	24612
832.19	24715
832.329	24814
832.467	24604
832.606	24578
832.744	24490
832.883	24490
833.022	24456
833.16	24536
833.299	24627
833.437	24692
833.576	24673
833.714	24654
833.852	24753
833.991	24745
834.129	24833
834.267	24745
834.406	24639
834.544	24658
834.682	24779
834.821	24566
834.959	24852
835.097	24509
835.235	24570
835.373	24544
835.511	24658
835.65	24551
835.788	24525
835.926	24365
836.064	24361
836.202	24247
836.34	24505
836.478	24623
836.615	24513
836.753	24593
836.891	24483
837.029	24536
837.167	24391
837.305	24448
837.443	24418
837.58	24285
837.718	24433
837.856	24319
837.993	24372
838.131	24426
838.269	24220
838.406	24167
838.544	24232
838.681	24003
838.819	24102
838.956	23733
839.094	23783
839.231	23775
839.369	24022
839.506	24136
839.643	24018
839.781	23878
839.918	23665
840.055	23752
840.193	23866
840.33	23577
840.467	23733
840.604	23745
840.742	23920
840.879	23638
841.016	23733
841.153	23573
841.29	23954
841.427	23722
841.564	23733
841.701	23600
841.838	23570
841.975	23577
842.112	23539
842.249	23630
842.385	23444
842.522	23638
842.659	23577
842.796	23493
842.933	23467
843.069	23349
843.206	23436
843.343	23653
843.479	23444
843.616	23299
843.752	23277
843.889	23231
844.025	23383
844.162	23311
844.298	23208
844.435	23322
844.571	23200
844.708	23303
844.844	23398
844.98	23288
845.117	23315
845.253	23143
845.389	23269
845.525	23079
845.661	23071
845.798	22946
845.934	23064
846.07	23018
846.206	22892
846.342	23083
846.478	22991
846.614	22816
846.75	22717
846.886	22634
847.022	22759
847.158	22713
847.294	22744
847.429	22694
847.565	22755
847.701	22908
847.837	22447
847.972	22295
848.108	22489
848.244	22371
848.379	22363
848.515	22314
848.65	22306
848.786	22234
848.921	22318
849.057	22371
849.192	22329
849.328	22295
849.463	22246
849.598	22200
849.734	22139
849.869	22306
850.004	22040
850.14	22040
850.275	22036
850.41	22002
850.545	21937
850.68	22059
850.815	21975
850.95	22082
851.085	22310
851.22	22226
851.355	22036
851.49	22029
851.625	22017
851.76	21991
851.895	22063
852.03	21915
852.165	21994
852.299	22109
852.434	22169
852.569	22082
852.703	22093
852.838	21975
852.973	22086
853.107	22238
853.242	21876
853.376	21869
853.511	21728
853.645	21907
853.78	21994
853.914	21850
854.048	21816
854.183	21785
854.317	21892
854.451	22040
854.585	21903
854.72	21846
854.854	21876
854.988	21816
855.122	21816
855.256	21770
855.39	21854
855.524	21964
855.658	21922
855.792	21857
855.926	21857
856.06	21899
856.194	21926
856.327	21876
856.461	21789
856.595	21922
856.729	21816
856.862	22002
856.996	21854
857.13	21934
857.263	21956
857.397	21850
857.53	21766
857.664	21880
857.797	22013
857.931	21964
858.064	21930
858.197	21945
858.331	21808
858.464	21857
858.597	21907
858.731	21827
858.864	21968
858.997	21869
859.13	21972
859.263	21991
859.396	21915
859.529	21850
859.662	21808
859.795	21720
859.928	21793
860.061	21972
860.194	22173
860.327	21956
860.46	21831
860.592	21899
860.725	22078
860.858	21960
860.99	21789
861.123	21854
861.256	21808
861.388	21915
861.521	22333
861.653	21690
861.786	21618
861.918	21663
862.05	21705
862.183	21781
862.315	21797
862.447	21873
862.58	21899
862.712	21576
862.844	21637
862.976	21656
863.108	21667
863.24	21945
863.372	21481
863.504	21606
863.636	21549
863.768	21492
863.9	21610
864.032	21481
864.164	21401
864.296	21492
864.428	21701
864.559	21701
864.691	21488
864.823	21648
864.954	21538
865.086	21393
865.217	21408
865.349	21279
865.48	21405
865.612	21500
865.743	21538
865.875	21443
866.006	21405
866.137	21500
866.269	21443
866.4	21450
866.531	21397
866.662	21367
866.793	21283
866.924	21420
867.055	21431
867.186	21424
867.317	21431
867.448	21298
867.579	21393
867.71	21393
867.841	21317
867.972	21367
868.103	21454
868.233	21401
868.364	21382
868.495	21473
868.625	21564
868.756	21751
868.886	21591
869.017	21504
869.147	21698
869.278	21831
869.408	21686
869.539	21705
869.669	21698
869.799	21747
869.929	21709
870.06	21713
870.19	21987
870.32	21918
870.45	21956
870.58	21979
870.71	22143
870.84	22116
870.97	22006
871.1	22025
871.23	22147
871.36	22207
871.489	22086
871.619	22207
871.749	22230
871.879	22090
872.008	22265
872.138	22162
872.267	22219
872.397	22128
872.526	21975
872.656	22032
872.785	22002
872.915	22234
873.044	22272
873.173	22284
873.303	22402
873.432	22234
873.561	22322
873.69	22166
873.819	22238
873.948	22386
874.077	22303
874.206	22185
874.335	22185
874.464	22337
874.593	22508
874.722	22371
874.851	22497
874.979	22527
875.108	22459
875.237	22402
875.365	22379
875.494	22398
875.623	22333
875.751	22375
875.88	22466
876.008	22489
876.136	22622
876.265	22759
876.393	22881
876.521	22881
876.65	22839
876.778	22919
876.906	22710
877.034	22729
877.162	22877
877.29	22675
877.418	22869
877.546	22774
877.674	22930
877.802	22698
877.93	22729
878.058	22805
878.185	22656
878.313	22694
878.441	22824
878.568	22679
878.696	22672
878.824	22801
878.951	22797
879.079	22984
879.206	23022
879.333	22869
879.461	22824
879.588	22961
879.715	23003
879.842	23006
879.97	22786
880.097	22584
880.224	22603
880.351	22774
880.478	22588
880.605	22577
880.732	22630
880.859	22740
880.986	22542
881.112	22603
881.239	22440
881.366	22284
881.493	22158
881.619	22158
881.746	22230
881.872	22101
881.999	22177
882.125	22097
882.252	22154
882.378	22173
882.505	22280
882.631	22002
882.757	21892
882.883	22002
883.01	21819
883.136	21728
883.262	21736
883.388	21762
883.514	21770
883.64	21934
883.766	21781
883.892	21568
884.018	21686
884.143	21770
884.269	21857
884.395	21557
884.52	21557
884.646	21561
884.772	21507
884.897	21310
885.023	21492
885.148	21568
885.274	21591
885.399	21526
885.524	21538
885.65	21447
885.775	21492
885.9	21564
886.025	21629
886.15	21591
886.275	21450
886.4	21382
886.525	21447
886.65	21450
886.775	21412
886.9	21610
887.025	21610
887.149	21466
887.274	21298
887.399	21199
887.523	21260
887.648	21199
887.773	21127
887.897	21252
888.021	21310
888.146	21161
888.27	21408
888.395	21298
888.519	21283
888.643	21260
888.767	21294
888.891	21199
889.015	20975
889.139	21127
889.263	21001
889.387	21135
889.511	21264
889.635	21218
889.759	20998
889.883	21081
890.006	20998
890.13	21188
890.254	21017
890.377	21055
890.501	20887
890.624	20796
890.748	20750
890.871	20625
890.995	20609
891.118	20587
891.241	20552
891.364	20556
891.488	20815
891.611	20648
891.734	20689
891.857	20663
891.98	20636
892.103	20613
892.226	20590
892.349	20583
892.471	20309
892.594	20526
892.717	20663
892.839	20450
892.962	20530
893.085	20590
893.207	20537
893.33	20461
893.452	20419
893.575	20514
893.697	20499
893.819	20594
893.941	20594
894.064	20545
894.186	20530
894.308	20423
894.43	20720
894.552	20720
894.674	20629
894.796	20385
894.918	20533
895.04	20495
895.161	20617
895.283	20587
895.405	20454
895.526	20499
895.648	20389
895.769	20560
895.891	20632
896.012	20556
896.134	20507
896.255	20419
896.376	20457
896.498	20552
896.619	20560
896.74	20507
896.861	20495
896.982	20883
897.103	20963
897.224	20819
897.345	20716
897.466	20754
897.587	20754
897.708	20739
897.828	20754
897.949	20552
898.07	20644
898.19	20629
898.311	20834
898.431	20636
898.552	20765
898.672	20724
898.792	20625
898.913	20792
899.033	20575
899.153	20571
899.273	20461
899.393	20427
899.513	20400
899.633	20434
899.753	20393
899.873	20442
899.993	20457
900.113	20461
900.232	20427
900.352	20469
900.472	20320
900.591	20199
900.711	20199
900.83	20183
900.95	20419
901.069	20202
901.189	20046
901.308	19932
901.427	19704
901.546	19738
901.665	19845
901.784	19807
901.904	19693
902.023	19609
902.141	19411
902.26	19388
902.379	19415
902.498	19259
902.617	19369
902.735	19415
902.854	19213
902.973	19175
903.091	19076
903.21	18985
903.328	19034
903.446	18901
903.565	18776
903.683	18856
903.801	18525
903.919	18703
904.038	18669
904.156	18608
904.274	18639
904.392	18479
904.51	18620
904.627	18536
904.745	18681
904.863	18650
904.981	18232
905.098	18186
905.216	18281
905.334	18262
905.451	18197
905.569	18171
905.686	18186
905.803	18190
905.921	17939
906.038	18117
906.155	17946
906.272	17908
906.389	17980
906.506	17847
906.623	17783
906.74	17710
906.857	17714
906.974	17608
907.091	17764
907.208	17840
907.324	17733
907.441	17665
907.557	17433
907.674	17474
907.79	17455
907.907	17383
908.023	17463
908.139	17516
908.256	17349
908.372	17197
908.488	17395
908.604	17117
908.72	17147
908.836	17124
908.952	17170
909.068	17067
909.184	17296
909.3	17094
909.415	17231
909.531	17273
909.647	16892
909.762	16953
909.878	16850
909.993	16866
910.108	16797
910.224	16854
910.339	16816
910.454	16752
910.57	16679
910.685	16653
910.8	16885
910.915	16752
911.03	16675
911.145	16527
911.259	16573
911.374	16489
911.489	16424
911.604	16299
911.718	16181
911.833	16196
911.947	16059
912.062	16044
912.176	16143
912.291	16169
912.405	16131
912.519	16356
912.633	16348
912.748	16192
912.862	16169
912.976	16025
913.09	16021
913.204	16010
913.318	16086
913.431	16036
913.545	16071
913.659	16147
913.772	16006
913.886	15880
914	15785
914.113	15876
914.226	15941
914.34	15907
914.453	15584
914.566	15869
914.68	15629
914.793	15568
914.906	15393
915.019	15447
915.132	15348
915.245	15310
915.358	15473
915.47	15332
915.583	15416
915.696	15481
915.809	15526
915.921	15450
916.034	15321
916.146	15180
916.259	15237
916.371	15367
916.483	15313
916.595	15298
916.708	15249
916.82	15233
916.932	15207
917.044	15089
917.156	15173
917.268	15070
917.38	15157
917.491	14963
917.603	15089
917.715	15093
917.826	15005
917.938	15001
918.049	14876
918.161	15005
918.272	15081
918.384	15135
918.495	14895
918.606	14754
918.717	14785
918.828	14773
918.939	14849
919.05	14705
919.161	14716
919.272	14568
919.383	14587
919.494	14735
919.604	15013
919.715	14724
919.826	14655
919.936	14785
920.047	14819
920.157	14731
920.267	14925
920.378	14731
920.488	14800
920.598	14994
920.708	15127
920.818	14842
920.928	14887
921.038	15043
921.148	15020
921.258	14686
921.368	14632
921.477	14507
921.587	14518
921.697	14347
921.806	14560
921.916	14313
922.025	14225
922.134	14130
922.244	14035
922.353	14191
922.462	13978
922.571	13928
922.68	13685
922.789	13784
922.898	13761
923.007	13670
923.116	13841
923.224	13746
923.333	13753
923.442	13693
923.55	13609
923.659	13636
923.767	13670
923.876	13510
923.984	13620
924.092	13537
924.201	13590
924.309	13582
924.417	13468
924.525	13438
924.633	13453
924.741	14164
924.849	13232
924.956	13274
925.064	13225
925.172	13175
925.279	13164
925.387	13072
925.494	13206
925.602	13301
925.709	13293
925.816	13107
925.924	13168
926.031	13194
926.138	13099
926.245	13069
926.352	13031
926.459	13202
926.566	13145
926.673	13046
926.779	12916
926.886	12798
926.993	12852
927.099	12734
927.206	12753
927.312	12681
927.419	12757
927.525	12711
927.631	12711
927.737	12700
927.843	12593
927.95	12399
928.056	12483
928.162	12650
928.267	12635
928.373	13209
928.479	12574
928.585	12429
928.69	12403
928.796	12471
928.901	12407
929.007	12281
929.112	12376
929.218	12342
929.323	12232
929.428	12232
929.533	12452
929.638	12205
929.743	12152
929.848	12277
929.953	12209
930.058	12060
930.163	11912
930.267	12022
930.372	12064
930.477	11783
930.581	12197
930.685	11961
930.79	11863
930.894	11786
930.998	11790
931.103	11889
931.207	11668
931.311	11539
931.415	11421
931.519	11261
931.623	11159
