Data from test_V78500241_707.txt Node
Date: Fri Mar 25 15:14:46 CST 2022
User: usil
Spectrometer: V785-0024
Trigger mode: 0
Integration Time (sec): 4.000000E-1
Scans to average: 1
Nonlinearity correction enabled: false
Boxcar width: 0
Storing dark spectrum: false
XAxis mode: Wavelengths
Number of Pixels in Spectrum: 1024
>>>>>Begin Spectral Data<<<<<
801.071	28055
801.214	27895
801.356	27625
801.499	27561
801.641	27595
801.783	27496
801.926	27572
802.068	27492
802.211	27237
802.353	27218
802.496	27249
802.638	27192
802.78	27207
802.923	27180
803.065	27047
803.208	27287
803.35	27089
803.492	27188
803.635	27397
803.777	27306
803.919	27279
804.061	27622
804.204	27363
804.346	27332
804.488	27306
804.63	27298
804.773	27226
804.915	27348
805.057	27485
805.199	27386
805.341	27313
805.483	27416
805.626	27386
805.768	27268
805.91	27481
806.052	27427
806.194	27420
806.336	27622
806.478	27545
806.62	27606
806.762	27553
806.904	27667
807.046	27956
807.188	27800
807.33	27907
807.472	28002
807.614	27846
807.756	27869
807.898	27720
808.04	27732
808.182	27766
808.324	27747
808.465	27728
808.607	27926
808.749	27994
808.891	28181
809.033	28188
809.174	28112
809.316	28051
809.458	28112
809.6	28070
809.741	28401
809.883	28177
810.025	28363
810.166	28432
810.308	28337
810.45	28341
810.591	28436
810.733	28093
810.875	28097
811.016	28002
811.158	28063
811.299	28135
811.441	28268
811.582	28238
811.724	28055
811.865	28143
812.007	28112
812.148	27998
812.29	28234
812.431	28459
812.573	28519
812.714	28599
812.855	28782
812.997	28774
813.138	29022
813.279	28736
813.421	28755
813.562	28599
813.703	28424
813.845	28428
813.986	28067
814.127	28017
814.268	27759
814.41	27762
814.551	27842
814.692	27854
814.833	27934
814.974	27880
815.115	27846
815.256	27564
815.397	27618
815.539	27736
815.68	27751
815.821	27606
815.962	27633
816.103	27599
816.244	27580
816.385	27348
816.526	27401
816.666	27211
816.807	27154
816.948	27154
817.089	27169
817.23	27081
817.371	27116
817.512	27047
817.653	27161
817.793	27127
817.934	27081
818.075	27165
818.216	26998
818.356	27062
818.497	27104
818.638	27043
818.778	26982
818.919	26826
819.06	27070
819.2	27043
819.341	27195
819.481	27142
819.622	27237
819.762	27603
819.903	27397
820.043	27412
820.184	27138
820.324	27161
820.465	27222
820.605	27382
820.746	27268
820.886	27024
821.026	27332
821.167	27165
821.307	27199
821.447	27062
821.588	26982
821.728	26944
821.868	26587
822.008	26632
822.149	26583
822.289	26408
822.429	26446
822.569	26195
822.709	26309
822.849	26180
822.99	26058
823.13	25974
823.27	26130
823.41	25902
823.55	25894
823.69	25837
823.83	25856
823.97	26012
824.11	25753
824.25	25666
824.389	25826
824.529	25799
824.669	25719
824.809	25921
824.949	25986
825.089	25803
825.228	25765
825.368	25422
825.508	25662
825.648	25693
825.787	25746
825.927	25693
826.067	25556
826.206	25639
826.346	25666
826.485	25708
826.625	25575
826.765	25772
826.904	25712
827.044	25278
827.183	25362
827.323	25350
827.462	25369
827.601	25400
827.741	25365
827.88	25373
828.02	25156
828.159	25415
828.298	25400
828.437	25460
828.577	25206
828.716	25460
828.855	25198
828.994	25076
829.134	25046
829.273	25091
829.412	25168
829.551	25091
829.69	25076
829.829	25050
829.968	24989
830.107	25156
830.246	25137
830.385	24947
830.524	24878
830.663	24798
830.802	24779
830.941	24681
831.08	24688
831.219	24757
831.357	24848
831.496	24852
831.635	24627
831.774	24669
831.913	24517
832.051	24445
832.19	24536
832.329	24403
832.467	24407
832.606	24357
832.744	24323
832.883	24334
833.022	24372
833.16	24380
833.299	24346
833.437	24330
833.576	24323
833.714	24407
833.852	24544
833.991	24361
834.129	24521
834.267	24574
834.406	24426
834.544	24471
834.682	24342
834.821	24437
834.959	24555
835.097	24350
835.235	24456
835.373	24262
835.511	24388
835.65	24213
835.788	24327
835.926	24049
836.064	24007
836.202	24213
836.34	24171
836.478	24323
836.615	24235
836.753	24209
836.891	24376
837.029	24243
837.167	24144
837.305	24095
837.443	24174
837.58	24174
837.718	24106
837.856	24041
837.993	24038
838.131	24087
838.269	23874
838.406	23950
838.544	23920
838.681	23657
838.819	23684
838.956	23737
839.094	23562
839.231	23512
839.369	23653
839.506	23904
839.643	23836
839.781	23577
839.918	23516
840.055	23497
840.193	23520
840.33	23512
840.467	23433
840.604	23512
840.742	23680
840.879	23368
841.016	23349
841.153	23376
841.29	23436
841.427	23417
841.564	23452
841.701	23330
841.838	23345
841.975	23239
842.112	23231
842.249	23299
842.385	23124
842.522	23436
842.659	23261
842.796	23117
842.933	23254
843.069	23166
843.206	23208
843.343	23166
843.479	23155
843.616	23113
843.752	23056
843.889	23048
844.025	23094
844.162	22820
844.298	23060
844.435	22908
844.571	22816
844.708	23064
844.844	23109
844.98	23151
845.117	23147
845.253	23090
845.389	22892
845.525	22828
845.661	22862
845.798	22721
845.934	22740
846.07	22729
846.206	22820
846.342	22839
846.478	22637
846.614	22481
846.75	22329
846.886	22382
847.022	22531
847.158	22398
847.294	22512
847.429	22440
847.565	22455
847.701	22592
847.837	22166
847.972	22128
848.108	22173
848.244	22219
848.379	22055
848.515	22158
848.65	22036
848.786	22029
848.921	22010
849.057	22131
849.192	22131
849.328	22013
849.463	21964
849.598	21941
849.734	21865
849.869	21888
850.004	21876
850.14	21797
850.275	21880
850.41	21743
850.545	21797
850.68	21873
850.815	21728
850.95	21857
851.085	21808
851.22	21880
851.355	21941
851.49	21675
851.625	21762
851.76	21781
851.895	21595
852.03	21694
852.165	21873
852.299	21656
852.434	21759
852.569	21930
852.703	21797
852.838	21762
852.973	21945
853.107	21998
853.242	21778
853.376	21686
853.511	21572
853.645	21553
853.78	21663
853.914	21603
854.048	21519
854.183	21610
854.317	21705
854.451	21797
854.585	21599
854.72	21633
854.854	21652
854.988	21599
855.122	21637
855.256	21511
855.39	21515
855.524	21675
855.658	21637
855.792	21671
855.926	21538
856.06	21606
856.194	21675
856.327	21633
856.461	21492
856.595	21545
856.729	21568
856.862	21641
856.996	21618
857.13	21709
857.263	21515
857.397	21656
857.53	21644
857.664	21633
857.797	21629
857.931	21629
858.064	21629
858.197	21679
858.331	21728
858.464	21397
858.597	21458
858.731	21572
858.864	21492
858.997	21515
859.13	21622
859.263	21549
859.396	21660
859.529	21641
859.662	21576
859.795	21576
859.928	21553
860.061	21747
860.194	21785
860.327	21694
860.46	21576
860.592	21694
860.725	21732
860.858	21759
860.99	21625
861.123	21542
861.256	21603
861.388	21736
861.521	22432
861.653	21374
861.786	21401
861.918	21431
862.05	21488
862.183	21660
862.315	21447
862.447	21618
862.58	21405
862.712	21287
862.844	21340
862.976	21351
863.108	21428
863.24	21686
863.372	21173
863.504	21260
863.636	21374
863.768	21393
863.9	21272
864.032	21173
864.164	21367
864.296	21344
864.428	21439
864.559	21481
864.691	21382
864.823	21359
864.954	21237
865.086	21192
865.217	21264
865.349	21135
865.48	21218
865.612	21233
865.743	21260
865.875	21237
866.006	21093
866.137	21116
866.269	21249
866.4	21214
866.531	21131
866.662	21032
866.793	21100
866.924	21112
867.055	21173
867.186	21233
867.317	21093
867.448	20906
867.579	21047
867.71	21055
867.841	21066
867.972	21093
868.103	21108
868.233	21058
868.364	21116
868.495	21142
868.625	21355
868.756	21397
868.886	21207
869.017	21272
869.147	21466
869.278	21481
869.408	21378
869.539	21310
869.669	21507
869.799	21317
869.929	21450
870.06	21526
870.19	21717
870.32	21679
870.45	21728
870.58	21861
870.71	21975
870.84	21743
870.97	21656
871.1	21778
871.23	21831
871.36	21983
871.489	21873
871.619	21926
871.749	21888
871.879	22010
872.008	22128
872.138	22063
872.267	22021
872.397	21884
872.526	21774
872.656	21679
872.785	21766
872.915	21994
873.044	22131
873.173	21960
873.303	22048
873.432	21930
873.561	22044
873.69	21953
873.819	22010
873.948	22105
874.077	21945
874.206	22029
874.335	21907
874.464	22093
874.593	22086
874.722	22082
874.851	22291
874.979	22295
875.108	22303
875.237	22101
875.365	22173
875.494	22211
875.623	22185
875.751	22188
875.88	22341
876.008	22303
876.136	22356
876.265	22607
876.393	22675
876.521	22634
876.65	22691
876.778	22573
876.906	22417
877.034	22622
877.162	22569
877.29	22443
877.418	22691
877.546	22565
877.674	22577
877.802	22523
877.93	22561
878.058	22504
878.185	22363
878.313	22512
878.441	22557
878.568	22337
878.696	22493
878.824	22611
878.951	22550
879.079	22656
879.206	22839
879.333	22611
879.461	22542
879.588	22603
879.715	22641
879.842	22805
879.97	22622
880.097	22322
880.224	22284
880.351	22284
880.478	22409
880.605	22329
880.732	22333
880.859	22615
880.986	22398
881.112	22272
881.239	22173
881.366	22078
881.493	22025
881.619	21930
881.746	21964
881.872	21922
881.999	21991
882.125	21941
882.252	21861
882.378	21895
882.505	21983
882.631	21823
882.757	21739
882.883	21701
883.01	21534
883.136	21511
883.262	21526
883.388	21469
883.514	21606
883.64	21606
883.766	21458
883.892	21450
884.018	21435
884.143	21564
884.269	21507
884.395	21313
884.52	21291
884.646	21374
884.772	21264
884.897	21245
885.023	21245
885.148	21363
885.274	21450
885.399	21428
885.524	21203
885.65	21294
885.775	21260
885.9	21222
886.025	21332
886.15	21203
886.275	21165
886.4	21131
886.525	21157
886.65	21226
886.775	21112
886.9	21325
887.025	21397
887.149	21188
887.274	21104
887.399	21028
887.523	21051
887.648	21024
887.773	20857
887.897	21211
888.021	21013
888.146	20982
888.27	21039
888.395	21093
888.519	21074
888.643	20998
888.767	21013
888.891	20998
889.015	20792
889.139	20887
889.263	20754
889.387	20948
889.511	21047
889.635	20910
889.759	20686
889.883	20826
890.006	20849
890.13	20838
890.254	20773
890.377	20754
890.501	20674
890.624	20507
890.748	20602
890.871	20484
890.995	20374
891.118	20358
891.241	20476
891.364	20351
891.488	20625
891.611	20332
891.734	20446
891.857	20511
891.98	20469
892.103	20385
892.226	20339
892.349	20275
892.471	20252
892.594	20317
892.717	20324
892.839	20298
892.962	20355
893.085	20313
893.207	20271
893.33	20199
893.452	20225
893.575	20301
893.697	20275
893.819	20404
893.941	20503
894.064	20404
894.186	20324
894.308	20172
894.43	20202
894.552	20476
894.674	20362
894.796	20233
894.918	20294
895.04	20168
895.161	20259
895.283	20282
895.405	20256
895.526	20237
895.648	20233
895.769	20377
895.891	20240
896.012	20309
896.134	20237
896.255	20290
896.376	20221
896.498	20339
896.619	20339
896.74	20240
896.861	20225
896.982	20590
897.103	20716
897.224	20526
897.345	20518
897.466	20469
897.587	20469
897.708	20663
897.828	20579
897.949	20518
898.07	20309
898.19	20370
898.311	20644
898.431	20503
898.552	20385
898.672	20549
898.792	20606
898.913	20575
899.033	20366
899.153	20389
899.273	20191
899.393	20225
899.513	20271
899.633	20282
899.753	20286
899.873	20206
899.993	20305
900.113	20229
900.232	20161
900.352	20176
900.472	20027
900.591	19997
900.711	19928
900.83	20020
900.95	20142
901.069	20134
901.189	19906
901.308	19712
901.427	19586
901.546	19575
901.665	19632
901.784	19571
901.904	19582
902.023	19369
902.141	19206
902.26	19137
902.379	19240
902.498	19129
902.617	18947
902.735	19175
902.854	19061
902.973	18966
903.091	18867
903.21	18791
903.328	18779
903.446	18635
903.565	18589
903.683	18627
903.801	18563
903.919	18532
904.038	18559
904.156	18292
904.274	18445
904.392	18422
904.51	18346
904.627	18315
904.745	18418
904.863	18429
904.981	18174
905.098	18106
905.216	18095
905.334	18125
905.451	18045
905.569	17961
905.686	18114
905.803	17954
905.921	17859
906.038	17973
906.155	17904
906.272	17680
906.389	17672
906.506	17566
906.623	17623
906.74	17516
906.857	17478
906.974	17592
907.091	17558
907.208	17581
907.324	17577
907.441	17452
907.557	17280
907.674	17326
907.79	17147
907.907	17299
908.023	17220
908.139	17395
908.256	17197
908.372	17174
908.488	17178
908.604	17003
908.72	16858
908.836	17071
908.952	16881
909.068	16915
909.184	17029
909.3	16965
909.415	17105
909.531	16904
909.647	16740
909.762	16706
909.878	16717
909.993	16637
910.108	16713
910.224	16698
910.339	16630
910.454	16538
910.57	16641
910.685	16405
910.8	16691
910.915	16706
911.03	16432
911.145	16341
911.259	16382
911.374	16421
911.489	16253
911.604	16234
911.718	16036
911.833	16051
911.947	15915
912.062	15857
912.176	16082
912.291	16029
912.405	15998
912.519	16211
912.633	16105
912.748	16067
912.862	15956
912.976	15918
913.09	15747
913.204	15743
913.318	15880
913.431	15892
913.545	15899
913.659	15956
913.772	15747
913.886	15667
914	15564
914.113	15789
914.226	15755
914.34	15747
914.453	15473
914.566	15671
914.68	15591
914.793	15477
914.906	15329
915.019	15283
915.132	15169
915.245	15233
915.358	15161
915.47	15256
915.583	15226
915.696	15367
915.809	15405
915.921	15458
916.034	15249
916.146	15005
916.259	15127
916.371	15249
916.483	15180
916.595	15131
916.708	15013
916.82	15047
916.932	15055
917.044	14998
917.156	14948
917.268	14948
917.38	14899
917.491	14899
917.603	14960
917.715	14971
917.826	14937
917.938	14765
918.049	14781
918.161	14845
918.272	14929
918.384	14914
918.495	14891
918.606	14613
918.717	14507
918.828	14750
918.939	14682
919.05	14552
919.161	14617
919.272	14404
919.383	14507
919.494	14621
919.604	14724
919.715	14629
919.826	14602
919.936	14564
920.047	14640
920.157	14632
920.267	14769
920.378	14686
920.488	14408
920.598	14815
920.708	14868
920.818	14762
920.928	14773
921.038	14845
921.148	14902
921.258	14552
921.368	14484
921.477	14457
921.587	14358
921.697	14240
921.806	14320
921.916	14157
922.025	14005
922.134	13970
922.244	13978
922.353	14084
922.462	13860
922.571	13795
922.68	13628
922.789	13628
922.898	13681
923.007	13575
923.116	13715
923.224	13662
923.333	13571
923.442	13426
923.55	13381
923.659	13487
923.767	13506
923.876	13362
923.984	13514
924.092	13346
924.201	13422
924.309	13331
924.417	13362
924.525	13304
924.633	13316
924.741	13978
924.849	13065
924.956	13221
925.064	13057
925.172	12939
925.279	13031
925.387	13091
925.494	13149
925.602	13145
925.709	13137
925.816	12962
925.924	12920
926.031	13107
926.138	12981
926.245	13084
926.352	12943
926.459	13008
926.566	13091
926.673	12943
926.779	12791
926.886	12829
926.993	12707
927.099	12631
927.206	12563
927.312	12509
927.419	12585
927.525	12604
927.631	12642
927.737	12555
927.843	12433
927.95	12391
928.056	12403
928.162	12456
928.267	12437
928.373	13076
928.479	12464
928.585	12228
928.69	12517
928.796	12445
928.901	12251
929.007	12190
929.112	12258
929.218	12342
929.323	12167
929.428	12095
929.533	12315
929.638	12072
929.743	12129
929.848	12095
929.953	12144
930.058	11973
930.163	11824
930.267	11836
930.372	11969
930.477	11805
930.581	12060
930.685	11931
930.79	11653
930.894	11779
930.998	11733
931.103	11832
931.207	11455
931.311	11337
931.415	11360
931.519	11075
931.623	11102
