Data from test_V78500241_2596.txt Node
Date: Fri Mar 25 15:27:56 CST 2022
User: usil
Spectrometer: V785-0024
Trigger mode: 0
Integration Time (sec): 4.000000E-1
Scans to average: 1
Nonlinearity correction enabled: false
Boxcar width: 0
Storing dark spectrum: false
XAxis mode: Wavelengths
Number of Pixels in Spectrum: 1024
>>>>>Begin Spectral Data<<<<<
801.071	27188
801.214	27150
801.356	26895
801.499	26906
801.641	26678
801.783	26804
801.926	26849
802.068	26560
802.211	26632
802.353	26674
802.496	26358
802.638	26309
802.78	26438
802.923	26252
803.065	26237
803.208	26263
803.35	26256
803.492	26362
803.635	26552
803.777	26355
803.919	26526
804.061	26785
804.204	26530
804.346	26446
804.488	26358
804.63	26480
804.773	26434
804.915	26480
805.057	26606
805.199	26423
805.341	26537
805.483	26583
805.626	26609
805.768	26518
805.91	26651
806.052	26629
806.194	26594
806.336	26701
806.478	26693
806.62	26560
806.762	26682
806.904	26845
807.046	27005
807.188	27058
807.33	26948
807.472	27020
807.614	26921
807.756	27009
807.898	26823
808.04	26788
808.182	26876
808.324	26864
808.465	26792
808.607	27032
808.749	27218
808.891	27245
809.033	27321
809.174	27169
809.316	27188
809.458	27119
809.6	27165
809.741	27321
809.883	27397
810.025	27530
810.166	27374
810.308	27488
810.45	27408
810.591	27302
810.733	27074
810.875	27043
811.016	27127
811.158	27173
811.299	27348
811.441	27420
811.582	27401
811.724	27222
811.865	27112
812.007	27093
812.148	27165
812.29	27176
812.431	27374
812.573	27378
812.714	27439
812.855	27614
812.997	27736
813.138	27842
813.279	27854
813.421	27515
813.562	27587
813.703	27386
813.845	27294
813.986	27112
814.127	26982
814.268	26838
814.41	26758
814.551	26773
814.692	26796
814.833	26667
814.974	26868
815.115	26990
815.256	26773
815.397	26712
815.539	26743
815.68	26560
815.821	26621
815.962	26621
816.103	26522
816.244	26461
816.385	26343
816.526	26362
816.666	26229
816.807	25913
816.948	26115
817.089	26275
817.23	26069
817.371	26180
817.512	26050
817.653	26142
817.793	25868
817.934	26069
818.075	26084
818.216	26107
818.356	26126
818.497	25993
818.638	25799
818.778	25849
818.919	25780
819.06	25909
819.2	25845
819.341	26058
819.481	26183
819.622	26233
819.762	26476
819.903	26370
820.043	26362
820.184	26225
820.324	26111
820.465	26263
820.605	26191
820.746	25951
820.886	25959
821.026	26286
821.167	26016
821.307	26267
821.447	26199
821.588	26069
821.728	25982
821.868	25704
822.008	25624
822.149	25582
822.289	25525
822.429	25244
822.569	25202
822.709	25148
822.849	25114
822.99	25069
823.13	25137
823.27	25061
823.41	24886
823.55	24745
823.69	24856
823.83	24817
823.97	24806
824.11	24703
824.25	24612
824.389	24871
824.529	24734
824.669	24776
824.809	24920
824.949	24867
825.089	24791
825.228	24760
825.368	24593
825.508	24551
825.648	24593
825.787	24597
825.927	24528
826.067	24517
826.206	24563
826.346	24707
826.485	24711
826.625	24578
826.765	24711
826.904	24730
827.044	24311
827.183	24410
827.323	24296
827.462	24235
827.601	24178
827.741	24239
827.88	24323
828.02	24270
828.159	24311
828.298	24277
828.437	24258
828.577	24251
828.716	24403
828.855	24163
828.994	24041
829.134	23927
829.273	24011
829.412	24095
829.551	23870
829.69	23961
829.829	24003
829.968	24076
830.107	23946
830.246	23992
830.385	23908
830.524	23882
830.663	23843
830.802	23790
830.941	23627
831.08	23604
831.219	23638
831.357	23672
831.496	23916
831.635	23691
831.774	23703
831.913	23600
832.051	23448
832.19	23387
832.329	23406
832.467	23242
832.606	23239
832.744	23265
832.883	23349
833.022	23185
833.16	23341
833.299	23258
833.437	23463
833.576	23318
833.714	23376
833.852	23509
833.991	23509
834.129	23433
834.267	23516
834.406	23421
834.544	23448
834.682	23455
834.821	23307
834.959	23516
835.097	23318
835.235	23318
835.373	23296
835.511	23345
835.65	23212
835.788	23277
835.926	22953
836.064	23044
836.202	23014
836.34	23170
836.478	23330
836.615	23223
836.753	23162
836.891	23368
837.029	23273
837.167	23132
837.305	23124
837.443	23178
837.58	23086
837.718	23155
837.856	23102
837.993	23044
838.131	23064
838.269	22942
838.406	22942
838.544	22828
838.681	22835
838.819	22630
838.956	22615
839.094	22577
839.231	22672
839.369	22729
839.506	22930
839.643	22660
839.781	22618
839.918	22554
840.055	22474
840.193	22470
840.33	22603
840.467	22599
840.604	22523
840.742	22831
840.879	22360
841.016	22455
841.153	22474
841.29	22542
841.427	22474
841.564	22542
841.701	22565
841.838	22402
841.975	22337
842.112	22466
842.249	22371
842.385	22379
842.522	22584
842.659	22443
842.796	22223
842.933	22276
843.069	22192
843.206	22051
843.343	22367
843.479	22211
843.616	22242
843.752	22059
843.889	22006
844.025	22120
844.162	21956
844.298	22143
844.435	22048
844.571	22048
844.708	21907
844.844	22226
844.98	22124
845.117	22097
845.253	21934
845.389	21956
845.525	21899
845.661	21918
845.798	21789
845.934	21831
846.07	21846
846.206	21755
846.342	21907
846.478	21698
846.614	21606
846.75	21359
846.886	21473
847.022	21709
847.158	21583
847.294	21523
847.429	21530
847.565	21511
847.701	21759
847.837	21313
847.972	21176
848.108	21374
848.244	21226
848.379	21047
848.515	21017
848.65	20994
848.786	21074
848.921	21104
849.057	21230
849.192	21211
849.328	21131
849.463	21081
849.598	21043
849.734	20937
849.869	20883
850.004	20765
850.14	20899
850.275	20925
850.41	20712
850.545	20743
850.68	20933
850.815	20849
850.95	20826
851.085	21036
851.22	20914
851.355	20758
851.49	20804
851.625	20811
851.76	20769
851.895	20872
852.03	20838
852.165	20971
852.299	20887
852.434	20967
852.569	20937
852.703	20902
852.838	20925
852.973	21028
853.107	21077
853.242	20697
853.376	20663
853.511	20583
853.645	20678
853.78	20807
853.914	20678
854.048	20598
854.183	20701
854.317	20727
854.451	20838
854.585	20674
854.72	20648
854.854	20830
854.988	20587
855.122	20765
855.256	20549
855.39	20648
855.524	20735
855.658	20663
855.792	20644
855.926	20781
856.06	20659
856.194	20815
856.327	20621
856.461	20617
856.595	20708
856.729	20655
856.862	20731
856.996	20659
857.13	20712
857.263	20925
857.397	20883
857.53	20686
857.664	20739
857.797	20712
857.931	20868
858.064	20769
858.197	20762
858.331	20625
858.464	20682
858.597	20598
858.731	20575
858.864	20655
858.997	20579
859.13	20716
859.263	20651
859.396	20739
859.529	20754
859.662	20549
859.795	20579
859.928	20640
860.061	20773
860.194	20853
860.327	20667
860.46	20632
860.592	20895
860.725	20853
860.858	20887
860.99	20724
861.123	20731
861.256	20583
861.388	20568
861.521	21256
861.653	20583
861.786	20393
861.918	20552
862.05	20583
862.183	20621
862.315	20621
862.447	20785
862.58	20648
862.712	20412
862.844	20385
862.976	20541
863.108	20564
863.24	20781
863.372	20309
863.504	20514
863.636	20415
863.768	20355
863.9	20415
864.032	20347
864.164	20229
864.296	20469
864.428	20537
864.559	20431
864.691	20355
864.823	20347
864.954	20423
865.086	20419
865.217	20358
865.349	20214
865.48	20377
865.612	20294
865.743	20541
865.875	20164
866.006	20271
866.137	20317
866.269	20229
866.4	20240
866.531	20256
866.662	20229
866.793	20202
866.924	20180
867.055	20408
867.186	20233
867.317	20149
867.448	20161
867.579	20187
867.71	20054
867.841	20100
867.972	20248
868.103	20225
868.233	20267
868.364	20263
868.495	20374
868.625	20374
868.756	20606
868.886	20484
869.017	20522
869.147	20507
869.278	20625
869.408	20518
869.539	20454
869.669	20564
869.799	20503
869.929	20579
870.06	20541
870.19	20781
870.32	20788
870.45	20845
870.58	20960
870.71	21036
870.84	20960
870.97	20933
871.1	20876
871.23	20975
871.36	21260
871.489	21028
871.619	20986
871.749	21096
871.879	21070
872.008	21222
872.138	21142
872.267	21043
872.397	21051
872.526	20994
872.656	20868
872.785	20921
872.915	21165
873.044	21131
873.173	21032
873.303	21157
873.432	21256
873.561	21264
873.69	21127
873.819	21127
873.948	21283
874.077	21165
874.206	20975
874.335	21043
874.464	21161
874.593	21435
874.722	21260
874.851	21332
874.979	21477
875.108	21443
875.237	21302
875.365	21214
875.494	21355
875.623	21462
875.751	21260
875.88	21310
876.008	21519
876.136	21500
876.265	21751
876.393	21819
876.521	21835
876.65	21835
876.778	21823
876.906	21713
877.034	21694
877.162	21728
877.29	21739
877.418	21648
877.546	21724
877.674	21739
877.802	21652
877.93	21671
878.058	21633
878.185	21648
878.313	21641
878.441	21804
878.568	21462
878.696	21682
878.824	21720
878.951	21835
879.079	21838
879.206	22010
879.333	21892
879.461	21618
879.588	21679
879.715	21808
879.842	21937
879.97	21679
880.097	21557
880.224	21488
880.351	21622
880.478	21466
880.605	21412
880.732	21374
880.859	21698
880.986	21564
881.112	21526
881.239	21439
881.366	21321
881.493	21245
881.619	21150
881.746	21146
881.872	21104
881.999	21055
882.125	21001
882.252	21142
882.378	21100
882.505	21230
882.631	20891
882.757	20842
882.883	20910
883.01	20864
883.136	20781
883.262	20560
883.388	20636
883.514	20868
883.64	20899
883.766	20686
883.892	20712
884.018	20682
884.143	20800
884.269	20785
884.395	20541
884.52	20339
884.646	20495
884.772	20374
884.897	20423
885.023	20507
885.148	20606
885.274	20667
885.399	20511
885.524	20522
885.65	20400
885.775	20396
885.9	20389
886.025	20549
886.15	20549
886.275	20419
886.4	20271
886.525	20408
886.65	20347
886.775	20233
886.9	20503
887.025	20583
887.149	20412
887.274	20240
887.399	20377
887.523	20271
887.648	20122
887.773	20073
887.897	20290
888.021	20336
888.146	20153
888.27	20278
888.395	20309
888.519	20191
888.643	20282
888.767	20351
888.891	20134
889.015	19993
889.139	20077
889.263	20096
889.387	20271
889.511	20286
889.635	20176
889.759	20119
889.883	20077
890.006	20092
890.13	20202
890.254	20035
890.377	19986
890.501	19750
890.624	19833
890.748	19906
890.871	19715
890.995	19483
891.118	19597
891.241	19601
891.364	19632
891.488	19635
891.611	19635
891.734	19601
891.857	19582
891.98	19677
892.103	19734
892.226	19620
892.349	19499
892.471	19480
892.594	19635
892.717	19537
892.839	19422
892.962	19518
893.085	19620
893.207	19597
893.33	19449
893.452	19377
893.575	19544
893.697	19449
893.819	19715
893.941	19841
894.064	19719
894.186	19464
894.308	19426
894.43	19521
894.552	19689
894.674	19635
894.796	19426
894.918	19430
895.04	19457
895.161	19624
895.283	19704
895.405	19529
895.526	19472
895.648	19552
895.769	19552
895.891	19567
896.012	19556
896.134	19662
896.255	19582
896.376	19559
896.498	19647
896.619	19635
896.74	19540
896.861	19590
896.982	19875
897.103	19993
897.224	19951
897.345	19769
897.466	19769
897.587	19761
897.708	19864
897.828	19803
897.949	19635
898.07	19533
898.19	19765
898.311	19791
898.431	19727
898.552	19757
898.672	19795
898.792	19860
898.913	19708
899.033	19655
899.153	19651
899.273	19533
899.393	19518
899.513	19594
899.633	19445
899.753	19529
899.873	19552
899.993	19468
900.113	19369
900.232	19510
900.352	19377
900.472	19434
900.591	19270
900.711	19324
900.83	19255
900.95	19457
901.069	19388
901.189	19187
901.308	19019
901.427	18875
901.546	18928
901.665	18932
901.784	18901
901.904	18795
902.023	18631
902.141	18525
902.26	18483
902.379	18521
902.498	18414
902.617	18365
902.735	18395
902.854	18380
902.973	18330
903.091	18125
903.21	18060
903.328	18095
903.446	17973
903.565	17920
903.683	17832
903.801	17832
903.919	17893
904.038	17878
904.156	17680
904.274	17794
904.392	17676
904.51	17634
904.627	17684
904.745	17710
904.863	17691
904.981	17543
905.098	17349
905.216	17315
905.334	17299
905.451	17292
905.569	17349
905.686	17417
905.803	17455
905.921	17060
906.038	17273
906.155	17098
906.272	17003
906.389	17086
906.506	16930
906.623	16858
906.74	16938
906.857	16736
906.974	16786
907.091	16839
907.208	16953
907.324	16900
907.441	16835
907.557	16668
907.674	16592
907.79	16653
907.907	16645
908.023	16531
908.139	16645
908.256	16622
908.372	16634
908.488	16580
908.604	16204
908.72	16287
908.836	16375
908.952	16303
909.068	16356
909.184	16478
909.3	16325
909.415	16303
909.531	16360
909.647	16116
909.762	16074
909.878	16059
909.993	16101
910.108	16067
910.224	15983
910.339	16101
910.454	15869
910.57	15915
910.685	15808
910.8	16185
910.915	16002
911.03	15918
911.145	15789
911.259	15667
911.374	15679
911.489	15652
911.604	15530
911.718	15507
911.833	15477
911.947	15374
912.062	15393
912.176	15473
912.291	15584
912.405	15488
912.519	15587
912.633	15720
912.748	15500
912.862	15401
912.976	15283
913.09	15093
913.204	15249
913.318	15252
913.431	15317
913.545	15310
913.659	15306
913.772	15199
913.886	15066
914	14941
914.113	15138
914.226	15047
914.34	15032
914.453	14979
914.566	15039
914.68	14952
914.793	14887
914.906	14781
915.019	14689
915.132	14552
915.245	14648
915.358	14743
915.47	14644
915.583	14590
915.696	14724
915.809	14693
915.921	14804
916.034	14571
916.146	14629
916.259	14583
916.371	14674
916.483	14579
916.595	14446
916.708	14511
916.82	14473
916.932	14400
917.044	14381
917.156	14488
917.268	14305
917.38	14332
917.491	14305
917.603	14294
917.715	14347
917.826	14450
917.938	14263
918.049	14191
918.161	14336
918.272	14370
918.384	14423
918.495	14282
918.606	14119
918.717	14043
918.828	14138
918.939	14069
919.05	14027
919.161	14031
919.272	13875
919.383	13940
919.494	14172
919.604	14233
919.715	14054
919.826	14005
919.936	14084
920.047	14035
920.157	14157
920.267	14187
920.378	14035
920.488	14016
920.598	14233
920.708	14370
920.818	14218
920.928	14210
921.038	14328
921.148	14313
921.258	14081
921.368	14031
921.477	13837
921.587	13734
921.697	13674
921.806	13833
921.916	13609
922.025	13556
922.134	13540
922.244	13571
922.353	13499
922.462	13278
922.571	13358
922.68	13103
922.789	13122
922.898	13175
923.007	13080
923.116	13194
923.224	13095
923.333	13088
923.442	13012
923.55	12928
923.659	12993
923.767	13091
923.876	12875
923.984	12996
924.092	12810
924.201	12913
924.309	12932
924.417	12859
924.525	12837
924.633	12814
924.741	13769
924.849	12654
924.956	12852
925.064	12593
925.172	12532
925.279	12585
925.387	12574
925.494	12525
925.602	12722
925.709	12566
925.816	12486
925.924	12513
926.031	12620
926.138	12532
926.245	12578
926.352	12517
926.459	12547
926.566	12559
926.673	12483
926.779	12353
926.886	12350
926.993	12243
927.099	12228
927.206	12167
927.312	12133
927.419	12251
927.525	12194
927.631	12205
927.737	12022
927.843	11950
927.95	11885
928.056	11946
928.162	11973
928.267	12034
928.373	12551
928.479	12095
928.585	11843
928.69	12038
928.796	12030
928.901	11832
929.007	11699
929.112	11847
929.218	11954
929.323	11703
929.428	11733
929.533	11821
929.638	11729
929.743	11642
929.848	11722
929.953	11665
930.058	11589
930.163	11459
930.267	11512
930.372	11577
930.477	11444
930.581	11630
930.685	11467
930.79	11277
930.894	11356
930.998	11212
931.103	11383
931.207	11124
931.311	11006
931.415	10896
931.519	10744
931.623	10733
