Data from test_V78500241_1260.txt Node
Date: Fri Mar 25 15:18:37 CST 2022
User: usil
Spectrometer: V785-0024
Trigger mode: 0
Integration Time (sec): 4.000000E-1
Scans to average: 1
Nonlinearity correction enabled: false
Boxcar width: 0
Storing dark spectrum: false
XAxis mode: Wavelengths
Number of Pixels in Spectrum: 1024
>>>>>Begin Spectral Data<<<<<
801.071	28086
801.214	27846
801.356	27644
801.499	27686
801.641	27481
801.783	27492
801.926	27545
802.068	27477
802.211	27450
802.353	27420
802.496	27233
802.638	27184
802.78	27192
802.923	27157
803.065	27104
803.208	27245
803.35	27188
803.492	27195
803.635	27329
803.777	27313
803.919	27355
804.061	27755
804.204	27416
804.346	27370
804.488	27427
804.63	27348
804.773	27310
804.915	27462
805.057	27340
805.199	27393
805.341	27515
805.483	27526
805.626	27477
805.768	27424
805.91	27572
806.052	27511
806.194	27378
806.336	27785
806.478	27587
806.62	27492
806.762	27671
806.904	27762
807.046	28013
807.188	27968
807.33	27930
807.472	27975
807.614	27949
807.756	27884
807.898	27789
808.04	27804
808.182	27861
808.324	27846
808.465	27838
808.607	28055
808.749	28143
808.891	28322
809.033	28215
809.174	28204
809.316	28067
809.458	28139
809.6	28105
809.741	28314
809.883	28348
810.025	28504
810.166	28497
810.308	28478
810.45	28360
810.591	28352
810.733	28249
810.875	28070
811.016	28223
811.158	28021
811.299	28329
811.441	28280
811.582	28249
811.724	28223
811.865	28124
812.007	28143
812.148	28154
812.29	28109
812.431	28352
812.573	28535
812.714	28615
812.855	28641
812.997	28854
813.138	28930
813.279	28755
813.421	28854
813.562	28675
813.703	28580
813.845	28504
813.986	28097
814.127	28025
814.268	27964
814.41	27876
814.551	27800
814.692	27956
814.833	27838
814.974	27774
815.115	27876
815.256	27675
815.397	27644
815.539	27797
815.68	27804
815.821	27629
815.962	27713
816.103	27606
816.244	27515
816.385	27507
816.526	27519
816.666	27317
816.807	27176
816.948	27291
817.089	27264
817.23	27154
817.371	27233
817.512	27184
817.653	27199
817.793	27233
817.934	27249
818.075	27192
818.216	27222
818.356	27112
818.497	27047
818.638	26891
818.778	26902
818.919	26940
819.06	27020
819.2	27100
819.341	27119
819.481	27131
819.622	27135
819.762	27576
819.903	27469
820.043	27317
820.184	27355
820.324	27279
820.465	27424
820.605	27279
820.746	27226
820.886	27142
821.026	27214
821.167	27272
821.307	27329
821.447	27226
821.588	27089
821.728	27024
821.868	26845
822.008	26792
822.149	26686
822.289	26613
822.429	26320
822.569	26393
822.709	26301
822.849	26237
822.99	26111
823.13	26187
823.27	26008
823.41	26035
823.55	25852
823.69	25986
823.83	26027
823.97	25879
824.11	25909
824.25	25704
824.389	25746
824.529	25921
824.669	25837
824.809	25909
824.949	25997
825.089	25879
825.228	26035
825.368	25666
825.508	25609
825.648	25529
825.787	25719
825.927	25689
826.067	25700
826.206	25761
826.346	25677
826.485	25746
826.625	25639
826.765	25693
826.904	25647
827.044	25392
827.183	25400
827.323	25384
827.462	25563
827.601	25396
827.741	25502
827.88	25392
828.02	25460
828.159	25453
828.298	25365
828.437	25464
828.577	25221
828.716	25483
828.855	25308
828.994	25076
829.134	25148
829.273	25103
829.412	24947
829.551	25046
829.69	25179
829.829	25266
829.968	25168
830.107	25122
830.246	25088
830.385	24878
830.524	24935
830.663	24928
830.802	24871
830.941	24639
831.08	24536
831.219	24677
831.357	24886
831.496	24852
831.635	24703
831.774	24486
831.913	24623
832.051	24464
832.19	24604
832.329	24346
832.467	24433
832.606	24475
832.744	24426
832.883	24464
833.022	24311
833.16	24426
833.299	24460
833.437	24342
833.576	24414
833.714	24388
833.852	24574
833.991	24551
834.129	24540
834.267	24582
834.406	24460
834.544	24597
834.682	24521
834.821	24498
834.959	24540
835.097	24399
835.235	24551
835.373	24441
835.511	24486
835.65	24342
835.788	24395
835.926	24087
836.064	24171
836.202	24155
836.34	24266
836.478	24304
836.615	24285
836.753	24330
836.891	24426
837.029	24388
837.167	24205
837.305	24232
837.443	24079
837.58	24148
837.718	24239
837.856	24091
837.993	24018
838.131	24049
838.269	23977
838.406	24087
838.544	23893
838.681	23699
838.819	23836
838.956	23573
839.094	23638
839.231	23630
839.369	23649
839.506	23984
839.643	23840
839.781	23592
839.918	23589
840.055	23615
840.193	23558
840.33	23558
840.467	23558
840.604	23589
840.742	23874
840.879	23326
841.016	23410
841.153	23398
841.29	23596
841.427	23505
841.564	23531
841.701	23497
841.838	23429
841.975	23516
842.112	23318
842.249	23277
842.385	23159
842.522	23490
842.659	23299
842.796	23162
842.933	23208
843.069	23212
843.206	23242
843.343	23360
843.479	23269
843.616	23395
843.752	23162
843.889	23010
844.025	23231
844.162	23033
844.298	23151
844.435	23185
844.571	23041
844.708	23064
844.844	23166
844.98	23212
845.117	23288
845.253	23006
845.389	23029
845.525	22923
845.661	22995
845.798	22828
845.934	22843
846.07	22877
846.206	22801
846.342	22995
846.478	22835
846.614	22523
846.75	22474
846.886	22550
847.022	22752
847.158	22557
847.294	22523
847.429	22497
847.565	22557
847.701	22725
847.837	22402
847.972	22310
848.108	22337
848.244	22329
848.379	22234
848.515	22139
848.65	22051
848.786	22147
848.921	22223
849.057	22135
849.192	22280
849.328	22173
849.463	22226
849.598	22150
849.734	22025
849.869	21960
850.004	21804
850.14	21934
850.275	21934
850.41	21842
850.545	21831
850.68	21949
850.815	21956
850.95	21983
851.085	22044
851.22	22044
851.355	21869
851.49	21835
851.625	21842
851.76	21835
851.895	21876
852.03	21732
852.165	21808
852.299	21838
852.434	21937
852.569	21907
852.703	21903
852.838	21956
852.973	22055
853.107	22006
853.242	21778
853.376	21854
853.511	21542
853.645	21637
853.78	21846
853.914	21652
854.048	21713
854.183	21736
854.317	21785
854.451	21838
854.585	21625
854.72	21724
854.854	21686
854.988	21720
855.122	21694
855.256	21545
855.39	21644
855.524	21747
855.658	21698
855.792	21663
855.926	21732
856.06	21728
856.194	21785
856.327	21644
856.461	21625
856.595	21694
856.729	21644
856.862	21823
856.996	21751
857.13	21789
857.263	21686
857.397	21861
857.53	21698
857.664	21736
857.797	21705
857.931	21880
858.064	21743
858.197	21774
858.331	21838
858.464	21576
858.597	21504
858.731	21618
858.864	21667
858.997	21679
859.13	21717
859.263	21705
859.396	21793
859.529	21679
859.662	21557
859.795	21614
859.928	21564
860.061	21846
860.194	21865
860.327	21698
860.46	21625
860.592	21743
860.725	21876
860.858	21892
860.99	21724
861.123	21698
861.256	21580
861.388	21557
861.521	22303
861.653	21542
861.786	21603
861.918	21587
862.05	21591
862.183	21724
862.315	21686
862.447	21755
862.58	21610
862.712	21439
862.844	21450
862.976	21595
863.108	21481
863.24	21876
863.372	21294
863.504	21424
863.636	21515
863.768	21393
863.9	21386
864.032	21313
864.164	21336
864.296	21382
864.428	21473
864.559	21473
864.691	21519
864.823	21405
864.954	21378
865.086	21481
865.217	21393
865.349	21252
865.48	21306
865.612	21351
865.743	21408
865.875	21268
866.006	21291
866.137	21256
866.269	21317
866.4	21336
866.531	21176
866.662	21252
866.793	21199
866.924	21195
867.055	21214
867.186	21294
867.317	21173
867.448	21108
867.579	21157
867.71	21108
867.841	21066
867.972	21077
868.103	21154
868.233	21214
868.364	21150
868.495	21458
868.625	21538
868.756	21443
868.886	21469
869.017	21450
869.147	21530
869.278	21564
869.408	21492
869.539	21507
869.669	21530
869.799	21496
869.929	21549
870.06	21580
870.19	21728
870.32	21751
870.45	21751
870.58	21842
870.71	21998
870.84	21991
870.97	21876
871.1	21857
871.23	22093
871.36	22040
871.489	21922
871.619	21945
871.749	22070
871.879	22017
872.008	22147
872.138	22067
872.267	22169
872.397	22044
872.526	21846
872.656	21960
872.785	21960
872.915	22074
873.044	22128
873.173	22078
873.303	22154
873.432	22048
873.561	22192
873.69	22120
873.819	22090
873.948	22090
874.077	22139
874.206	22029
874.335	22063
874.464	22101
874.593	22371
874.722	22177
874.851	22322
874.979	22360
875.108	22268
875.237	22246
875.365	22291
875.494	22207
875.623	22337
875.751	22356
875.88	22348
876.008	22295
876.136	22455
876.265	22698
876.393	22968
876.521	22778
876.65	22752
876.778	22713
876.906	22493
877.034	22592
877.162	22592
877.29	22523
877.418	22630
877.546	22664
877.674	22580
877.802	22523
877.93	22713
878.058	22565
878.185	22440
878.313	22603
878.441	22580
878.568	22398
878.696	22523
878.824	22698
878.951	22660
879.079	22904
879.206	22896
879.333	22824
879.461	22618
879.588	22687
879.715	22725
879.842	22820
879.97	22569
880.097	22451
880.224	22462
880.351	22554
880.478	22367
880.605	22432
880.732	22428
880.859	22622
880.986	22417
881.112	22455
881.239	22367
881.366	22280
881.493	22219
881.619	21949
881.746	22166
881.872	21953
881.999	21941
882.125	21983
882.252	22078
882.378	21972
882.505	22090
882.631	21918
882.757	21663
882.883	21789
883.01	21739
883.136	21709
883.262	21504
883.388	21576
883.514	21679
883.64	21671
883.766	21587
883.892	21530
884.018	21595
884.143	21606
884.269	21728
884.395	21530
884.52	21344
884.646	21439
884.772	21351
884.897	21279
885.023	21416
885.148	21355
885.274	21572
885.399	21542
885.524	21420
885.65	21302
885.775	21405
885.9	21317
886.025	21564
886.15	21553
886.275	21321
886.4	21245
886.525	21317
886.65	21336
886.775	21241
886.9	21462
887.025	21549
887.149	21321
887.274	21135
887.399	21108
887.523	21230
887.648	21112
887.773	21036
887.897	21127
888.021	21207
888.146	21077
888.27	21135
888.395	21192
888.519	21180
888.643	21165
888.767	21116
888.891	21039
889.015	20952
889.139	20910
889.263	20849
889.387	21024
889.511	21039
889.635	21108
889.759	20941
889.883	20826
890.006	20746
890.13	20982
890.254	20967
890.377	20891
890.501	20640
890.624	20583
890.748	20705
890.871	20655
890.995	20370
891.118	20465
891.241	20533
891.364	20423
891.488	20454
891.611	20583
891.734	20431
891.857	20556
891.98	20393
892.103	20648
892.226	20446
892.349	20457
892.471	20199
892.594	20355
892.717	20385
892.839	20412
892.962	20442
893.085	20423
893.207	20461
893.33	20233
893.452	20336
893.575	20442
893.697	20412
893.819	20556
893.941	20522
894.064	20488
894.186	20400
894.308	20263
894.43	20454
894.552	20533
894.674	20484
894.796	20362
894.918	20347
895.04	20324
895.161	20488
895.283	20370
895.405	20282
895.526	20427
895.648	20347
895.769	20358
895.891	20393
896.012	20537
896.134	20415
896.255	20374
896.376	20320
896.498	20377
896.619	20454
896.74	20339
896.861	20423
896.982	20644
897.103	20777
897.224	20678
897.345	20594
897.466	20583
897.587	20648
897.708	20693
897.828	20689
897.949	20461
898.07	20408
898.19	20606
898.311	20560
898.431	20541
898.552	20552
898.672	20644
898.792	20598
898.913	20617
899.033	20480
899.153	20423
899.273	20332
899.393	20332
899.513	20317
899.633	20488
899.753	20256
899.873	20347
899.993	20358
900.113	20248
900.232	20214
900.352	20119
900.472	20195
900.591	20005
900.711	20092
900.83	20005
900.95	20096
901.069	20244
901.189	20005
901.308	19712
901.427	19639
901.546	19674
901.665	19655
901.784	19715
901.904	19400
902.023	19457
902.141	19213
902.26	19301
902.379	19301
902.498	19175
902.617	19148
902.735	19194
902.854	19088
902.973	19084
903.091	18840
903.21	18875
903.328	18798
903.446	18791
903.565	18547
903.683	18715
903.801	18604
903.919	18642
904.038	18525
904.156	18422
904.274	18426
904.392	18365
904.51	18372
904.627	18414
904.745	18441
904.863	18437
904.981	18209
905.098	18045
905.216	18110
905.334	18129
905.451	18083
905.569	18038
905.686	18083
905.803	18110
905.921	17939
906.038	18011
906.155	17999
906.272	17775
906.389	17760
906.506	17653
906.623	17581
906.74	17577
906.857	17581
906.974	17471
907.091	17726
907.208	17798
907.324	17623
907.441	17562
907.557	17391
907.674	17364
907.79	17303
907.907	17303
908.023	17368
908.139	17296
908.256	17425
908.372	17155
908.488	17242
908.604	16995
908.72	17109
908.836	17124
908.952	17022
909.068	17064
909.184	17098
909.3	17060
909.415	17105
909.531	16999
909.647	16850
909.762	16752
909.878	16820
909.993	16885
910.108	16812
910.224	16744
910.339	16725
910.454	16577
910.57	16645
910.685	16645
910.8	16858
910.915	16713
911.03	16580
911.145	16440
911.259	16405
911.374	16299
911.489	16223
911.604	16268
911.718	16044
911.833	16154
911.947	16029
912.062	15915
912.176	16036
912.291	16139
912.405	16032
912.519	16325
912.633	16310
912.748	16067
912.862	16040
912.976	15880
913.09	15899
913.204	15869
913.318	15915
913.431	15960
913.545	15972
913.659	15998
913.772	15888
913.886	15743
914	15603
914.113	15762
914.226	15800
914.34	15728
914.453	15507
914.566	15816
914.68	15622
914.793	15591
914.906	15420
915.019	15374
915.132	15298
915.245	15268
915.358	15355
915.47	15332
915.583	15370
915.696	15351
915.809	15340
915.921	15393
916.034	15230
916.146	15222
916.259	15195
916.371	15268
916.483	15233
916.595	15077
916.708	15233
916.82	15123
916.932	15032
917.044	15081
917.156	15085
917.268	14883
917.38	14975
917.491	14994
917.603	14948
917.715	15081
917.826	15119
917.938	14823
918.049	14902
918.161	14971
918.272	15032
918.384	14998
918.495	14910
918.606	14845
918.717	14678
918.828	14743
918.939	14720
919.05	14632
919.161	14674
919.272	14556
919.383	14571
919.494	14743
919.604	14864
919.715	14610
919.826	14705
919.936	14640
920.047	14762
920.157	14659
920.267	14777
920.378	14651
920.488	14651
920.598	14861
920.708	14967
920.818	14815
920.928	14785
921.038	14986
921.148	14834
921.258	14602
921.368	14556
921.477	14415
921.587	14484
921.697	14313
921.806	14393
921.916	14149
922.025	14100
922.134	14161
922.244	13974
922.353	13967
922.462	13795
922.571	13841
922.68	13734
922.789	13662
922.898	13655
923.007	13575
923.116	13708
923.224	13639
923.333	13655
923.442	13510
923.55	13499
923.659	13529
923.767	13586
923.876	13487
923.984	13499
924.092	13403
924.201	13464
924.309	13365
924.417	13480
924.525	13266
924.633	13324
924.741	14058
924.849	13110
924.956	13304
925.064	13160
925.172	13103
925.279	13084
925.387	13095
925.494	13156
925.602	13236
925.709	13160
925.816	13000
925.924	13031
926.031	13137
926.138	13046
926.245	13076
926.352	12901
926.459	13129
926.566	12958
926.673	12977
926.779	12878
926.886	12814
926.993	12681
927.099	12608
927.206	12646
927.312	12528
927.419	12654
927.525	12536
927.631	12722
927.737	12593
927.843	12471
927.95	12448
928.056	12456
928.162	12456
928.267	12551
928.373	13133
928.479	12486
928.585	12311
928.69	12445
928.796	12486
928.901	12384
929.007	12190
929.112	12334
929.218	12262
929.323	12224
929.428	12292
929.533	12357
929.638	12106
929.743	12148
929.848	12167
929.953	12117
930.058	12030
930.163	11904
930.267	11920
930.372	12057
930.477	11859
930.581	12060
930.685	11882
930.79	11790
930.894	11752
930.998	11783
931.103	11863
931.207	11600
931.311	11398
931.415	11353
931.519	11136
931.623	11151
