Data from test_V78500241_3467.txt Node
Date: Fri Mar 25 15:34:00 CST 2022
User: usil
Spectrometer: V785-0024
Trigger mode: 0
Integration Time (sec): 4.000000E-1
Scans to average: 1
Nonlinearity correction enabled: false
Boxcar width: 0
Storing dark spectrum: false
XAxis mode: Wavelengths
Number of Pixels in Spectrum: 1024
>>>>>Begin Spectral Data<<<<<
801.071	27214
801.214	27241
801.356	27017
801.499	26758
801.641	26853
801.783	26777
801.926	26746
802.068	26853
802.211	26765
802.353	26644
802.496	26484
802.638	26317
802.78	26370
802.923	26442
803.065	26347
803.208	26305
803.35	26370
803.492	26606
803.635	26663
803.777	26583
803.919	26568
804.061	26929
804.204	26579
804.346	26507
804.488	26518
804.63	26541
804.773	26431
804.915	26575
805.057	26651
805.199	26579
805.341	26720
805.483	26640
805.626	26686
805.768	26678
805.91	26708
806.052	26746
806.194	26575
806.336	26792
806.478	26708
806.62	26648
806.762	26739
806.904	26956
807.046	27237
807.188	27032
807.33	27005
807.472	27268
807.614	27047
807.756	26982
807.898	27009
808.04	26716
808.182	26868
808.324	26883
808.465	26963
808.607	27131
808.749	27214
808.891	27386
809.033	27481
809.174	27416
809.316	27199
809.458	27195
809.6	27211
809.741	27359
809.883	27332
810.025	27660
810.166	27679
810.308	27629
810.45	27549
810.591	27408
810.733	27382
810.875	27260
811.016	27146
811.158	27165
811.299	27363
811.441	27545
811.582	27393
811.724	27237
811.865	27112
812.007	27237
812.148	27222
812.29	27313
812.431	27302
812.573	27709
812.714	27648
812.855	27755
812.997	27781
813.138	27994
813.279	27972
813.421	27819
813.562	27663
813.703	27663
813.845	27458
813.986	27272
814.127	26880
814.268	26876
814.41	26967
814.551	26895
814.692	27066
814.833	26819
814.974	26823
815.115	26910
815.256	26746
815.397	26834
815.539	26777
815.68	26621
815.821	26697
815.962	26644
816.103	26781
816.244	26598
816.385	26453
816.526	26442
816.666	26168
816.807	26225
816.948	26244
817.089	26259
817.23	26122
817.371	26088
817.512	26263
817.653	26210
817.793	26043
817.934	26263
818.075	26252
818.216	26244
818.356	26065
818.497	26043
818.638	26008
818.778	26024
818.919	25879
819.06	25978
819.2	26168
819.341	26088
819.481	26065
819.622	26396
819.762	26480
819.903	26351
820.043	26362
820.184	26225
820.324	26362
820.465	26233
820.605	26221
820.746	26377
820.886	26142
821.026	26084
821.167	26092
821.307	26336
821.447	26161
821.588	26210
821.728	25982
821.868	25776
822.008	25715
822.149	25499
822.289	25658
822.429	25525
822.569	25316
822.709	25350
822.849	25027
822.99	25103
823.13	25206
823.27	25080
823.41	24886
823.55	24901
823.69	25000
823.83	24909
823.97	24821
824.11	24772
824.25	24631
824.389	24757
824.529	24890
824.669	24684
824.809	24897
824.949	24863
825.089	24802
825.228	24886
825.368	24749
825.508	24749
825.648	24601
825.787	24768
825.927	24787
826.067	24623
826.206	24722
826.346	24654
826.485	24764
826.625	24616
826.765	24711
826.904	24711
827.044	24445
827.183	24418
827.323	24357
827.462	24350
827.601	24376
827.741	24369
827.88	24426
828.02	24315
828.159	24361
828.298	24353
828.437	24426
828.577	24296
828.716	24357
828.855	24273
828.994	24129
829.134	23999
829.273	24209
829.412	24076
829.551	23901
829.69	24148
829.829	24102
829.968	24213
830.107	24030
830.246	24022
830.385	24053
830.524	24072
830.663	23874
830.802	23889
830.941	23752
831.08	23680
831.219	23760
831.357	23821
831.496	23836
831.635	23570
831.774	23634
831.913	23630
832.051	23619
832.19	23505
832.329	23433
832.467	23402
832.606	23303
832.744	23406
832.883	23417
833.022	23398
833.16	23311
833.299	23486
833.437	23455
833.576	23581
833.714	23368
833.852	23562
833.991	23455
834.129	23573
834.267	23463
834.406	23471
834.544	23467
834.682	23463
834.821	23421
834.959	23646
835.097	23436
835.235	23421
835.373	23528
835.511	23372
835.65	23254
835.788	23334
835.926	23128
836.064	23079
836.202	23220
836.34	23315
836.478	23292
836.615	23174
836.753	23288
836.891	23345
837.029	23254
837.167	23353
837.305	23246
837.443	23098
837.58	23258
837.718	23220
837.856	23136
837.993	23147
838.131	23151
838.269	23037
838.406	23029
838.544	22972
838.681	22664
838.819	22744
838.956	22683
839.094	22698
839.231	22679
839.369	22797
839.506	23014
839.643	22790
839.781	22592
839.918	22626
840.055	22580
840.193	22607
840.33	22516
840.467	22717
840.604	22668
840.742	22793
840.879	22310
841.016	22493
841.153	22641
841.29	22615
841.427	22497
841.564	22599
841.701	22561
841.838	22478
841.975	22497
842.112	22580
842.249	22409
842.385	22394
842.522	22561
842.659	22344
842.796	22386
842.933	22428
843.069	22219
843.206	22344
843.343	22360
843.479	22291
843.616	22310
843.752	22078
843.889	22181
844.025	22211
844.162	22162
844.298	22131
844.435	22013
844.571	22074
844.708	22097
844.844	22314
844.98	22253
845.117	22143
845.253	22120
845.389	22013
845.525	21865
845.661	22044
845.798	21751
845.934	21800
846.07	21869
846.206	21827
846.342	21968
846.478	21915
846.614	21641
846.75	21595
846.886	21580
847.022	21675
847.158	21511
847.294	21667
847.429	21538
847.565	21557
847.701	21819
847.837	21336
847.972	21355
848.108	21477
848.244	21272
848.379	21180
848.515	21150
848.65	21116
848.786	21199
848.921	21268
849.057	21317
849.192	21203
849.328	21131
849.463	21157
849.598	21138
849.734	21093
849.869	21020
850.004	20948
850.14	20933
850.275	20929
850.41	20804
850.545	20819
850.68	20990
850.815	20994
850.95	21001
851.085	21024
851.22	20967
851.355	20849
851.49	20944
851.625	20853
851.76	20842
851.895	20815
852.03	20842
852.165	21051
852.299	21146
852.434	21104
852.569	20929
852.703	20887
852.838	21074
852.973	21089
853.107	20994
853.242	20838
853.376	20762
853.511	20629
853.645	20712
853.78	20743
853.914	20754
854.048	20788
854.183	20617
854.317	20804
854.451	20845
854.585	20762
854.72	20746
854.854	20910
854.988	20678
855.122	20716
855.256	20720
855.39	20659
855.524	20834
855.658	20849
855.792	20716
855.926	20861
856.06	20762
856.194	20994
856.327	20667
856.461	20609
856.595	20762
856.729	20769
856.862	20777
856.996	20815
857.13	20845
857.263	20967
857.397	20899
857.53	20758
857.664	20785
857.797	20823
857.931	20838
858.064	20819
858.197	20823
858.331	20746
858.464	20629
858.597	20621
858.731	20712
858.864	20716
858.997	20743
859.13	20773
859.263	20781
859.396	20819
859.529	20724
859.662	20655
859.795	20667
859.928	20743
860.061	20918
860.194	20986
860.327	20826
860.46	20712
860.592	20868
860.725	20921
860.858	21017
860.99	20788
861.123	20659
861.256	20625
861.388	20792
861.521	21534
861.653	20613
861.786	20575
861.918	20625
862.05	20686
862.183	20720
862.315	20781
862.447	20765
862.58	20644
862.712	20545
862.844	20450
862.976	20522
863.108	20556
863.24	20956
863.372	20427
863.504	20545
863.636	20461
863.768	20560
863.9	20408
864.032	20328
864.164	20431
864.296	20476
864.428	20598
864.559	20537
864.691	20492
864.823	20469
864.954	20488
865.086	20389
865.217	20438
865.349	20332
865.48	20393
865.612	20317
865.743	20480
865.875	20450
866.006	20282
866.137	20442
866.269	20320
866.4	20404
866.531	20385
866.662	20294
866.793	20267
866.924	20298
867.055	20267
867.186	20358
867.317	20347
867.448	20237
867.579	20282
867.71	20111
867.841	20240
867.972	20374
868.103	20282
868.233	20278
868.364	20244
868.495	20415
868.625	20473
868.756	20765
868.886	20461
869.017	20541
869.147	20613
869.278	20629
869.408	20568
869.539	20473
869.669	20640
869.799	20629
869.929	20629
870.06	20788
870.19	20864
870.32	20876
870.45	20880
870.58	20929
870.71	21036
870.84	21055
870.97	20994
871.1	20880
871.23	21112
871.36	21070
871.489	20975
871.619	21173
871.749	21176
871.879	21138
872.008	21313
872.138	21096
872.267	21157
872.397	20952
872.526	21058
872.656	20975
872.785	21070
872.915	21176
873.044	21359
873.173	21135
873.303	21169
873.432	21249
873.561	21374
873.69	21093
873.819	21218
873.948	21298
874.077	21317
874.206	21154
874.335	21173
874.464	21230
874.593	21545
874.722	21298
874.851	21325
874.979	21542
875.108	21530
875.237	21447
875.365	21344
875.494	21405
875.623	21553
875.751	21355
875.88	21477
876.008	21523
876.136	21633
876.265	21861
876.393	21941
876.521	21911
876.65	22017
876.778	21888
876.906	21663
877.034	21804
877.162	21819
877.29	21755
877.418	21892
877.546	21804
877.674	21694
877.802	21743
877.93	21759
878.058	21717
878.185	21595
878.313	21827
878.441	21709
878.568	21663
878.696	21667
878.824	21842
878.951	21808
879.079	21937
879.206	22265
879.333	21956
879.461	21785
879.588	21831
879.715	21915
879.842	22070
879.97	21755
880.097	21603
880.224	21587
880.351	21789
880.478	21633
880.605	21682
880.732	21545
880.859	21827
880.986	21538
881.112	21641
881.239	21477
881.366	21275
881.493	21298
881.619	21211
881.746	21256
881.872	21332
881.999	21169
882.125	21135
882.252	21237
882.378	21298
882.505	21344
882.631	20960
882.757	21020
882.883	20933
883.01	20845
883.136	20781
883.262	20716
883.388	20773
883.514	20952
883.64	20986
883.766	20800
883.892	20655
884.018	20701
884.143	20724
884.269	20861
884.395	20708
884.52	20518
884.646	20438
884.772	20484
884.897	20355
885.023	20583
885.148	20587
885.274	20689
885.399	20746
885.524	20533
885.65	20545
885.775	20568
885.9	20503
886.025	20663
886.15	20606
886.275	20442
886.4	20495
886.525	20492
886.65	20480
886.775	20457
886.9	20564
887.025	20697
887.149	20537
887.274	20355
887.399	20309
887.523	20298
887.648	20290
887.773	20263
887.897	20419
888.021	20324
888.146	20294
888.27	20492
888.395	20377
888.519	20347
888.643	20168
888.767	20336
888.891	20248
889.015	20134
889.139	20358
889.263	19967
889.387	20077
889.511	20305
889.635	20176
889.759	20062
889.883	20115
890.006	20092
890.13	20199
890.254	20046
890.377	20107
890.501	19856
890.624	19898
890.748	19864
890.871	19811
890.995	19674
891.118	19597
891.241	19677
891.364	19506
891.488	19883
891.611	19685
891.734	19746
891.857	19658
891.98	19769
892.103	19700
892.226	19651
892.349	19632
892.471	19533
892.594	19689
892.717	19628
892.839	19567
892.962	19670
893.085	19704
893.207	19658
893.33	19514
893.452	19590
893.575	19613
893.697	19582
893.819	19761
893.941	19909
894.064	19818
894.186	19658
894.308	19487
894.43	19738
894.552	19845
894.674	19811
894.796	19480
894.918	19518
895.04	19556
895.161	19700
895.283	19674
895.405	19586
895.526	19605
895.648	19674
895.769	19616
895.891	19620
896.012	19700
896.134	19746
896.255	19590
896.376	19628
896.498	19670
896.619	19738
896.74	19628
896.861	19712
896.982	20081
897.103	20164
897.224	19959
897.345	19742
897.466	19841
897.587	19871
897.708	20065
897.828	19940
897.949	19860
898.07	19807
898.19	19799
898.311	19944
898.431	19841
898.552	19864
898.672	19875
898.792	19955
898.913	19807
899.033	19601
899.153	19624
899.273	19624
899.393	19533
899.513	19666
899.633	19586
899.753	19594
899.873	19578
899.993	19643
900.113	19548
900.232	19639
900.352	19483
900.472	19487
900.591	19266
900.711	19460
900.83	19304
900.95	19499
901.069	19571
901.189	19312
901.308	18935
901.427	19023
901.546	18894
901.665	19034
901.784	18939
901.904	18856
902.023	18734
902.141	18585
902.26	18540
902.379	18513
902.498	18429
902.617	18490
902.735	18547
902.854	18441
902.973	18399
903.091	18239
903.21	18186
903.328	18072
903.446	18072
903.565	17992
903.683	17969
903.801	17893
903.919	18007
904.038	17931
904.156	17798
904.274	17832
904.392	17802
904.51	17684
904.627	17676
904.745	17847
904.863	17710
904.981	17547
905.098	17478
905.216	17383
905.334	17349
905.451	17433
905.569	17360
905.686	17486
905.803	17463
905.921	17277
906.038	17391
906.155	17212
906.272	17041
906.389	17170
906.506	16919
906.623	16942
906.74	16805
906.857	16843
906.974	16778
907.091	16980
907.208	16991
907.324	17025
907.441	16877
907.557	16702
907.674	16744
907.79	16717
907.907	16649
908.023	16630
908.139	16733
908.256	16618
908.372	16637
908.488	16516
908.604	16481
908.72	16443
908.836	16466
908.952	16451
909.068	16462
909.184	16500
909.3	16375
909.415	16508
909.531	16443
909.647	16135
909.762	16169
909.878	16067
909.993	16116
910.108	16086
910.224	16086
910.339	16048
910.454	15975
910.57	16013
910.685	15915
910.8	16242
910.915	16082
911.03	15918
911.145	15804
911.259	15732
911.374	15660
911.489	15690
911.604	15614
911.718	15485
911.833	15534
911.947	15306
912.062	15428
912.176	15469
912.291	15466
912.405	15507
912.519	15656
912.633	15629
912.748	15595
912.862	15420
912.976	15374
913.09	15207
913.204	15252
913.318	15389
913.431	15302
913.545	15298
913.659	15443
913.772	15283
913.886	15165
914	15074
914.113	15241
914.226	15275
914.34	15203
914.453	14963
914.566	15138
914.68	14910
914.793	14891
914.906	14781
915.019	14739
915.132	14739
915.245	14720
915.358	14762
915.47	14743
915.583	14743
915.696	14689
915.809	14682
915.921	14883
916.034	14762
916.146	14606
916.259	14564
916.371	14663
916.483	14606
916.595	14511
916.708	14556
916.82	14545
916.932	14450
917.044	14457
917.156	14541
917.268	14377
917.38	14446
917.491	14381
917.603	14457
917.715	14465
917.826	14446
917.938	14313
918.049	14176
918.161	14385
918.272	14549
918.384	14438
918.495	14317
918.606	14259
918.717	14115
918.828	14134
918.939	14054
919.05	14111
919.161	14259
919.272	13944
919.383	14001
919.494	14183
919.604	14381
919.715	14172
919.826	14103
919.936	14020
920.047	14138
920.157	14183
920.267	14374
920.378	14058
920.488	14103
920.598	14263
920.708	14393
920.818	14298
920.928	14301
921.038	14427
921.148	14377
921.258	14020
921.368	14001
921.477	13784
921.587	13849
921.697	13689
921.806	13864
921.916	13677
922.025	13552
922.134	13518
922.244	13468
922.353	13472
922.462	13445
922.571	13274
922.68	13217
922.789	13141
922.898	13187
923.007	13206
923.116	13232
923.224	13202
923.333	13129
923.442	13031
923.55	12989
923.659	13053
923.767	13194
923.876	13023
923.984	13042
924.092	12863
924.201	12947
924.309	12920
924.417	12947
924.525	12829
924.633	12935
924.741	13533
924.849	12688
924.956	12734
925.064	12578
925.172	12585
925.279	12650
925.387	12654
925.494	12426
925.602	12684
925.709	12757
925.816	12471
925.924	12570
926.031	12566
926.138	12544
926.245	12582
926.352	12475
926.459	12635
926.566	12654
926.673	12566
926.779	12338
926.886	12380
926.993	12311
927.099	12197
927.206	12155
927.312	12190
927.419	12224
927.525	12117
927.631	12224
927.737	12038
927.843	12011
927.95	11904
928.056	12038
928.162	12003
928.267	12083
928.373	12547
928.479	11996
928.585	11832
928.69	11977
928.796	12022
928.901	11882
929.007	11760
929.112	11912
929.218	11824
929.323	11748
929.428	11767
929.533	11836
929.638	11680
929.743	11634
929.848	11741
929.953	11672
930.058	11672
930.163	11448
930.267	11444
930.372	11482
930.477	11452
930.581	11676
930.685	11562
930.79	11337
930.894	11349
930.998	11250
931.103	11436
931.207	11060
931.311	11022
931.415	10976
931.519	10755
931.623	10733
