Data from test_V78500241_744.txt Node
Date: Fri Mar 25 15:15:02 CST 2022
User: usil
Spectrometer: V785-0024
Trigger mode: 0
Integration Time (sec): 4.000000E-1
Scans to average: 1
Nonlinearity correction enabled: false
Boxcar width: 0
Storing dark spectrum: false
XAxis mode: Wavelengths
Number of Pixels in Spectrum: 1024
>>>>>Begin Spectral Data<<<<<
801.071	27534
801.214	27408
801.356	27222
801.499	27169
801.641	26971
801.783	27013
801.926	27070
802.068	27036
802.211	26960
802.353	26845
802.496	26758
802.638	26678
802.78	26655
802.923	26648
803.065	26686
803.208	26739
803.35	26705
803.492	26842
803.635	26758
803.777	26746
803.919	26838
804.061	26975
804.204	26872
804.346	26678
804.488	26819
804.63	26785
804.773	26765
804.915	26743
805.057	26998
805.199	26906
805.341	26887
805.483	26990
805.626	26746
805.768	26868
805.91	26853
806.052	26998
806.194	26853
806.336	27146
806.478	27066
806.62	26948
806.762	27112
806.904	27146
807.046	27462
807.188	27370
807.33	27412
807.472	27329
807.614	27226
807.756	27393
807.898	27222
808.04	27188
808.182	27180
808.324	27188
808.465	27237
808.607	27580
808.749	27397
808.891	27675
809.033	27545
809.174	27637
809.316	27644
809.458	27686
809.6	27618
809.741	27724
809.883	27663
810.025	27888
810.166	27842
810.308	27956
810.45	27819
810.591	27781
810.733	27618
810.875	27591
811.016	27393
811.158	27622
811.299	27709
811.441	27595
811.582	27591
811.724	27473
811.865	27591
812.007	27576
812.148	27477
812.29	27679
812.431	27751
812.573	27922
812.714	28055
812.855	28070
812.997	28131
813.138	28276
813.279	28238
813.421	28128
813.562	28032
813.703	28017
813.845	27785
813.986	27549
814.127	27389
814.268	27207
814.41	27131
814.551	27355
814.692	27367
814.833	27176
814.974	27241
815.115	27169
815.256	27047
815.397	27135
815.539	27195
815.68	26998
815.821	27100
815.962	27020
816.103	27028
816.244	26948
816.385	26857
816.526	26773
816.666	26674
816.807	26552
816.948	26659
817.089	26697
817.23	26564
817.371	26465
817.512	26461
817.653	26473
817.793	26465
817.934	26492
818.075	26549
818.216	26670
818.356	26457
818.497	26419
818.638	26256
818.778	26381
818.919	26404
819.06	26324
819.2	26408
819.341	26461
819.481	26476
819.622	26621
819.762	26910
819.903	26815
820.043	26705
820.184	26769
820.324	26625
820.465	26594
820.605	26689
820.746	26716
820.886	26518
821.026	26613
821.167	26629
821.307	26682
821.447	26499
821.588	26381
821.728	26408
821.868	26084
822.008	26001
822.149	26084
822.289	25906
822.429	25807
822.569	25696
822.709	25811
822.849	25552
822.99	25460
823.13	25388
823.27	25320
823.41	25270
823.55	25221
823.69	25285
823.83	25369
823.97	25339
824.11	25031
824.25	25076
824.389	25168
824.529	25304
824.669	25175
824.809	25198
824.949	25244
825.089	25198
825.228	25232
825.368	25000
825.508	25072
825.648	25034
825.787	25118
825.927	24958
826.067	25034
826.206	25034
826.346	24981
826.485	24970
826.625	25053
826.765	25114
826.904	25069
827.044	24802
827.183	24787
827.323	24753
827.462	24844
827.601	24810
827.741	24764
827.88	24631
828.02	24776
828.159	24601
828.298	24703
828.437	24848
828.577	24707
828.716	24715
828.855	24578
828.994	24460
829.134	24437
829.273	24555
829.412	24391
829.551	24452
829.69	24346
829.829	24475
829.968	24441
830.107	24471
830.246	24509
830.385	24296
830.524	24289
830.663	24159
830.802	24049
830.941	24015
831.08	23866
831.219	24087
831.357	24117
831.496	24243
831.635	24076
831.774	23931
831.913	23931
832.051	23920
832.19	23870
832.329	23790
832.467	23798
832.606	23634
832.744	23733
832.883	23687
833.022	23775
833.16	23802
833.299	23691
833.437	23760
833.576	23779
833.714	23756
833.852	23764
833.991	23695
834.129	23855
834.267	23843
834.406	23771
834.544	23843
834.682	23722
834.821	23737
834.959	23885
835.097	23703
835.235	23714
835.373	23843
835.511	23722
835.65	23649
835.788	23668
835.926	23524
836.064	23391
836.202	23433
836.34	23661
836.478	23722
836.615	23535
836.753	23501
836.891	23657
837.029	23653
837.167	23653
837.305	23531
837.443	23436
837.58	23349
837.718	23486
837.856	23414
837.993	23311
838.131	23337
838.269	23254
838.406	23471
838.544	23197
838.681	23006
838.819	23083
838.956	22869
839.094	23014
839.231	23006
839.369	23041
839.506	23200
839.643	23140
839.781	22942
839.918	22816
840.055	22923
840.193	22839
840.33	22900
840.467	22946
840.604	22923
840.742	23147
840.879	22721
841.016	22664
841.153	22618
841.29	22858
841.427	22843
841.564	22896
841.701	22862
841.838	22759
841.975	22733
842.112	22721
842.249	22550
842.385	22580
842.522	22774
842.659	22645
842.796	22573
842.933	22459
843.069	22577
843.206	22618
843.343	22637
843.479	22691
843.616	22584
843.752	22303
843.889	22363
844.025	22542
844.162	22223
844.298	22390
844.435	22390
844.571	22299
844.708	22402
844.844	22588
844.98	22451
845.117	22569
845.253	22436
845.389	22223
845.525	22295
845.661	22181
845.798	22181
845.934	22074
846.07	21968
846.206	22135
846.342	22109
846.478	22120
846.614	21869
846.75	21717
846.886	21800
847.022	21869
847.158	21930
847.294	21922
847.429	21854
847.565	21762
847.701	21956
847.837	21667
847.972	21530
848.108	21679
848.244	21599
848.379	21515
848.515	21500
848.65	21313
848.786	21294
848.921	21466
849.057	21382
849.192	21469
849.328	21431
849.463	21473
849.598	21329
849.734	21287
849.869	21218
850.004	21116
850.14	21199
850.275	21176
850.41	20899
850.545	21085
850.68	21256
850.815	21237
850.95	21275
851.085	21378
851.22	21245
851.355	21355
851.49	21154
851.625	21252
851.76	21218
851.895	21070
852.03	21085
852.165	21119
852.299	21188
852.434	21287
852.569	21218
852.703	21157
852.838	21283
852.973	21374
853.107	21298
853.242	21218
853.376	21036
853.511	20921
853.645	21051
853.78	21043
853.914	20975
854.048	20948
854.183	21089
854.317	20937
854.451	21237
854.585	20967
854.72	21020
854.854	21165
854.988	20891
855.122	21001
855.256	20952
855.39	20994
855.524	20975
855.658	21085
855.792	20902
855.926	21051
856.06	21024
856.194	21104
856.327	20914
856.461	20906
856.595	21013
856.729	20845
856.862	21184
856.996	21055
857.13	21028
857.263	21093
857.397	21100
857.53	21032
857.664	21024
857.797	21009
857.931	21013
858.064	21074
858.197	21066
858.331	20994
858.464	20971
858.597	20899
858.731	21074
858.864	20887
858.997	21017
859.13	20979
859.263	20937
859.396	21127
859.529	21096
859.662	20941
859.795	20948
859.928	20933
860.061	21104
860.194	21108
860.327	21066
860.46	21009
860.592	21013
860.725	21279
860.858	21116
860.99	21074
861.123	20861
861.256	21013
861.388	20990
861.521	21637
861.653	20902
861.786	20754
861.918	20857
862.05	20933
862.183	20963
862.315	21081
862.447	21032
862.58	20956
862.712	20716
862.844	20617
862.976	20682
863.108	20823
863.24	21146
863.372	20689
863.504	20651
863.636	20758
863.768	20857
863.9	20773
864.032	20602
864.164	20720
864.296	20823
864.428	20792
864.559	20788
864.691	20708
864.823	20701
864.954	20735
865.086	20735
865.217	20674
865.349	20583
865.48	20590
865.612	20705
865.743	20815
865.875	20571
866.006	20564
866.137	20644
866.269	20606
866.4	20552
866.531	20594
866.662	20499
866.793	20617
866.924	20465
867.055	20568
867.186	20442
867.317	20594
867.448	20465
867.579	20602
867.71	20522
867.841	20545
867.972	20568
868.103	20625
868.233	20556
868.364	20511
868.495	20556
868.625	20708
868.756	20906
868.886	20845
869.017	20781
869.147	20800
869.278	20887
869.408	20963
869.539	20899
869.669	20956
869.799	20815
869.929	20975
870.06	20785
870.19	21096
870.32	21074
870.45	21100
870.58	21116
870.71	21374
870.84	21294
870.97	21336
871.1	21214
871.23	21370
871.36	21412
871.489	21340
871.619	21454
871.749	21408
871.879	21363
872.008	21462
872.138	21401
872.267	21294
872.397	21287
872.526	21138
872.656	21272
872.785	21237
872.915	21416
873.044	21447
873.173	21264
873.303	21443
873.432	21393
873.561	21511
873.69	21435
873.819	21477
873.948	21466
874.077	21420
874.206	21393
874.335	21325
874.464	21424
874.593	21686
874.722	21667
874.851	21526
874.979	21625
875.108	21720
875.237	21606
875.365	21545
875.494	21694
875.623	21732
875.751	21682
875.88	21625
876.008	21819
876.136	21873
876.265	22105
876.393	22223
876.521	22048
876.65	22055
876.778	22086
876.906	21994
877.034	21983
877.162	22051
877.29	21964
877.418	21937
877.546	22006
877.674	22055
877.802	22021
877.93	22021
878.058	21857
878.185	21911
878.313	22017
878.441	21983
878.568	21869
878.696	22055
878.824	22036
878.951	22036
879.079	22044
879.206	22226
879.333	22242
879.461	21956
879.588	21994
879.715	22093
879.842	22169
879.97	22112
880.097	21850
880.224	21713
880.351	21781
880.478	21873
880.605	21808
880.732	21781
880.859	22067
880.986	21747
881.112	21846
881.239	21557
881.366	21450
881.493	21504
881.619	21401
881.746	21298
881.872	21260
881.999	21298
882.125	21359
882.252	21447
882.378	21302
882.505	21523
882.631	21283
882.757	21123
882.883	21176
883.01	21051
883.136	21100
883.262	20982
883.388	20994
883.514	21039
883.64	21275
883.766	20921
883.892	20910
884.018	21005
884.143	21055
884.269	21062
884.395	20967
884.52	20788
884.646	20731
884.772	20632
884.897	20731
885.023	20773
885.148	20880
885.274	20967
885.399	20811
885.524	20796
885.65	20861
885.775	20902
885.9	20609
886.025	20834
886.15	20731
886.275	20712
886.4	20701
886.525	20708
886.65	20743
886.775	20545
886.9	20826
887.025	20883
887.149	20857
887.274	20469
887.399	20408
887.523	20617
887.648	20396
887.773	20396
887.897	20564
888.021	20632
888.146	20431
888.27	20606
888.395	20629
888.519	20583
888.643	20530
888.767	20575
888.891	20381
889.015	20488
889.139	20442
889.263	20237
889.387	20484
889.511	20590
889.635	20450
889.759	20298
889.883	20320
890.006	20278
890.13	20442
890.254	20164
890.377	20252
890.501	20065
890.624	20130
890.748	20122
890.871	19944
890.995	19811
891.118	19795
891.241	19830
891.364	19875
891.488	19928
891.611	19894
891.734	19932
891.857	19936
891.98	19868
892.103	19868
892.226	19906
892.349	19822
892.471	19700
892.594	19780
892.717	19826
892.839	19814
892.962	19769
893.085	19902
893.207	19772
893.33	19765
893.452	19700
893.575	19841
893.697	19784
893.819	20005
893.941	19951
894.064	20012
894.186	19776
894.308	19776
894.43	19860
894.552	19955
894.674	19917
894.796	19811
894.918	19727
895.04	19658
895.161	19776
895.283	19799
895.405	19727
895.526	19784
895.648	19845
895.769	19875
895.891	19879
896.012	19921
896.134	19791
896.255	19772
896.376	19746
896.498	19890
896.619	19849
896.74	19852
896.861	19955
896.982	20077
897.103	20370
897.224	20024
897.345	20039
897.466	19955
897.587	20001
897.708	20229
897.828	20122
897.949	19959
898.07	19841
898.19	20024
898.311	20115
898.431	19894
898.552	20107
898.672	20046
898.792	20119
898.913	19978
899.033	19963
899.153	19887
899.273	19852
899.393	19715
899.513	19753
899.633	19776
899.753	19795
899.873	19651
899.993	19830
900.113	19803
900.232	19734
900.352	19761
900.472	19594
900.591	19548
900.711	19620
900.83	19506
900.95	19647
901.069	19689
901.189	19373
901.308	19263
901.427	19088
901.546	19107
901.665	19110
901.784	19198
901.904	19034
902.023	18973
902.141	18783
902.26	18738
902.379	18833
902.498	18696
902.617	18593
902.735	18631
902.854	18559
902.973	18635
903.091	18334
903.21	18403
903.328	18308
903.446	18270
903.565	18262
903.683	18209
903.801	18110
903.919	18060
904.038	18095
904.156	18041
904.274	17935
904.392	17878
904.51	17939
904.627	17901
904.745	17958
904.863	17973
904.981	17824
905.098	17551
905.216	17585
905.334	17699
905.451	17566
905.569	17585
905.686	17577
905.803	17562
905.921	17299
906.038	17539
906.155	17486
906.272	17246
906.389	17315
906.506	17155
906.623	17239
906.74	17067
906.857	17022
906.974	17033
907.091	17094
907.208	17273
907.324	17155
907.441	17094
907.557	16927
907.674	16828
907.79	16793
907.907	16908
908.023	16809
908.139	16858
908.256	16805
908.372	16675
908.488	16668
908.604	16599
908.72	16558
908.836	16531
908.952	16535
909.068	16592
909.184	16656
909.3	16440
909.415	16516
909.531	16634
909.647	16375
909.762	16329
909.878	16318
909.993	16310
910.108	16253
910.224	16200
910.339	16131
910.454	16147
910.57	15975
910.685	16021
910.8	16246
910.915	16261
911.03	16093
911.145	15937
911.259	15945
911.374	15800
911.489	15785
911.604	15732
911.718	15576
911.833	15637
911.947	15515
912.062	15386
912.176	15622
912.291	15595
912.405	15701
912.519	15835
912.633	15842
912.748	15717
912.862	15584
912.976	15450
913.09	15332
913.204	15367
913.318	15481
913.431	15492
913.545	15584
913.659	15530
913.772	15416
913.886	15222
914	15298
914.113	15397
914.226	15397
914.34	15355
914.453	15211
914.566	15195
914.68	15173
914.793	15013
914.906	14925
915.019	14880
915.132	14811
915.245	14792
915.358	14921
915.47	14861
915.583	14834
915.696	14849
915.809	14914
915.921	14887
916.034	14849
916.146	14762
916.259	14746
916.371	14883
916.483	14826
916.595	14705
916.708	14655
916.82	14659
916.932	14796
917.044	14636
917.156	14640
917.268	14537
917.38	14533
917.491	14571
917.603	14511
917.715	14583
917.826	14579
917.938	14419
918.049	14400
918.161	14514
918.272	14571
918.384	14522
918.495	14454
918.606	14237
918.717	14214
918.828	14332
918.939	14317
919.05	14256
919.161	14240
919.272	14240
919.383	14157
919.494	14438
919.604	14465
919.715	14355
919.826	14145
919.936	14313
920.047	14358
920.157	14237
920.267	14503
920.378	14252
920.488	14153
920.598	14377
920.708	14587
920.818	14396
920.928	14358
921.038	14499
921.148	14499
921.258	14218
921.368	14073
921.477	14008
921.587	14058
921.697	13845
921.806	14065
921.916	13898
922.025	13700
922.134	13525
922.244	13681
922.353	13693
922.462	13578
922.571	13544
922.68	13373
922.789	13358
922.898	13358
923.007	13263
923.116	13251
923.224	13304
923.333	13373
923.442	13110
923.55	13019
923.659	13198
923.767	13266
923.876	13114
923.984	13156
924.092	13034
924.201	13080
924.309	13072
924.417	12947
924.525	12951
924.633	12943
924.741	13784
924.849	12791
924.956	12825
925.064	12726
925.172	12662
925.279	12669
925.387	12719
925.494	12741
925.602	12928
925.709	12768
925.816	12585
925.924	12745
926.031	12722
926.138	12696
926.245	12764
926.352	12608
926.459	12738
926.566	12783
926.673	12627
926.779	12574
926.886	12426
926.993	12334
927.099	12304
927.206	12327
927.312	12220
927.419	12232
927.525	12194
927.631	12270
927.737	12201
927.843	12144
927.95	12121
928.056	12152
928.162	12163
928.267	12243
928.373	12719
928.479	12289
928.585	11916
928.69	12095
928.796	12102
928.901	12003
929.007	11893
929.112	11984
929.218	11980
929.323	11912
929.428	11863
929.533	12011
929.638	11824
929.743	11741
929.848	11851
929.953	11893
930.058	11733
930.163	11573
930.267	11547
930.372	11718
930.477	11604
930.581	11707
930.685	11627
930.79	11417
930.894	11429
930.998	11402
931.103	11596
931.207	11246
931.311	11170
931.415	10957
931.519	10809
931.623	10862
