Data from test_V78500241_2480.txt Node
Date: Fri Mar 25 15:27:07 CST 2022
User: usil
Spectrometer: V785-0024
Trigger mode: 0
Integration Time (sec): 4.000000E-1
Scans to average: 1
Nonlinearity correction enabled: false
Boxcar width: 0
Storing dark spectrum: false
XAxis mode: Wavelengths
Number of Pixels in Spectrum: 1024
>>>>>Begin Spectral Data<<<<<
801.071	27214
801.214	27218
801.356	26933
801.499	26914
801.641	26746
801.783	26804
801.926	26792
802.068	26670
802.211	26682
802.353	26606
802.496	26461
802.638	26461
802.78	26370
802.923	26298
803.065	26164
803.208	26374
803.35	26408
803.492	26389
803.635	26465
803.777	26507
803.919	26396
804.061	26845
804.204	26579
804.346	26568
804.488	26385
804.63	26579
804.773	26537
804.915	26484
805.057	26640
805.199	26526
805.341	26419
805.483	26648
805.626	26678
805.768	26606
805.91	26693
806.052	26670
806.194	26473
806.336	26807
806.478	26533
806.62	26705
806.762	26765
806.904	26826
807.046	27005
807.188	26998
807.33	27074
807.472	27074
807.614	26975
807.756	26994
807.898	26906
808.04	26910
808.182	26800
808.324	26868
808.465	26967
808.607	27214
808.749	27150
808.891	27329
809.033	27321
809.174	27264
809.316	27157
809.458	27176
809.6	27218
809.741	27233
809.883	27367
810.025	27526
810.166	27408
810.308	27637
810.45	27511
810.591	27504
810.733	27237
810.875	27112
811.016	27169
811.158	27116
811.299	27275
811.441	27481
811.582	27359
811.724	27439
811.865	27233
812.007	27123
812.148	27207
812.29	27252
812.431	27344
812.573	27466
812.714	27606
812.855	27667
812.997	27751
813.138	27876
813.279	27956
813.421	27937
813.562	27762
813.703	27485
813.845	27287
813.986	26982
814.127	27032
814.268	26899
814.41	26921
814.551	26758
814.692	26769
814.833	26876
814.974	26701
815.115	26929
815.256	26670
815.397	26876
815.539	26743
815.68	26625
815.821	26549
815.962	26571
816.103	26655
816.244	26571
816.385	26366
816.526	26423
816.666	26336
816.807	26206
816.948	26282
817.089	26202
817.23	26202
817.371	26191
817.512	26229
817.653	26031
817.793	26081
817.934	26157
818.075	26218
818.216	26046
818.356	25997
818.497	26130
818.638	25833
818.778	25932
818.919	25841
819.06	25879
819.2	26065
819.341	25997
819.481	26100
819.622	26313
819.762	26282
819.903	26404
820.043	26240
820.184	26183
820.324	26267
820.465	26240
820.605	26237
820.746	26259
820.886	26119
821.026	26210
821.167	26214
821.307	26180
821.447	26244
821.588	26027
821.728	25959
821.868	25757
822.008	25666
822.149	25540
822.289	25670
822.429	25346
822.569	25221
822.709	25221
822.849	25152
822.99	25168
823.13	25118
823.27	25141
823.41	24951
823.55	24829
823.69	24867
823.83	24890
823.97	24905
824.11	24783
824.25	24711
824.389	24707
824.529	24798
824.669	24741
824.809	24665
824.949	24810
825.089	24779
825.228	24867
825.368	24502
825.508	24661
825.648	24604
825.787	24593
825.927	24703
826.067	24639
826.206	24635
826.346	24787
826.485	24601
826.625	24650
826.765	24608
826.904	24684
827.044	24315
827.183	24384
827.323	24452
827.462	24395
827.601	24300
827.741	24342
827.88	24300
828.02	24171
828.159	24144
828.298	24258
828.437	24426
828.577	24254
828.716	24388
828.855	24197
828.994	23923
829.134	23920
829.273	24041
829.412	24003
829.551	24007
829.69	24072
829.829	24110
829.968	24133
830.107	24041
830.246	24015
830.385	23901
830.524	23977
830.663	23726
830.802	23695
830.941	23710
831.08	23668
831.219	23718
831.357	23722
831.496	23802
831.635	23600
831.774	23585
831.913	23589
832.051	23493
832.19	23379
832.329	23391
832.467	23307
832.606	23311
832.744	23200
832.883	23273
833.022	23250
833.16	23277
833.299	23406
833.437	23318
833.576	23387
833.714	23368
833.852	23531
833.991	23391
834.129	23326
834.267	23478
834.406	23326
834.544	23436
834.682	23242
834.821	23250
834.959	23425
835.097	23402
835.235	23512
835.373	23425
835.511	23379
835.65	23334
835.788	23216
835.926	23067
836.064	23105
836.202	23056
836.34	23143
836.478	23269
836.615	23132
836.753	23372
836.891	23280
837.029	23143
837.167	23170
837.305	23166
837.443	23208
837.58	23056
837.718	23204
837.856	23075
837.993	22942
838.131	23094
838.269	23003
838.406	23064
838.544	23010
838.681	22679
838.819	22771
838.956	22512
839.094	22470
839.231	22577
839.369	22713
839.506	23003
839.643	22919
839.781	22485
839.918	22527
840.055	22557
840.193	22596
840.33	22565
840.467	22497
840.604	22664
840.742	22900
840.879	22409
841.016	22500
841.153	22325
841.29	22653
841.427	22447
841.564	22554
841.701	22424
841.838	22512
841.975	22371
842.112	22470
842.249	22363
842.385	22352
842.522	22683
842.659	22474
842.796	22322
842.933	22276
843.069	22150
843.206	22173
843.343	22325
843.479	22200
843.616	22215
843.752	21994
843.889	22067
844.025	22101
844.162	21994
844.298	22105
844.435	21991
844.571	21956
844.708	22086
844.844	22169
844.98	22181
845.117	22120
845.253	21972
845.389	21785
845.525	21880
845.661	21869
845.798	21667
845.934	21930
846.07	21713
846.206	21823
846.342	21854
846.478	21873
846.614	21545
846.75	21485
846.886	21469
847.022	21629
847.158	21557
847.294	21606
847.429	21606
847.565	21428
847.701	21732
847.837	21233
847.972	21249
848.108	21424
848.244	21443
848.379	21173
848.515	21214
848.65	21108
848.786	21112
848.921	21127
849.057	21184
849.192	21108
849.328	21135
849.463	21096
849.598	21043
849.734	21074
849.869	21017
850.004	20921
850.14	20876
850.275	20838
850.41	20853
850.545	20842
850.68	20800
850.815	20830
850.95	20891
851.085	21047
851.22	20864
851.355	20883
851.49	20906
851.625	20804
851.76	20777
851.895	20883
852.03	20773
852.165	20963
852.299	20921
852.434	20944
852.569	20838
852.703	21024
852.838	20941
852.973	21013
853.107	20952
853.242	20804
853.376	20644
853.511	20533
853.645	20777
853.78	20750
853.914	20804
854.048	20663
854.183	20530
854.317	20686
854.451	20910
854.585	20720
854.72	20697
854.854	20765
854.988	20564
855.122	20693
855.256	20587
855.39	20712
855.524	20735
855.658	20636
855.792	20731
855.926	20705
856.06	20716
856.194	20739
856.327	20659
856.461	20708
856.595	20556
856.729	20762
856.862	20807
856.996	20754
857.13	20830
857.263	20762
857.397	20746
857.53	20750
857.664	20804
857.797	20693
857.931	20777
858.064	20800
858.197	20830
858.331	20731
858.464	20579
858.597	20587
858.731	20609
858.864	20678
858.997	20705
859.13	20571
859.263	20701
859.396	20781
859.529	20613
859.662	20568
859.795	20583
859.928	20773
860.061	20750
860.194	20868
860.327	20640
860.46	20674
860.592	20800
860.725	20838
860.858	20785
860.99	20743
861.123	20484
861.256	20552
861.388	20796
861.521	21283
861.653	20617
861.786	20507
861.918	20655
862.05	20575
862.183	20564
862.315	20689
862.447	20564
862.58	20530
862.712	20404
862.844	20480
862.976	20393
863.108	20587
863.24	20914
863.372	20362
863.504	20450
863.636	20351
863.768	20545
863.9	20324
864.032	20385
864.164	20377
864.296	20442
864.428	20556
864.559	20446
864.691	20549
864.823	20427
864.954	20461
865.086	20370
865.217	20355
865.349	20309
865.48	20358
865.612	20355
865.743	20408
865.875	20301
866.006	20278
866.137	20301
866.269	20434
866.4	20240
866.531	20396
866.662	20183
866.793	20290
866.924	20252
867.055	20301
867.186	20218
867.317	20206
867.448	20130
867.579	20309
867.71	20161
867.841	20206
867.972	20400
868.103	20218
868.233	20298
868.364	20415
868.495	20438
868.625	20461
868.756	20602
868.886	20393
869.017	20415
869.147	20693
869.278	20552
869.408	20545
869.539	20423
869.669	20609
869.799	20594
869.929	20682
870.06	20541
870.19	20899
870.32	20739
870.45	20864
870.58	20906
870.71	20929
870.84	21085
870.97	20864
871.1	20918
871.23	21028
871.36	21104
871.489	20979
871.619	20990
871.749	21081
871.879	21119
872.008	21233
872.138	21119
872.267	21100
872.397	20941
872.526	20902
872.656	20918
872.785	21020
872.915	21119
873.044	21096
873.173	21036
873.303	21233
873.432	21264
873.561	21116
873.69	21169
873.819	21188
873.948	21154
874.077	21161
874.206	21047
874.335	21093
874.464	21039
874.593	21401
874.722	21374
874.851	21420
874.979	21310
875.108	21340
875.237	21294
875.365	21332
875.494	21275
875.623	21405
875.751	21416
875.88	21504
876.008	21622
876.136	21485
876.265	21736
876.393	21846
876.521	21880
876.65	21827
876.778	21751
876.906	21648
877.034	21720
877.162	21644
877.29	21739
877.418	21778
877.546	21789
877.674	21759
877.802	21701
877.93	21778
878.058	21587
878.185	21781
878.313	21679
878.441	21686
878.568	21447
878.696	21679
878.824	21743
878.951	21739
879.079	21930
879.206	21899
879.333	21937
879.461	21827
879.588	21854
879.715	21960
879.842	21918
879.97	21682
880.097	21542
880.224	21603
880.351	21545
880.478	21599
880.605	21538
880.732	21641
880.859	21816
880.986	21625
881.112	21572
881.239	21488
881.366	21310
881.493	21203
881.619	21085
881.746	21207
881.872	21165
881.999	21020
882.125	20956
882.252	21184
882.378	21085
882.505	21180
882.631	21020
882.757	20872
882.883	20929
883.01	20861
883.136	20819
883.262	20701
883.388	20693
883.514	20724
883.64	20849
883.766	20708
883.892	20571
884.018	20526
884.143	20826
884.269	20864
884.395	20450
884.52	20389
884.646	20511
884.772	20412
884.897	20278
885.023	20511
885.148	20602
885.274	20708
885.399	20629
885.524	20492
885.65	20560
885.775	20469
885.9	20492
886.025	20613
886.15	20579
886.275	20454
886.4	20320
886.525	20446
886.65	20294
886.775	20385
886.9	20636
887.025	20712
887.149	20423
887.274	20252
887.399	20320
887.523	20313
887.648	20172
887.773	20092
887.897	20271
888.021	20366
888.146	20084
888.27	20370
888.395	20400
888.519	20248
888.643	20347
888.767	20324
888.891	20122
889.015	19997
889.139	20081
889.263	20122
889.387	20107
889.511	20142
889.635	20130
889.759	20084
889.883	20077
890.006	20062
890.13	20180
890.254	19906
890.377	20035
890.501	19852
890.624	19833
890.748	19955
890.871	19814
890.995	19643
891.118	19624
891.241	19635
891.364	19658
891.488	19784
891.611	19643
891.734	19757
891.857	19837
891.98	19651
892.103	19689
892.226	19628
892.349	19499
892.471	19430
892.594	19499
892.717	19613
892.839	19575
892.962	19559
893.085	19620
893.207	19597
893.33	19289
893.452	19495
893.575	19529
893.697	19506
893.819	19681
893.941	19757
894.064	19609
894.186	19384
894.308	19449
894.43	19567
894.552	19597
894.674	19502
894.796	19609
894.918	19582
895.04	19476
895.161	19685
895.283	19594
895.405	19400
895.526	19712
895.648	19514
895.769	19613
895.891	19533
896.012	19689
896.134	19601
896.255	19590
896.376	19597
896.498	19453
896.619	19666
896.74	19632
896.861	19696
896.982	19997
897.103	19860
897.224	19883
897.345	19822
897.466	19670
897.587	19894
897.708	19932
897.828	19811
897.949	19753
898.07	19601
898.19	19651
898.311	19944
898.431	19677
898.552	19902
898.672	19906
898.792	19875
898.913	19826
899.033	19734
899.153	19685
899.273	19575
899.393	19487
899.513	19510
899.633	19647
899.753	19628
899.873	19533
899.993	19468
900.113	19430
900.232	19506
900.352	19445
900.472	19312
900.591	19187
900.711	19407
900.83	19327
900.95	19514
901.069	19449
901.189	19129
901.308	18916
901.427	18981
901.546	18954
901.665	18928
901.784	18901
901.904	18806
902.023	18642
902.141	18471
902.26	18490
902.379	18525
902.498	18483
902.617	18486
902.735	18471
902.854	18372
902.973	18361
903.091	18159
903.21	18106
903.328	18136
903.446	18053
903.565	18057
903.683	17927
903.801	17893
903.919	17866
904.038	17813
904.156	17729
904.274	17798
904.392	17699
904.51	17596
904.627	17668
904.745	17680
904.863	17847
904.981	17490
905.098	17436
905.216	17387
905.334	17425
905.451	17402
905.569	17364
905.686	17444
905.803	17436
905.921	17178
906.038	17261
906.155	17200
906.272	17060
906.389	17071
906.506	16900
906.623	16999
906.74	16946
906.857	16771
906.974	16843
907.091	16995
907.208	17014
907.324	17003
907.441	16828
907.557	16637
907.674	16580
907.79	16634
907.907	16569
908.023	16580
908.139	16622
908.256	16607
908.372	16508
908.488	16489
908.604	16390
908.72	16337
908.836	16299
908.952	16291
909.068	16223
909.184	16538
909.3	16318
909.415	16287
909.531	16348
909.647	16082
909.762	16021
909.878	16017
909.993	16078
910.108	16036
910.224	16010
910.339	16097
910.454	15918
910.57	15854
910.685	15831
910.8	16063
910.915	16029
911.03	15918
911.145	15720
911.259	15698
911.374	15564
911.489	15614
911.604	15553
911.718	15511
911.833	15572
911.947	15462
912.062	15420
912.176	15580
912.291	15431
912.405	15591
912.519	15667
912.633	15591
912.748	15428
912.862	15367
912.976	15233
913.09	15039
913.204	15188
913.318	15275
913.431	15317
913.545	15336
913.659	15332
913.772	15180
913.886	15093
914	15005
914.113	15070
914.226	15188
914.34	15097
914.453	14948
914.566	15085
914.68	14941
914.793	14811
914.906	14758
915.019	14651
915.132	14629
915.245	14610
915.358	14629
915.47	14773
915.583	14598
915.696	14663
915.809	14762
915.921	14826
916.034	14655
916.146	14526
916.259	14530
916.371	14625
916.483	14533
916.595	14537
916.708	14545
916.82	14488
916.932	14484
917.044	14434
917.156	14427
917.268	14309
917.38	14332
917.491	14298
917.603	14324
917.715	14389
917.826	14450
917.938	14256
918.049	14275
918.161	14172
918.272	14370
918.384	14336
918.495	14267
918.606	14180
918.717	14050
918.828	14145
918.939	14187
919.05	14054
919.161	14046
919.272	13837
919.383	14008
919.494	14149
919.604	14282
919.715	14240
919.826	14024
919.936	14054
920.047	14145
920.157	14069
920.267	14233
920.378	14134
920.488	14024
920.598	14240
920.708	14457
920.818	14332
920.928	14172
921.038	14374
921.148	14206
921.258	13970
921.368	13970
921.477	13765
921.587	13852
921.697	13700
921.806	13875
921.916	13723
922.025	13567
922.134	13537
922.244	13438
922.353	13476
922.462	13388
922.571	13346
922.68	13187
922.789	13183
922.898	13194
923.007	13072
923.116	13213
923.224	13141
923.333	13129
923.442	13015
923.55	12981
923.659	12932
923.767	12989
923.876	12996
923.984	13031
924.092	12867
924.201	12996
924.309	12954
924.417	13031
924.525	12913
924.633	12814
924.741	13769
924.849	12692
924.956	12867
925.064	12604
925.172	12555
925.279	12521
925.387	12650
925.494	12597
925.602	12662
925.709	12696
925.816	12475
925.924	12532
926.031	12589
926.138	12563
926.245	12639
926.352	12323
926.459	12654
926.566	12722
926.673	12620
926.779	12304
926.886	12346
926.993	12216
927.099	12190
927.206	12098
927.312	12079
927.419	12224
927.525	12175
927.631	12224
927.737	12064
927.843	12026
927.95	11942
928.056	11996
928.162	12110
928.267	12110
928.373	12677
928.479	12190
928.585	11798
928.69	11920
928.796	11958
928.901	11980
929.007	11771
929.112	11882
929.218	11828
929.323	11668
929.428	11726
929.533	11828
929.638	11764
929.743	11722
929.848	11748
929.953	11752
930.058	11608
930.163	11421
930.267	11493
930.372	11570
930.477	11452
930.581	11646
930.685	11467
930.79	11296
930.894	11433
930.998	11311
931.103	11463
931.207	11075
931.311	11071
931.415	10873
931.519	10790
931.623	10679
