Data from test_V78500241_311.txt Node
Date: Fri Mar 25 15:12:01 CST 2022
User: usil
Spectrometer: V785-0024
Trigger mode: 0
Integration Time (sec): 4.000000E-1
Scans to average: 1
Nonlinearity correction enabled: false
Boxcar width: 0
Storing dark spectrum: false
XAxis mode: Wavelengths
Number of Pixels in Spectrum: 1024
>>>>>Begin Spectral Data<<<<<
801.071	27755
801.214	27694
801.356	27625
801.499	27389
801.641	27214
801.783	27230
801.926	27389
802.068	27256
802.211	27218
802.353	27119
802.496	27058
802.638	26895
802.78	26937
802.923	26861
803.065	26815
803.208	26899
803.35	26960
803.492	27043
803.635	27085
803.777	26906
803.919	27131
804.061	27321
804.204	27093
804.346	26994
804.488	26986
804.63	27001
804.773	26845
804.915	27032
805.057	27100
805.199	27013
805.341	27161
805.483	27199
805.626	27058
805.768	27070
805.91	27100
806.052	27066
806.194	26902
806.336	27325
806.478	27161
806.62	27108
806.762	27195
806.904	27348
807.046	27591
807.188	27591
807.33	27488
807.472	27572
807.614	27439
807.756	27416
807.898	27424
808.04	27351
808.182	27195
808.324	27245
808.465	27344
808.607	27545
808.749	27614
808.891	27728
809.033	27907
809.174	27808
809.316	27709
809.458	27705
809.6	27682
809.741	27774
809.883	27827
810.025	27876
810.166	28006
810.308	27998
810.45	27895
810.591	27975
810.733	27675
810.875	27652
811.016	27625
811.158	27557
811.299	27819
811.441	27808
811.582	27812
811.724	27576
811.865	27507
812.007	27759
812.148	27679
812.29	27698
812.431	27857
812.573	27937
812.714	28051
812.855	28166
812.997	28287
813.138	28413
813.279	28276
813.421	28150
813.562	28082
813.703	27953
813.845	27895
813.986	27564
814.127	27481
814.268	27359
814.41	27287
814.551	27294
814.692	27412
814.833	27302
814.974	27249
815.115	27325
815.256	27241
815.397	27123
815.539	27085
815.68	27218
815.821	27085
815.962	27199
816.103	27070
816.244	26876
816.385	26819
816.526	26712
816.666	26823
816.807	26511
816.948	26465
817.089	26739
817.23	26617
817.371	26636
817.512	26606
817.653	26564
817.793	26431
817.934	26606
818.075	26648
818.216	26587
818.356	26461
818.497	26461
818.638	26221
818.778	26328
818.919	26275
819.06	26412
819.2	26339
819.341	26537
819.481	26336
819.622	26560
819.762	26849
819.903	26697
820.043	26811
820.184	26552
820.324	26651
820.465	26716
820.605	26663
820.746	26705
820.886	26511
821.026	26568
821.167	26545
821.307	26606
821.447	26568
821.588	26476
821.728	26309
821.868	26180
822.008	26065
822.149	25978
822.289	25890
822.429	25753
822.569	25681
822.709	25628
822.849	25521
822.99	25441
823.13	25563
823.27	25430
823.41	25282
823.55	25156
823.69	25343
823.83	25228
823.97	25122
824.11	25152
824.25	25076
824.389	25156
824.529	25038
824.669	25141
824.809	25213
824.949	25266
825.089	25015
825.228	25084
825.368	24856
825.508	25019
825.648	24947
825.787	24909
825.927	25042
826.067	24882
826.206	24992
826.346	24943
826.485	25023
826.625	24863
826.765	24859
826.904	24859
827.044	24764
827.183	24726
827.323	24532
827.462	24608
827.601	24692
827.741	24646
827.88	24620
828.02	24422
828.159	24620
828.298	24673
828.437	24707
828.577	24589
828.716	24563
828.855	24536
828.994	24300
829.134	24319
829.273	24452
829.412	24289
829.551	24197
829.69	24270
829.829	24285
829.968	24448
830.107	24319
830.246	24353
830.385	24292
830.524	24174
830.663	24072
830.802	23946
830.941	23923
831.08	23912
831.219	23988
831.357	23885
831.496	24114
831.635	23855
831.774	23798
831.913	23885
832.051	23802
832.19	23718
832.329	23653
832.467	23604
832.606	23558
832.744	23570
832.883	23573
833.022	23592
833.16	23676
833.299	23474
833.437	23657
833.576	23672
833.714	23600
833.852	23794
833.991	23729
834.129	23821
834.267	23687
834.406	23714
834.544	23634
834.682	23764
834.821	23619
834.959	23832
835.097	23562
835.235	23748
835.373	23756
835.511	23634
835.65	23581
835.788	23490
835.926	23330
836.064	23273
836.202	23398
836.34	23440
836.478	23581
836.615	23539
836.753	23474
836.891	23634
837.029	23524
837.167	23410
837.305	23463
837.443	23433
837.58	23425
837.718	23444
837.856	23512
837.993	23349
838.131	23307
838.269	23151
838.406	23216
838.544	23265
838.681	23166
838.819	22866
838.956	22900
839.094	22835
839.231	22812
839.369	22820
839.506	23345
839.643	23006
839.781	22797
839.918	22698
840.055	22881
840.193	22828
840.33	22698
840.467	22744
840.604	22706
840.742	22972
840.879	22641
841.016	22675
841.153	22527
841.29	22755
841.427	22710
841.564	22774
841.701	22668
841.838	22653
841.975	22687
842.112	22584
842.249	22485
842.385	22489
842.522	22645
842.659	22546
842.796	22557
842.933	22542
843.069	22493
843.206	22493
843.343	22417
843.479	22531
843.616	22569
843.752	22219
843.889	22303
844.025	22249
844.162	22226
844.298	22196
844.435	22211
844.571	22131
844.708	22265
844.844	22238
844.98	22447
845.117	22287
845.253	22150
845.389	22032
845.525	22143
845.661	22139
845.798	21895
845.934	22112
846.07	21918
846.206	22131
846.342	22112
846.478	21903
846.614	21770
846.75	21610
846.886	21682
847.022	21724
847.158	21724
847.294	21698
847.429	21694
847.565	21675
847.701	21934
847.837	21408
847.972	21530
848.108	21488
848.244	21534
848.379	21355
848.515	21150
848.65	21344
848.786	21344
848.921	21321
849.057	21504
849.192	21275
849.328	21355
849.463	21230
849.598	21207
849.734	21188
849.869	21066
850.004	21036
850.14	21013
850.275	21074
850.41	20952
850.545	20929
850.68	21032
850.815	21039
850.95	21093
851.085	21131
851.22	21173
851.355	21043
851.49	21051
851.625	21070
851.76	20937
851.895	20933
852.03	20918
852.165	21100
852.299	21017
852.434	21036
852.569	20994
852.703	20994
852.838	21214
852.973	21104
853.107	21055
853.242	20933
853.376	20845
853.511	20708
853.645	20788
853.78	20857
853.914	20902
854.048	20743
854.183	20674
854.317	20864
854.451	21104
854.585	20792
854.72	20735
854.854	20895
854.988	20769
855.122	20868
855.256	20705
855.39	20872
855.524	20948
855.658	20880
855.792	20773
855.926	20868
856.06	20853
856.194	20929
856.327	20811
856.461	20773
856.595	20758
856.729	20811
856.862	20933
856.996	20765
857.13	20864
857.263	20849
857.397	20857
857.53	20762
857.664	20941
857.797	20830
857.931	20910
858.064	20868
858.197	20891
858.331	20830
858.464	20739
858.597	20663
858.731	20724
858.864	20785
858.997	20819
859.13	20773
859.263	20800
859.396	20994
859.529	20746
859.662	20792
859.795	20693
859.928	20750
860.061	20891
860.194	20994
860.327	20823
860.46	20811
860.592	20990
860.725	20891
860.858	20895
860.99	20796
861.123	20724
861.256	20659
861.388	20785
861.521	21450
861.653	20708
861.786	20735
861.918	20667
862.05	20743
862.183	20758
862.315	20792
862.447	20963
862.58	20708
862.712	20617
862.844	20537
862.976	20621
863.108	20712
863.24	20986
863.372	20492
863.504	20427
863.636	20526
863.768	20522
863.9	20465
864.032	20484
864.164	20419
864.296	20587
864.428	20590
864.559	20625
864.691	20590
864.823	20484
864.954	20446
865.086	20423
865.217	20454
865.349	20290
865.48	20351
865.612	20404
865.743	20678
865.875	20454
866.006	20377
866.137	20431
866.269	20495
866.4	20404
866.531	20339
866.662	20431
866.793	20377
866.924	20271
867.055	20442
867.186	20442
867.317	20336
867.448	20225
867.579	20290
867.71	20229
867.841	20294
867.972	20381
868.103	20320
868.233	20324
868.364	20396
868.495	20423
868.625	20613
868.756	20716
868.886	20598
869.017	20632
869.147	20663
869.278	20648
869.408	20632
869.539	20651
869.669	20552
869.799	20655
869.929	20636
870.06	20689
870.19	20876
870.32	20811
870.45	20933
870.58	20944
870.71	21154
870.84	21093
870.97	20944
871.1	20952
871.23	21123
871.36	21222
871.489	21017
871.619	21116
871.749	21112
871.879	21100
872.008	21306
872.138	21226
872.267	21108
872.397	21017
872.526	20929
872.656	21062
872.785	21001
872.915	21184
873.044	21279
873.173	21260
873.303	21233
873.432	21275
873.561	21287
873.69	21222
873.819	21176
873.948	21294
874.077	21275
874.206	21230
874.335	21222
874.464	21382
874.593	21408
874.722	21272
874.851	21450
874.979	21469
875.108	21595
875.237	21336
875.365	21443
875.494	21405
875.623	21386
875.751	21374
875.88	21435
876.008	21568
876.136	21713
876.265	21797
876.393	21953
876.521	21991
876.65	21869
876.778	21827
876.906	21739
877.034	21660
877.162	21781
877.29	21827
877.418	21907
877.546	21869
877.674	21793
877.802	21709
877.93	21884
878.058	21637
878.185	21732
878.313	21747
878.441	21781
878.568	21701
878.696	21641
878.824	21812
878.951	21991
879.079	22032
879.206	22150
879.333	22025
879.461	21816
879.588	21770
879.715	21953
879.842	22048
879.97	21857
880.097	21641
880.224	21568
880.351	21557
880.478	21641
880.605	21629
880.732	21549
880.859	21903
880.986	21625
881.112	21580
881.239	21511
881.366	21317
881.493	21264
881.619	21207
881.746	21176
881.872	21294
881.999	21127
882.125	21237
882.252	21207
882.378	21214
882.505	21302
882.631	21112
882.757	20899
882.883	21142
883.01	21001
883.136	20895
883.262	20826
883.388	20701
883.514	20876
883.64	20986
883.766	20830
883.892	20724
884.018	20720
884.143	20762
884.269	20944
884.395	20587
884.52	20503
884.646	20495
884.772	20533
884.897	20541
885.023	20617
885.148	20560
885.274	20659
885.399	20636
885.524	20511
885.65	20629
885.775	20571
885.9	20594
886.025	20613
886.15	20625
886.275	20495
886.4	20488
886.525	20598
886.65	20408
886.775	20609
886.9	20697
887.025	20864
887.149	20579
887.274	20438
887.399	20400
887.523	20267
887.648	20374
887.773	20210
887.897	20412
888.021	20389
888.146	20404
888.27	20355
888.395	20381
888.519	20385
888.643	20434
888.767	20278
888.891	20313
889.015	20202
889.139	20172
889.263	20206
889.387	20164
889.511	20290
889.635	20199
889.759	20065
889.883	20103
890.006	20096
890.13	20202
890.254	20058
890.377	20035
890.501	19849
890.624	19913
890.748	19928
890.871	19807
890.995	19719
891.118	19590
891.241	19712
891.364	19807
891.488	19769
891.611	19639
891.734	19799
891.857	19723
891.98	19712
892.103	19750
892.226	19594
892.349	19639
892.471	19434
892.594	19635
892.717	19556
892.839	19514
892.962	19643
893.085	19811
893.207	19624
893.33	19510
893.452	19601
893.575	19518
893.697	19533
893.819	19757
893.941	19780
894.064	19769
894.186	19476
894.308	19552
894.43	19651
894.552	19647
894.674	19597
894.796	19438
894.918	19594
895.04	19529
895.161	19784
895.283	19628
895.405	19674
895.526	19605
895.648	19624
895.769	19685
895.891	19616
896.012	19700
896.134	19624
896.255	19525
896.376	19518
896.498	19586
896.619	19643
896.74	19655
896.861	19772
896.982	20020
897.103	20012
897.224	19936
897.345	19902
897.466	19814
897.587	19928
897.708	20077
897.828	19951
897.949	19776
898.07	19693
898.19	19780
898.311	19986
898.431	19704
898.552	19788
898.672	19902
898.792	19894
898.913	19875
899.033	19757
899.153	19613
899.273	19480
899.393	19655
899.513	19616
899.633	19605
899.753	19559
899.873	19590
899.993	19689
900.113	19464
900.232	19635
900.352	19510
900.472	19426
900.591	19403
900.711	19381
900.83	19289
900.95	19426
901.069	19381
901.189	19247
901.308	19145
901.427	18989
901.546	18905
901.665	18920
901.784	18951
901.904	18783
902.023	18764
902.141	18544
902.26	18483
902.379	18551
902.498	18494
902.617	18380
902.735	18532
902.854	18460
902.973	18380
903.091	18190
903.21	18197
903.328	18091
903.446	18015
903.565	17954
903.683	17935
903.801	17805
903.919	17855
904.038	17897
904.156	17672
904.274	17878
904.392	17684
904.51	17703
904.627	17733
904.745	17745
904.863	17737
904.981	17467
905.098	17284
905.216	17299
905.334	17421
905.451	17463
905.569	17368
905.686	17410
905.803	17322
905.921	17155
906.038	17334
906.155	17284
906.272	17166
906.389	17147
906.506	16915
906.623	16976
906.74	16862
906.857	16873
906.974	16831
907.091	17052
907.208	16991
907.324	17014
907.441	16786
907.557	16721
907.674	16596
907.79	16622
907.907	16592
908.023	16615
908.139	16656
908.256	16592
908.372	16569
908.488	16508
908.604	16413
908.72	16287
908.836	16371
908.952	16329
909.068	16390
909.184	16443
909.3	16322
909.415	16432
909.531	16360
909.647	16063
909.762	16097
909.878	16078
909.993	16044
910.108	16063
910.224	15949
910.339	16013
910.454	15903
910.57	15861
910.685	15759
910.8	15994
910.915	15911
911.03	15785
911.145	15633
911.259	15644
911.374	15656
911.489	15644
911.604	15534
911.718	15408
911.833	15359
911.947	15359
912.062	15195
912.176	15351
912.291	15374
912.405	15359
912.519	15561
912.633	15492
912.748	15492
912.862	15378
912.976	15306
913.09	15131
913.204	15142
913.318	15165
913.431	15344
913.545	15310
913.659	15237
913.772	15161
913.886	15131
914	15047
914.113	15104
914.226	15112
914.34	15108
914.453	14944
914.566	15013
914.68	14929
914.793	14902
914.906	14708
915.019	14765
915.132	14590
915.245	14648
915.358	14689
915.47	14712
915.583	14629
915.696	14731
915.809	14804
915.921	14800
916.034	14610
916.146	14377
916.259	14450
916.371	14594
916.483	14575
916.595	14530
916.708	14480
916.82	14511
916.932	14408
917.044	14423
917.156	14385
917.268	14336
917.38	14419
917.491	14347
917.603	14419
917.715	14374
917.826	14457
917.938	14389
918.049	14130
918.161	14195
918.272	14476
918.384	14423
918.495	14305
918.606	14100
918.717	14065
918.828	14138
918.939	14180
919.05	14115
919.161	14088
919.272	13921
919.383	14001
919.494	14054
919.604	14275
919.715	14046
919.826	13947
919.936	14027
920.047	14138
920.157	14020
920.267	14237
920.378	14069
920.488	14031
920.598	14252
920.708	14336
920.818	14221
920.928	14214
921.038	14454
921.148	14282
921.258	14008
921.368	13898
921.477	13791
921.587	13761
921.697	13723
921.806	13757
921.916	13586
922.025	13510
922.134	13434
922.244	13388
922.353	13476
922.462	13339
922.571	13149
922.68	13046
922.789	13015
922.898	13126
923.007	13122
923.116	13023
923.224	13061
923.333	13126
923.442	12947
923.55	12863
923.659	12932
923.767	13023
923.876	12829
923.984	12962
924.092	12741
924.201	12943
924.309	12905
924.417	12894
924.525	12863
924.633	12707
924.741	13460
924.849	12563
924.956	12681
925.064	12639
925.172	12448
925.279	12525
925.387	12582
925.494	12574
925.602	12711
925.709	12608
925.816	12433
925.924	12555
926.031	12639
926.138	12441
926.245	12479
926.352	12407
926.459	12593
926.566	12608
926.673	12433
926.779	12357
926.886	12292
926.993	12148
927.099	12117
927.206	12076
927.312	12019
927.419	12163
927.525	12098
927.631	12197
927.737	12030
927.843	12038
927.95	11946
928.056	11927
928.162	11973
928.267	12011
928.373	12597
928.479	11939
928.585	11718
928.69	11824
928.796	11931
928.901	11813
929.007	11619
929.112	11771
929.218	11741
929.323	11649
929.428	11676
929.533	11824
929.638	11676
929.743	11581
929.848	11672
929.953	11668
930.058	11554
930.163	11364
930.267	11391
930.372	11551
930.477	11353
930.581	11520
930.685	11467
930.79	11223
930.894	11318
930.998	11299
931.103	11364
931.207	10946
931.311	10927
931.415	10858
931.519	10634
931.623	10618
