Data from test_V78500241_3314.txt Node
Date: Fri Mar 25 15:32:56 CST 2022
User: usil
Spectrometer: V785-0024
Trigger mode: 0
Integration Time (sec): 4.000000E-1
Scans to average: 1
Nonlinearity correction enabled: false
Boxcar width: 0
Storing dark spectrum: false
XAxis mode: Wavelengths
Number of Pixels in Spectrum: 1024
>>>>>Begin Spectral Data<<<<<
801.071	27416
801.214	27291
801.356	27077
801.499	26914
801.641	26956
801.783	26735
801.926	26895
802.068	26762
802.211	26712
802.353	26785
802.496	26431
802.638	26473
802.78	26514
802.923	26465
803.065	26362
803.208	26415
803.35	26488
803.492	26613
803.635	26686
803.777	26381
803.919	26655
804.061	26902
804.204	26648
804.346	26701
804.488	26465
804.63	26480
804.773	26465
804.915	26670
805.057	26830
805.199	26667
805.341	26727
805.483	26792
805.626	26762
805.768	26640
805.91	26792
806.052	26781
806.194	26678
806.336	26956
806.478	26785
806.62	26769
806.762	26868
806.904	27150
807.046	27188
807.188	27222
807.33	27081
807.472	27077
807.614	27157
807.756	27176
807.898	26990
808.04	27070
808.182	26834
808.324	27020
808.465	27085
808.607	27256
808.749	27397
808.891	27386
809.033	27606
809.174	27294
809.316	27237
809.458	27351
809.6	27424
809.741	27450
809.883	27492
810.025	27526
810.166	27637
810.308	27652
810.45	27603
810.591	27454
810.733	27481
810.875	27226
811.016	27332
811.158	27249
811.299	27538
811.441	27660
811.582	27576
811.724	27431
811.865	27382
812.007	27203
812.148	27317
812.29	27378
812.431	27424
812.573	27618
812.714	27701
812.855	27892
812.997	27991
813.138	28048
813.279	27998
813.421	27876
813.562	27770
813.703	27698
813.845	27485
813.986	27386
814.127	26948
814.268	27176
814.41	26971
814.551	26960
814.692	26979
814.833	26887
814.974	26960
815.115	27028
815.256	26838
815.397	26853
815.539	27024
815.68	26811
815.821	26773
815.962	26823
816.103	26655
816.244	26568
816.385	26442
816.526	26446
816.666	26374
816.807	26119
816.948	26305
817.089	26419
817.23	26374
817.371	26229
817.512	26275
817.653	26115
817.793	26027
817.934	26191
818.075	26248
818.216	26324
818.356	26263
818.497	26259
818.638	25944
818.778	26008
818.919	25978
819.06	26103
819.2	26111
819.341	26206
819.481	26305
819.622	26434
819.762	26674
819.903	26495
820.043	26552
820.184	26381
820.324	26423
820.465	26507
820.605	26275
820.746	26282
820.886	26199
821.026	26252
821.167	26256
821.307	26313
821.447	26324
821.588	25959
821.728	25993
821.868	25727
822.008	25780
822.149	25590
822.289	25685
822.429	25506
822.569	25491
822.709	25476
822.849	25263
822.99	25301
823.13	25206
823.27	25129
823.41	25080
823.55	24920
823.69	25126
823.83	24905
823.97	25118
824.11	24863
824.25	24848
824.389	24856
824.529	24928
824.669	24840
824.809	25133
824.949	25042
825.089	25084
825.228	24848
825.368	24749
825.508	24700
825.648	24894
825.787	24760
825.927	24802
826.067	24677
826.206	24741
826.346	24806
826.485	24802
826.625	24871
826.765	24833
826.904	24817
827.044	24528
827.183	24654
827.323	24414
827.462	24486
827.601	24547
827.741	24585
827.88	24551
828.02	24319
828.159	24460
828.298	24467
828.437	24517
828.577	24445
828.716	24604
828.855	24391
828.994	24300
829.134	24163
829.273	24270
829.412	24266
829.551	24125
829.69	24076
829.829	24174
829.968	24292
830.107	24289
830.246	24190
830.385	24102
830.524	24015
830.663	24038
830.802	23805
830.941	23874
831.08	23691
831.219	23999
831.357	23802
831.496	23996
831.635	23718
831.774	23642
831.913	23665
832.051	23509
832.19	23524
832.329	23596
832.467	23611
832.606	23288
832.744	23360
832.883	23414
833.022	23471
833.16	23543
833.299	23433
833.437	23383
833.576	23554
833.714	23619
833.852	23516
833.991	23646
834.129	23585
834.267	23543
834.406	23600
834.544	23463
834.682	23512
834.821	23459
834.959	23630
835.097	23581
835.235	23547
835.373	23402
835.511	23509
835.65	23520
835.788	23436
835.926	23299
836.064	23235
836.202	23258
836.34	23288
836.478	23566
836.615	23417
836.753	23524
836.891	23501
837.029	23444
837.167	23341
837.305	23318
837.443	23189
837.58	23296
837.718	23242
837.856	23269
837.993	23242
838.131	23307
838.269	23014
838.406	23132
838.544	23010
838.681	22942
838.819	22900
838.956	22683
839.094	22660
839.231	22927
839.369	22809
839.506	23208
839.643	22904
839.781	22713
839.918	22656
840.055	22622
840.193	22675
840.33	22641
840.467	22584
840.604	22755
840.742	22999
840.879	22607
841.016	22481
841.153	22329
841.29	22660
841.427	22797
841.564	22580
841.701	22557
841.838	22615
841.975	22626
842.112	22519
842.249	22519
842.385	22440
842.522	22634
842.659	22664
842.796	22344
842.933	22413
843.069	22253
843.206	22360
843.343	22481
843.479	22303
843.616	22462
843.752	22143
843.889	22158
844.025	22363
844.162	22215
844.298	22360
844.435	22215
844.571	22086
844.708	22310
844.844	22394
844.98	22238
845.117	22268
845.253	22128
845.389	21998
845.525	22150
845.661	21956
845.798	21983
845.934	21922
846.07	21888
846.206	21892
846.342	21937
846.478	21930
846.614	21637
846.75	21705
846.886	21622
847.022	21861
847.158	21625
847.294	21618
847.429	21720
847.565	21583
847.701	21854
847.837	21340
847.972	21389
848.108	21439
848.244	21576
848.379	21275
848.515	21233
848.65	21131
848.786	21348
848.921	21207
849.057	21287
849.192	21321
849.328	21275
849.463	21393
849.598	21195
849.734	21252
849.869	21135
850.004	21020
850.14	21058
850.275	20941
850.41	20941
850.545	20899
850.68	21009
850.815	21104
850.95	21028
851.085	21135
851.22	21036
851.355	21062
851.49	21093
851.625	21001
851.76	20880
851.895	20899
852.03	20982
852.165	21005
852.299	21070
852.434	21142
852.569	21104
852.703	20944
852.838	20982
852.973	21256
853.107	21192
853.242	20906
853.376	20872
853.511	20769
853.645	20838
853.78	20887
853.914	20815
854.048	20906
854.183	20796
854.317	20781
854.451	21009
854.585	20853
854.72	20769
854.854	20883
854.988	20807
855.122	20819
855.256	20731
855.39	20937
855.524	20921
855.658	20838
855.792	20868
855.926	20902
856.06	20800
856.194	20910
856.327	20804
856.461	20762
856.595	20724
856.729	20842
856.862	20891
856.996	20864
857.13	20864
857.263	21017
857.397	20963
857.53	20880
857.664	20746
857.797	20857
857.931	20986
858.064	20910
858.197	21051
858.331	20807
858.464	20792
858.597	20670
858.731	20777
858.864	20864
858.997	20876
859.13	20781
859.263	20857
859.396	20944
859.529	20762
859.662	20735
859.795	20861
859.928	20785
860.061	20952
860.194	21001
860.327	21047
860.46	20819
860.592	21036
860.725	20982
860.858	20864
860.99	20880
861.123	20823
861.256	20663
861.388	20834
861.521	21416
861.653	20682
861.786	20762
861.918	20758
862.05	20777
862.183	20750
862.315	20834
862.447	20910
862.58	20762
862.712	20655
862.844	20488
862.976	20644
863.108	20537
863.24	21020
863.372	20438
863.504	20545
863.636	20617
863.768	20571
863.9	20579
864.032	20499
864.164	20526
864.296	20590
864.428	20514
864.559	20625
864.691	20686
864.823	20617
864.954	20511
865.086	20518
865.217	20427
865.349	20522
865.48	20488
865.612	20503
865.743	20629
865.875	20568
866.006	20438
866.137	20511
866.269	20438
866.4	20419
866.531	20362
866.662	20415
866.793	20412
866.924	20393
867.055	20370
867.186	20339
867.317	20377
867.448	20431
867.579	20389
867.71	20278
867.841	20370
867.972	20366
868.103	20332
868.233	20473
868.364	20358
868.495	20404
868.625	20590
868.756	20765
868.886	20686
869.017	20686
869.147	20724
869.278	20746
869.408	20590
869.539	20720
869.669	20674
869.799	20629
869.929	20724
870.06	20735
870.19	20937
870.32	20990
870.45	21024
870.58	20994
870.71	21001
870.84	21150
870.97	20998
871.1	21081
871.23	21051
871.36	21180
871.489	21173
871.619	21199
871.749	21283
871.879	21275
872.008	21367
872.138	21237
872.267	21157
872.397	21211
872.526	21127
872.656	21169
872.785	21112
872.915	21211
873.044	21412
873.173	21275
873.303	21188
873.432	21275
873.561	21348
873.69	21241
873.819	21203
873.948	21405
874.077	21283
874.206	21249
874.335	21195
874.464	21519
874.593	21462
874.722	21374
874.851	21667
874.979	21523
875.108	21644
875.237	21519
875.365	21397
875.494	21583
875.623	21572
875.751	21606
875.88	21492
876.008	21728
876.136	21739
876.265	21789
876.393	22025
876.521	21915
876.65	21956
876.778	22021
876.906	21842
877.034	21808
877.162	21827
877.29	21804
877.418	21865
877.546	21850
877.674	21789
877.802	21903
877.93	21918
878.058	21846
878.185	21770
878.313	21819
878.441	21804
878.568	21713
878.696	21774
878.824	21755
878.951	21793
879.079	21979
879.206	22169
879.333	21968
879.461	21895
879.588	21987
879.715	22021
879.842	22032
879.97	21903
880.097	21778
880.224	21538
880.351	21797
880.478	21793
880.605	21755
880.732	21667
880.859	21911
880.986	21739
881.112	21652
881.239	21557
881.366	21443
881.493	21416
881.619	21291
881.746	21283
881.872	21313
881.999	21329
882.125	21245
882.252	21291
882.378	21226
882.505	21416
882.631	21116
882.757	21005
882.883	21108
883.01	20994
883.136	20944
883.262	20971
883.388	20727
883.514	20956
883.64	21081
883.766	20872
883.892	20834
884.018	20918
884.143	20902
884.269	20868
884.395	20743
884.52	20625
884.646	20613
884.772	20549
884.897	20465
885.023	20613
885.148	20670
885.274	20857
885.399	20712
885.524	20640
885.65	20545
885.775	20621
885.9	20533
886.025	20804
886.15	20655
886.275	20602
886.4	20598
886.525	20598
886.65	20590
886.775	20511
886.9	20876
887.025	20724
887.149	20583
887.274	20476
887.399	20476
887.523	20469
887.648	20389
887.773	20339
887.897	20549
888.021	20545
888.146	20450
888.27	20495
888.395	20609
888.519	20495
888.643	20396
888.767	20480
888.891	20442
889.015	20256
889.139	20240
889.263	20115
889.387	20347
889.511	20442
889.635	20324
889.759	20054
889.883	20221
890.006	20206
890.13	20176
890.254	20001
890.377	20107
890.501	20024
890.624	19875
890.748	20035
890.871	19860
890.995	19833
891.118	19723
891.241	19807
891.364	19860
891.488	19913
891.611	19807
891.734	19750
891.857	19814
891.98	19799
892.103	19913
892.226	19765
892.349	19791
892.471	19613
892.594	19715
892.717	19765
892.839	19655
892.962	19681
893.085	19849
893.207	19803
893.33	19556
893.452	19746
893.575	19830
893.697	19738
893.819	19791
893.941	19890
894.064	19887
894.186	19715
894.308	19677
894.43	19788
894.552	19856
894.674	19757
894.796	19719
894.918	19696
895.04	19719
895.161	19811
895.283	19750
895.405	19738
895.526	19700
895.648	19651
895.769	19704
895.891	19742
896.012	19807
896.134	19765
896.255	19723
896.376	19601
896.498	19712
896.619	19849
896.74	19708
896.861	19738
896.982	20050
897.103	20248
897.224	19978
897.345	19890
897.466	19814
897.587	19909
897.708	20183
897.828	19959
897.949	19822
898.07	19738
898.19	19940
898.311	20100
898.431	19936
898.552	19894
898.672	19921
898.792	20027
898.913	19917
899.033	19887
899.153	19788
899.273	19571
899.393	19677
899.513	19788
899.633	19693
899.753	19635
899.873	19681
899.993	19818
900.113	19715
900.232	19533
900.352	19540
900.472	19510
900.591	19453
900.711	19521
900.83	19415
900.95	19457
901.069	19491
901.189	19407
901.308	19232
901.427	19183
901.546	19027
901.665	19000
901.784	19034
901.904	18913
902.023	18787
902.141	18635
902.26	18612
902.379	18696
902.498	18566
902.617	18582
902.735	18540
902.854	18555
902.973	18399
903.091	18319
903.21	18209
903.328	18353
903.446	18205
903.565	18121
903.683	18182
903.801	17977
903.919	17927
904.038	18060
904.156	17836
904.274	17897
904.392	17847
904.51	17840
904.627	17832
904.745	17901
904.863	17889
904.981	17592
905.098	17414
905.216	17455
905.334	17509
905.451	17478
905.569	17532
905.686	17410
905.803	17558
905.921	17334
906.038	17356
906.155	17391
906.272	17246
906.389	17250
906.506	17064
906.623	17155
906.74	16987
906.857	16995
906.974	16885
907.091	17132
907.208	17140
907.324	17113
907.441	17022
907.557	16847
907.674	16805
907.79	16664
907.907	16645
908.023	16801
908.139	16725
908.256	16615
908.372	16611
908.488	16664
908.604	16493
908.72	16478
908.836	16421
908.952	16497
909.068	16561
909.184	16580
909.3	16455
909.415	16428
909.531	16417
909.647	16272
909.762	16109
909.878	16226
909.993	16253
910.108	16169
910.224	16150
910.339	16150
910.454	16059
910.57	16017
910.685	16040
910.8	16185
910.915	16040
911.03	16044
911.145	15804
911.259	15797
911.374	15755
911.489	15709
911.604	15667
911.718	15526
911.833	15637
911.947	15439
912.062	15542
912.176	15511
912.291	15641
912.405	15542
912.519	15724
912.633	15743
912.748	15462
912.862	15488
912.976	15462
913.09	15188
913.204	15408
913.318	15424
913.431	15424
913.545	15435
913.659	15329
913.772	15325
913.886	15256
914	15123
914.113	15104
914.226	15226
914.34	15180
914.453	15173
914.566	15233
914.68	14994
914.793	14967
914.906	14902
915.019	14743
915.132	14758
915.245	14773
915.358	14781
915.47	14811
915.583	14693
915.696	14689
915.809	14830
915.921	14876
916.034	14739
916.146	14636
916.259	14674
916.371	14800
916.483	14716
916.595	14632
916.708	14564
916.82	14655
916.932	14507
917.044	14579
917.156	14514
917.268	14442
917.38	14480
917.491	14400
917.603	14412
917.715	14476
917.826	14533
917.938	14389
918.049	14282
918.161	14320
918.272	14533
918.384	14545
918.495	14446
918.606	14210
918.717	14107
918.828	14164
918.939	14240
919.05	14195
919.161	14267
919.272	13944
919.383	14058
919.494	14202
919.604	14412
919.715	14176
919.826	14168
919.936	14084
920.047	14267
920.157	14206
920.267	14358
920.378	14267
920.488	14172
920.598	14229
920.708	14389
920.818	14343
920.928	14225
921.038	14484
921.148	14503
921.258	14115
921.368	14081
921.477	13883
921.587	13913
921.697	13883
921.806	13951
921.916	13807
922.025	13746
922.134	13655
922.244	13506
922.353	13651
922.462	13415
922.571	13415
922.68	13190
922.789	13221
922.898	13263
923.007	13149
923.116	13312
923.224	13217
923.333	13126
923.442	13194
923.55	12966
923.659	13057
923.767	13145
923.876	13015
923.984	13107
924.092	12954
924.201	12970
924.309	12985
924.417	12966
924.525	12943
924.633	12920
924.741	13742
924.849	12798
924.956	12894
925.064	12692
925.172	12604
925.279	12612
925.387	12673
925.494	12620
925.602	12856
925.709	12726
925.816	12540
925.924	12608
926.031	12745
926.138	12593
926.245	12593
926.352	12540
926.459	12681
926.566	12654
926.673	12498
926.779	12384
926.886	12391
926.993	12334
927.099	12292
927.206	12178
927.312	12247
927.419	12277
927.525	12315
927.631	12285
927.737	12190
927.843	12121
927.95	11958
928.056	12098
928.162	12144
928.267	12041
928.373	12654
928.479	12163
928.585	11870
928.69	12045
928.796	12064
928.901	11942
929.007	11798
929.112	11939
929.218	11893
929.323	11760
929.428	11779
929.533	11942
929.638	11714
929.743	11748
929.848	11786
929.953	11729
930.058	11619
930.163	11444
930.267	11486
930.372	11695
930.477	11414
930.581	11684
930.685	11573
930.79	11395
930.894	11368
930.998	11379
931.103	11482
931.207	11124
931.311	11121
931.415	10999
931.519	10774
931.623	10752
