Data from test_V78500241_808.txt Node
Date: Fri Mar 25 15:15:29 CST 2022
User: usil
Spectrometer: V785-0024
Trigger mode: 0
Integration Time (sec): 4.000000E-1
Scans to average: 1
Nonlinearity correction enabled: false
Boxcar width: 0
Storing dark spectrum: false
XAxis mode: Wavelengths
Number of Pixels in Spectrum: 1024
>>>>>Begin Spectral Data<<<<<
801.071	28306
801.214	28303
801.356	28025
801.499	28097
801.641	27804
801.783	27914
801.926	27975
802.068	27842
802.211	27823
802.353	27808
802.496	27625
802.638	27523
802.78	27439
802.923	27526
803.065	27462
803.208	27545
803.35	27443
803.492	27622
803.635	27781
803.777	27603
803.919	27686
804.061	28048
804.204	27648
804.346	27759
804.488	27641
804.63	27739
804.773	27614
804.915	27793
805.057	27922
805.199	27682
805.341	27960
805.483	27793
805.626	27793
805.768	27690
805.91	27835
806.052	27838
806.194	27701
806.336	27983
806.478	27884
806.62	27918
806.762	28162
806.904	28128
807.046	28440
807.188	28219
807.33	28242
807.472	28382
807.614	28230
807.756	28295
807.898	28131
808.04	28135
808.182	28150
808.324	28059
808.465	28204
808.607	28409
808.749	28569
808.891	28626
809.033	28626
809.174	28683
809.316	28557
809.458	28508
809.6	28603
809.741	28702
809.883	28771
810.025	28831
810.166	28656
810.308	28801
810.45	28774
810.591	28828
810.733	28721
810.875	28519
811.016	28409
811.158	28428
811.299	28622
811.441	28752
811.582	28615
811.724	28516
811.865	28432
812.007	28519
812.148	28573
812.29	28569
812.431	28717
812.573	28984
812.714	29083
812.855	29151
812.997	29258
813.138	29311
813.279	29064
813.421	29223
813.562	29037
813.703	28885
813.845	28793
813.986	28561
814.127	28428
814.268	28303
814.41	28314
814.551	28128
814.692	28173
814.833	28348
814.974	28310
815.115	28135
815.256	28181
815.397	28177
815.539	28154
815.68	28059
815.821	28048
815.962	28101
816.103	28204
816.244	27956
816.385	27842
816.526	27762
816.666	27739
816.807	27515
816.948	27538
817.089	27660
817.23	27660
817.371	27633
817.512	27637
817.653	27511
817.793	27450
817.934	27542
818.075	27603
818.216	27717
818.356	27629
818.497	27412
818.638	27344
818.778	27427
818.919	27329
819.06	27534
819.2	27553
819.341	27580
819.481	27511
819.622	27690
819.762	27907
819.903	27804
820.043	27907
820.184	27743
820.324	27755
820.465	27793
820.605	27728
820.746	27854
820.886	27606
821.026	27583
821.167	27762
821.307	27671
821.447	27663
821.588	27496
821.728	27264
821.868	27180
822.008	27108
822.149	27039
822.289	27024
822.429	26838
822.569	26708
822.709	26743
822.849	26549
822.99	26587
823.13	26598
823.27	26606
823.41	26259
823.55	26282
823.69	26400
823.83	26453
823.97	26412
824.11	26142
824.25	26092
824.389	26172
824.529	26294
824.669	26339
824.809	26244
824.949	26199
825.089	26259
825.228	26290
825.368	26134
825.508	26164
825.648	26172
825.787	26122
825.927	26084
826.067	26005
826.206	26058
826.346	26161
826.485	26267
826.625	26024
826.765	26176
826.904	26138
827.044	25879
827.183	25845
827.323	25822
827.462	25864
827.601	25898
827.741	25856
827.88	25696
828.02	25655
828.159	25814
828.298	25849
828.437	25955
828.577	25700
828.716	25917
828.855	25761
828.994	25403
829.134	25529
829.273	25609
829.412	25464
829.551	25483
829.69	25533
829.829	25647
829.968	25540
830.107	25605
830.246	25499
830.385	25331
830.524	25343
830.663	25335
830.802	25244
830.941	25103
831.08	24981
831.219	25217
831.357	25263
831.496	25381
831.635	25171
831.774	25038
831.913	24970
832.051	24814
832.19	24878
832.329	24875
832.467	24802
832.606	24700
832.744	24757
832.883	24707
833.022	24715
833.16	24795
833.299	24833
833.437	24844
833.576	24909
833.714	24905
833.852	24806
833.991	24920
834.129	24909
834.267	25042
834.406	24939
834.544	24924
834.682	24844
834.821	24719
834.959	25069
835.097	24726
835.235	24958
835.373	24703
835.511	24738
835.65	24642
835.788	24654
835.926	24627
836.064	24380
836.202	24384
836.34	24631
836.478	24681
836.615	24681
836.753	24623
836.891	24764
837.029	24711
837.167	24730
837.305	24525
837.443	24502
837.58	24448
837.718	24513
837.856	24593
837.993	24486
838.131	24544
838.269	24357
838.406	24433
838.544	24369
838.681	24182
838.819	24243
838.956	24121
839.094	23977
839.231	24064
839.369	24102
839.506	24247
839.643	24209
839.781	23977
839.918	23965
840.055	23908
840.193	23946
840.33	23847
840.467	23843
840.604	24049
840.742	24117
840.879	23764
841.016	23859
841.153	23802
841.29	23954
841.427	23920
841.564	24057
841.701	23885
841.838	23824
841.975	23726
842.112	23722
842.249	23672
842.385	23615
842.522	23748
842.659	23718
842.796	23676
842.933	23566
843.069	23543
843.206	23547
843.343	23726
843.479	23733
843.616	23558
843.752	23524
843.889	23471
844.025	23554
844.162	23387
844.298	23376
844.435	23414
844.571	23284
844.708	23478
844.844	23471
844.98	23512
845.117	23623
845.253	23417
845.389	23265
845.525	23170
845.661	23227
845.798	23109
845.934	23143
846.07	23071
846.206	23181
846.342	23277
846.478	23102
846.614	22831
846.75	22889
846.886	22885
847.022	22873
847.158	22835
847.294	22847
847.429	22904
847.565	23014
847.701	23121
847.837	22546
847.972	22599
848.108	22645
848.244	22573
848.379	22557
848.515	22474
848.65	22402
848.786	22481
848.921	22577
849.057	22500
849.192	22519
849.328	22516
849.463	22390
849.598	22413
849.734	22314
849.869	22257
850.004	22341
850.14	22173
850.275	22329
850.41	22265
850.545	22219
850.68	22173
850.815	22329
850.95	22219
851.085	22379
851.22	22295
851.355	22196
851.49	22238
851.625	22082
851.76	22044
851.895	22036
852.03	22128
852.165	22044
852.299	22291
852.434	22352
852.569	22303
852.703	22284
852.838	22352
852.973	22253
853.107	22280
853.242	22344
853.376	22044
853.511	21888
853.645	21956
853.78	22158
853.914	22044
854.048	21994
854.183	21998
854.317	22051
854.451	22306
854.585	21968
854.72	22013
854.854	22101
854.988	21949
855.122	21941
855.256	21755
855.39	22169
855.524	22188
855.658	22051
855.792	21968
855.926	22063
856.06	22040
856.194	22063
856.327	22070
856.461	21945
856.595	21941
856.729	21926
856.862	22112
856.996	22017
857.13	22086
857.263	22105
857.397	22109
857.53	22093
857.664	22090
857.797	22078
857.931	22219
858.064	22086
858.197	22124
858.331	22036
858.464	21831
858.597	22040
858.731	21994
858.864	21998
858.997	22055
859.13	21991
859.263	21979
859.396	22032
859.529	22017
859.662	21922
859.795	21865
859.928	22078
860.061	22188
860.194	22169
860.327	22067
860.46	22067
860.592	22086
860.725	22135
860.858	22291
860.99	21960
861.123	21937
861.256	22082
861.388	22147
861.521	22740
861.653	21926
861.786	21789
861.918	21766
862.05	21888
862.183	21918
862.315	22109
862.447	21892
862.58	21979
862.712	21816
862.844	21580
862.976	21766
863.108	21751
863.24	22124
863.372	21762
863.504	21690
863.636	21656
863.768	21701
863.9	21732
864.032	21633
864.164	21736
864.296	21793
864.428	21812
864.559	21778
864.691	21888
864.823	21641
864.954	21618
865.086	21736
865.217	21526
865.349	21637
865.48	21709
865.612	21656
865.743	21709
865.875	21652
866.006	21652
866.137	21641
866.269	21542
866.4	21724
866.531	21458
866.662	21504
866.793	21549
866.924	21603
867.055	21568
867.186	21526
867.317	21622
867.448	21393
867.579	21500
867.71	21462
867.841	21370
867.972	21637
868.103	21511
868.233	21686
868.364	21641
868.495	21595
868.625	21797
868.756	21800
868.886	21751
869.017	21812
869.147	21804
869.278	21937
869.408	21793
869.539	21762
869.669	21899
869.799	21804
869.929	21861
870.06	21835
870.19	22116
870.32	21994
870.45	22143
870.58	22337
870.71	22265
870.84	22101
870.97	22188
871.1	22226
871.23	22379
871.36	22371
871.489	22287
871.619	22318
871.749	22333
871.879	22447
872.008	22531
872.138	22386
872.267	22436
872.397	22322
872.526	22207
872.656	22284
872.785	22166
872.915	22428
873.044	22306
873.173	22394
873.303	22497
873.432	22489
873.561	22459
873.69	22363
873.819	22394
873.948	22596
874.077	22459
874.206	22219
874.335	22516
874.464	22573
874.593	22694
874.722	22615
874.851	22607
874.979	22557
875.108	22672
875.237	22626
875.365	22382
875.494	22535
875.623	22618
875.751	22649
875.88	22641
876.008	22672
876.136	22763
876.265	22949
876.393	23208
876.521	22908
876.65	23041
876.778	22927
876.906	23029
877.034	22839
877.162	23071
877.29	22968
877.418	22965
877.546	23102
877.674	22938
877.802	22934
877.93	22923
878.058	22900
878.185	22892
878.313	22835
878.441	22858
878.568	22850
878.696	22869
878.824	22927
878.951	22930
879.079	23044
879.206	23200
879.333	23075
879.461	22976
879.588	23216
879.715	23094
879.842	23280
879.97	22984
880.097	22831
880.224	22809
880.351	22873
880.478	22698
880.605	22790
880.732	22713
880.859	22896
880.986	22702
881.112	22885
881.239	22675
881.366	22538
881.493	22497
881.619	22295
881.746	22443
881.872	22299
881.999	22261
882.125	22375
882.252	22341
882.378	22348
882.505	22489
882.631	22284
882.757	22154
882.883	22105
883.01	22150
883.136	21918
883.262	21816
883.388	21831
883.514	22017
883.64	22036
883.766	21857
883.892	21899
884.018	21827
884.143	21846
884.269	21949
884.395	21736
884.52	21591
884.646	21720
884.772	21618
884.897	21534
885.023	21618
885.148	21675
885.274	21793
885.399	21739
885.524	21599
885.65	21610
885.775	21603
885.9	21595
886.025	21797
886.15	21595
886.275	21648
886.4	21542
886.525	21633
886.65	21641
886.775	21534
886.9	21709
887.025	21911
887.149	21473
887.274	21405
887.399	21355
887.523	21435
887.648	21393
887.773	21439
887.897	21492
888.021	21466
888.146	21313
888.27	21610
888.395	21485
888.519	21431
888.643	21519
888.767	21408
888.891	21408
889.015	21214
889.139	21359
889.263	21336
889.387	21359
889.511	21378
889.635	21359
889.759	21096
889.883	21173
890.006	21131
890.13	21439
890.254	21142
890.377	21127
890.501	20971
890.624	21051
890.748	21169
890.871	20777
890.995	20815
891.118	20834
891.241	20815
891.364	20773
891.488	20998
891.611	20807
891.734	20735
891.857	20834
891.98	20788
892.103	20792
892.226	20887
892.349	20644
892.471	20613
892.594	20765
892.717	20705
892.839	20651
892.962	20629
893.085	20594
893.207	20663
893.33	20587
893.452	20735
893.575	20602
893.697	20575
893.819	20910
893.941	20788
894.064	20876
894.186	20575
894.308	20594
894.43	20708
894.552	20834
894.674	20686
894.796	20484
894.918	20621
895.04	20602
895.161	20594
895.283	20629
895.405	20613
895.526	20659
895.648	20621
895.769	20564
895.891	20625
896.012	20731
896.134	20693
896.255	20583
896.376	20750
896.498	20651
896.619	20708
896.74	20720
896.861	20758
896.982	20960
897.103	21100
897.224	20895
897.345	20868
897.466	20823
897.587	20902
897.708	20975
897.828	20941
897.949	20678
898.07	20636
898.19	20708
898.311	20914
898.431	20883
898.552	20872
898.672	20872
898.792	20887
898.913	20849
899.033	20750
899.153	20659
899.273	20537
899.393	20629
899.513	20667
899.633	20663
899.753	20541
899.873	20552
899.993	20552
900.113	20545
900.232	20575
900.352	20579
900.472	20427
900.591	20389
900.711	20374
900.83	20252
900.95	20427
901.069	20488
901.189	20271
901.308	20058
901.427	19856
901.546	19928
901.665	20058
901.784	20031
901.904	19868
902.023	19814
902.141	19453
902.26	19449
902.379	19601
902.498	19411
902.617	19392
902.735	19510
902.854	19407
902.973	19187
903.091	19103
903.21	19114
903.328	19126
903.446	19015
903.565	18890
903.683	18905
903.801	18802
903.919	18913
904.038	18863
904.156	18719
904.274	18646
904.392	18795
904.51	18669
904.627	18665
904.745	18650
904.863	18566
904.981	18467
905.098	18399
905.216	18247
905.334	18304
905.451	18448
905.569	18380
905.686	18342
905.803	18410
905.921	18098
906.038	18159
906.155	18125
906.272	18041
906.389	17992
906.506	17889
906.623	17958
906.74	17927
906.857	17726
906.974	17752
907.091	17805
907.208	17950
907.324	17878
907.441	17672
907.557	17630
907.674	17577
907.79	17516
907.907	17566
908.023	17657
908.139	17581
908.256	17539
908.372	17535
908.488	17471
908.604	17353
908.72	17330
908.836	17318
908.952	17102
909.068	17330
909.184	17273
909.3	17337
909.415	17311
909.531	17220
909.647	17098
909.762	17033
909.878	16980
909.993	17037
910.108	17048
910.224	17014
910.339	17045
910.454	16885
910.57	16847
910.685	16710
910.8	17037
910.915	17025
911.03	16877
911.145	16805
911.259	16611
911.374	16645
911.489	16565
911.604	16554
911.718	16421
911.833	16333
911.947	16166
912.062	16185
912.176	16249
912.291	16405
912.405	16310
912.519	16504
912.633	16577
912.748	16379
912.862	16219
912.976	16253
913.09	16044
913.204	16223
913.318	16128
913.431	16360
913.545	16230
913.659	16246
913.772	16105
913.886	15892
914	15994
914.113	15979
914.226	16078
914.34	15983
914.453	15789
914.566	15918
914.68	15743
914.793	15755
914.906	15576
915.019	15511
915.132	15500
915.245	15450
915.358	15504
915.47	15492
915.583	15572
915.696	15538
915.809	15618
915.921	15606
916.034	15534
916.146	15382
916.259	15332
916.371	15462
916.483	15359
916.595	15348
916.708	15393
916.82	15359
916.932	15329
917.044	15340
917.156	15340
917.268	15093
917.38	15184
917.491	15104
917.603	15093
917.715	15104
917.826	15256
917.938	15100
918.049	14937
918.161	15108
918.272	15287
918.384	15222
918.495	15226
918.606	14857
918.717	14861
918.828	14918
918.939	14967
919.05	14815
919.161	14906
919.272	14735
919.383	14781
919.494	14921
919.604	15165
919.715	14887
919.826	14823
919.936	14746
920.047	14933
920.157	14887
920.267	15039
920.378	14864
920.488	14864
920.598	14963
920.708	15055
920.818	14948
920.928	14902
921.038	15108
921.148	15131
921.258	14941
921.368	14746
921.477	14617
921.587	14533
921.697	14415
921.806	14705
921.916	14480
922.025	14294
922.134	14256
922.244	14221
922.353	14252
922.462	14111
922.571	14069
922.68	13871
922.789	13902
922.898	13887
923.007	13807
923.116	13951
923.224	13852
923.333	13856
923.442	13753
923.55	13712
923.659	13662
923.767	13814
923.876	13647
923.984	13788
924.092	13594
924.201	13578
924.309	13628
924.417	13605
924.525	13510
924.633	13567
924.741	14286
924.849	13320
924.956	13453
925.064	13373
925.172	13164
925.279	13259
925.387	13343
925.494	13263
925.602	13362
925.709	13316
925.816	13137
925.924	13225
926.031	13373
926.138	13206
926.245	13213
926.352	13129
926.459	13225
926.566	13251
926.673	13133
926.779	12954
926.886	13042
926.993	12795
927.099	12886
927.206	12825
927.312	12738
927.419	12772
927.525	12878
927.631	12882
927.737	12738
927.843	12669
927.95	12540
928.056	12612
928.162	12604
928.267	12768
928.373	13308
928.479	12654
928.585	12555
928.69	12528
928.796	12646
928.901	12547
929.007	12357
929.112	12525
929.218	12464
929.323	12380
929.428	12433
929.533	12479
929.638	12330
929.743	12315
929.848	12372
929.953	12353
930.058	12235
930.163	12072
930.267	12007
930.372	12258
930.477	11984
930.581	12300
930.685	12117
930.79	12019
930.894	12034
930.998	11885
931.103	12155
931.207	11760
931.311	11623
931.415	11646
931.519	11349
931.623	11341
