Data from test_V78500241_803.txt Node
Date: Fri Mar 25 15:15:26 CST 2022
User: usil
Spectrometer: V785-0024
Trigger mode: 0
Integration Time (sec): 4.000000E-1
Scans to average: 1
Nonlinearity correction enabled: false
Boxcar width: 0
Storing dark spectrum: false
XAxis mode: Wavelengths
Number of Pixels in Spectrum: 1024
>>>>>Begin Spectral Data<<<<<
801.071	28188
801.214	28059
801.356	28002
801.499	28051
801.641	27823
801.783	27819
801.926	27934
802.068	27838
802.211	27785
802.353	27705
802.496	27523
802.638	27462
802.78	27481
802.923	27496
803.065	27523
803.208	27458
803.35	27473
803.492	27603
803.635	27751
803.777	27545
803.919	27675
804.061	27972
804.204	27705
804.346	27534
804.488	27698
804.63	27663
804.773	27606
804.915	27717
805.057	27884
805.199	27800
805.341	27739
805.483	27842
805.626	27895
805.768	27667
805.91	27755
806.052	27930
806.194	27846
806.336	27991
806.478	27888
806.62	28013
806.762	28025
806.904	28173
807.046	28379
807.188	28333
807.33	28287
807.472	28284
807.614	28246
807.756	28192
807.898	28147
808.04	28055
808.182	28063
808.324	28322
808.465	28105
808.607	28481
808.749	28565
808.891	28573
809.033	28599
809.174	28565
809.316	28660
809.458	28577
809.6	28478
809.741	28668
809.883	28664
810.025	28839
810.166	28668
810.308	28759
810.45	28805
810.591	28706
810.733	28546
810.875	28474
811.016	28348
811.158	28459
811.299	28523
811.441	28698
811.582	28569
811.724	28500
811.865	28360
812.007	28500
812.148	28386
812.29	28451
812.431	28637
812.573	28888
812.714	28953
812.855	29003
812.997	29136
813.138	29239
813.279	29155
813.421	29094
813.562	29151
813.703	28862
813.845	28774
813.986	28538
814.127	28409
814.268	28257
814.41	28310
814.551	28131
814.692	28398
814.833	28112
814.974	28181
815.115	28249
815.256	28086
815.397	28196
815.539	28105
815.68	28131
815.821	27949
815.962	28010
816.103	28074
816.244	27854
816.385	27759
816.526	27816
816.666	27663
816.807	27564
816.948	27625
817.089	27496
817.23	27534
817.371	27637
817.512	27534
817.653	27660
817.793	27447
817.934	27515
818.075	27641
818.216	27515
818.356	27477
818.497	27393
818.638	27245
818.778	27344
818.919	27272
819.06	27416
819.2	27435
819.341	27458
819.481	27603
819.622	27720
819.762	27880
819.903	27823
820.043	27701
820.184	27747
820.324	27701
820.465	27694
820.605	27553
820.746	27698
820.886	27587
821.026	27568
821.167	27603
821.307	27656
821.447	27580
821.588	27447
821.728	27291
821.868	27233
822.008	26925
822.149	27009
822.289	27043
822.429	26735
822.569	26655
822.709	26678
822.849	26568
822.99	26465
823.13	26457
823.27	26396
823.41	26453
823.55	26168
823.69	26358
823.83	26259
823.97	26259
824.11	26199
824.25	26115
824.389	26199
824.529	26328
824.669	26100
824.809	26294
824.949	26370
825.089	26256
825.228	26267
825.368	25852
825.508	26164
825.648	26084
825.787	25986
825.927	26138
826.067	26062
826.206	26058
826.346	26069
826.485	26145
826.625	26092
826.765	26115
826.904	26024
827.044	25772
827.183	25681
827.323	25852
827.462	25807
827.601	25784
827.741	25795
827.88	25833
828.02	25700
828.159	25624
828.298	25845
828.437	25830
828.577	25715
828.716	25833
828.855	25784
828.994	25537
829.134	25415
829.273	25415
829.412	25495
829.551	25274
829.69	25483
829.829	25438
829.968	25533
830.107	25411
830.246	25502
830.385	25438
830.524	25213
830.663	25240
830.802	25255
830.941	25072
831.08	25046
831.219	25133
831.357	25179
831.496	25304
831.635	25103
831.774	24852
831.913	24924
832.051	24848
832.19	24886
832.329	24859
832.467	24715
832.606	24658
832.744	24578
832.883	24692
833.022	24764
833.16	24760
833.299	24719
833.437	24673
833.576	24730
833.714	24844
833.852	24909
833.991	24924
834.129	24878
834.267	24939
834.406	24677
834.544	24886
834.682	24768
834.821	24787
834.959	24920
835.097	24719
835.235	24810
835.373	24814
835.511	24722
835.65	24639
835.788	24612
835.926	24418
836.064	24441
836.202	24551
836.34	24631
836.478	24787
836.615	24719
836.753	24509
836.891	24654
837.029	24612
837.167	24635
837.305	24452
837.443	24418
837.58	24494
837.718	24475
837.856	24509
837.993	24350
838.131	24403
838.269	24304
838.406	24289
838.544	24334
838.681	23984
838.819	24015
838.956	24030
839.094	23992
839.231	23866
839.369	24083
839.506	24201
839.643	24125
839.781	23927
839.918	23832
840.055	23920
840.193	23923
840.33	23760
840.467	23748
840.604	23870
840.742	24117
840.879	23695
841.016	23821
841.153	23726
841.29	23920
841.427	23897
841.564	23828
841.701	23802
841.838	23923
841.975	23604
842.112	23615
842.249	23638
842.385	23619
842.522	23707
842.659	23619
842.796	23520
842.933	23748
843.069	23531
843.206	23596
843.343	23558
843.479	23608
843.616	23512
843.752	23284
843.889	23402
844.025	23539
844.162	23326
844.298	23414
844.435	23349
844.571	23265
844.708	23345
844.844	23501
844.98	23596
845.117	23368
845.253	23341
845.389	23181
845.525	23296
845.661	23216
845.798	23113
845.934	23204
846.07	23090
846.206	23025
846.342	23269
846.478	23086
846.614	22915
846.75	22801
846.886	22790
847.022	22820
847.158	22927
847.294	22843
847.429	22824
847.565	22873
847.701	23025
847.837	22538
847.972	22535
848.108	22607
848.244	22729
848.379	22443
848.515	22474
848.65	22379
848.786	22341
848.921	22379
849.057	22504
849.192	22531
849.328	22481
849.463	22474
849.598	22402
849.734	22272
849.869	22265
850.004	22215
850.14	22112
850.275	22204
850.41	22082
850.545	22135
850.68	22044
850.815	22177
850.95	22276
851.085	22341
851.22	22280
851.355	22124
851.49	22196
851.625	22192
851.76	22211
851.895	22101
852.03	22086
852.165	22196
852.299	22166
852.434	22223
852.569	22150
852.703	22265
852.838	22272
852.973	22185
853.107	22352
853.242	22051
853.376	22055
853.511	21941
853.645	21869
853.78	22101
853.914	22067
854.048	21979
854.183	21991
854.317	22070
854.451	22284
854.585	22010
854.72	21991
854.854	22154
854.988	21846
855.122	21911
855.256	21800
855.39	21991
855.524	22112
855.658	21926
855.792	21926
855.926	21994
856.06	21972
856.194	22025
856.327	21994
856.461	21945
856.595	21994
856.729	21972
856.862	22070
856.996	22063
857.13	22029
857.263	22082
857.397	22109
857.53	22021
857.664	21945
857.797	22013
857.931	22143
858.064	21991
858.197	21998
858.331	22013
858.464	22017
858.597	21903
858.731	21903
858.864	21949
858.997	21888
859.13	21819
859.263	21983
859.396	22093
859.529	21911
859.662	21953
859.795	21880
859.928	21930
860.061	22147
860.194	22139
860.327	22044
860.46	22025
860.592	22097
860.725	22234
860.858	22097
860.99	22048
861.123	21941
861.256	21884
861.388	21949
861.521	22896
861.653	21804
861.786	21759
861.918	21804
862.05	21869
862.183	21937
862.315	22090
862.447	22032
862.58	21949
862.712	21603
862.844	21614
862.976	21838
863.108	21709
863.24	22223
863.372	21618
863.504	21648
863.636	21709
863.768	21728
863.9	21694
864.032	21580
864.164	21557
864.296	21660
864.428	21762
864.559	21690
864.691	21732
864.823	21720
864.954	21591
865.086	21641
865.217	21698
865.349	21553
865.48	21538
865.612	21663
865.743	21656
865.875	21526
866.006	21534
866.137	21644
866.269	21542
866.4	21625
866.531	21530
866.662	21454
866.793	21393
866.924	21469
867.055	21553
867.186	21667
867.317	21511
867.448	21424
867.579	21450
867.71	21523
867.841	21382
867.972	21469
868.103	21408
868.233	21523
868.364	21568
868.495	21591
868.625	21694
868.756	21793
868.886	21667
869.017	21785
869.147	21781
869.278	21854
869.408	21709
869.539	21739
869.669	21789
869.799	21823
869.929	21854
870.06	21762
870.19	22109
870.32	21934
870.45	22025
870.58	22166
870.71	22219
870.84	22249
870.97	22226
871.1	22082
871.23	22360
871.36	22306
871.489	22192
871.619	22219
871.749	22280
871.879	22249
872.008	22462
872.138	22310
872.267	22287
872.397	22116
872.526	22188
872.656	22253
872.785	22291
872.915	22386
873.044	22360
873.173	22306
873.303	22379
873.432	22459
873.561	22527
873.69	22394
873.819	22363
873.948	22356
874.077	22417
874.206	22333
874.335	22341
874.464	22527
874.593	22531
874.722	22417
874.851	22542
874.979	22592
875.108	22664
875.237	22550
875.365	22470
875.494	22649
875.623	22713
875.751	22584
875.88	22687
876.008	22653
876.136	22656
876.265	22995
876.393	23067
876.521	22984
876.65	23071
876.778	22877
876.906	22908
877.034	22824
877.162	22835
877.29	22847
877.418	22923
877.546	22911
877.674	22809
877.802	22839
877.93	22877
878.058	22892
878.185	22820
878.313	22881
878.441	22873
878.568	22668
878.696	22839
878.824	22938
878.951	23079
879.079	23071
879.206	23170
879.333	23105
879.461	22991
879.588	23037
879.715	23041
879.842	23143
879.97	23029
880.097	22698
880.224	22672
880.351	22656
880.478	22679
880.605	22668
880.732	22759
880.859	22930
880.986	22713
881.112	22752
881.239	22580
881.366	22516
881.493	22432
881.619	22325
881.746	22272
881.872	22257
881.999	22215
882.125	22223
882.252	22398
882.378	22207
882.505	22291
882.631	22086
882.757	22051
882.883	22063
883.01	22040
883.136	21991
883.262	21987
883.388	21812
883.514	21899
883.64	21983
883.766	22025
883.892	21739
884.018	21778
884.143	21937
884.269	21960
884.395	21618
884.52	21580
884.646	21625
884.772	21538
884.897	21469
885.023	21694
885.148	21675
885.274	21713
885.399	21770
885.524	21679
885.65	21603
885.775	21682
885.9	21606
886.025	21736
886.15	21629
886.275	21603
886.4	21564
886.525	21538
886.65	21466
886.775	21500
886.9	21561
887.025	21762
887.149	21564
887.274	21378
887.399	21439
887.523	21462
887.648	21279
887.773	21214
887.897	21507
888.021	21420
888.146	21321
888.27	21492
888.395	21496
888.519	21291
888.643	21408
888.767	21393
888.891	21348
889.015	21287
889.139	21256
889.263	21142
889.387	21294
889.511	21523
889.635	21363
889.759	21192
889.883	21127
890.006	21154
890.13	21332
890.254	21066
890.377	21188
890.501	20872
890.624	20785
890.748	21009
890.871	20830
890.995	20670
891.118	20621
891.241	20750
891.364	20845
891.488	20830
891.611	20777
891.734	20689
891.857	20861
891.98	20697
892.103	20830
892.226	20731
892.349	20663
892.471	20511
892.594	20670
892.717	20655
892.839	20705
892.962	20674
893.085	20727
893.207	20613
893.33	20533
893.452	20579
893.575	20644
893.697	20617
893.819	20769
893.941	20769
894.064	20815
894.186	20571
894.308	20556
894.43	20602
894.552	20708
894.674	20602
894.796	20522
894.918	20602
895.04	20514
895.161	20785
895.283	20621
895.405	20488
895.526	20434
895.648	20598
895.769	20598
895.891	20663
896.012	20708
896.134	20731
896.255	20651
896.376	20632
896.498	20598
896.619	20720
896.74	20598
896.861	20632
896.982	20899
897.103	20994
897.224	20815
897.345	20773
897.466	20823
897.587	20857
897.708	20937
897.828	20819
897.949	20735
898.07	20606
898.19	20724
898.311	20857
898.431	20659
898.552	20838
898.672	20876
898.792	20731
898.913	20914
899.033	20708
899.153	20587
899.273	20541
899.393	20541
899.513	20765
899.633	20556
899.753	20621
899.873	20465
899.993	20518
900.113	20514
900.232	20571
900.352	20404
900.472	20362
900.591	20309
900.711	20358
900.83	20393
900.95	20541
901.069	20427
901.189	20309
901.308	20081
901.427	19780
901.546	19860
901.665	19967
901.784	19997
901.904	19864
902.023	19700
902.141	19635
902.26	19506
902.379	19651
902.498	19369
902.617	19460
902.735	19453
902.854	19453
902.973	19396
903.091	19126
903.21	19141
903.328	19072
903.446	19023
903.565	19065
903.683	18863
903.801	18798
903.919	18848
904.038	18837
904.156	18604
904.274	18783
904.392	18635
904.51	18700
904.627	18597
904.745	18665
904.863	18913
904.981	18509
905.098	18384
905.216	18334
905.334	18422
905.451	18410
905.569	18285
905.686	18414
905.803	18338
905.921	18174
906.038	18205
906.155	18205
906.272	17980
906.389	18106
906.506	17912
906.623	17931
906.74	17939
906.857	17748
906.974	17737
907.091	17946
907.208	17973
907.324	17904
907.441	17931
907.557	17703
907.674	17627
907.79	17566
907.907	17592
908.023	17695
908.139	17547
908.256	17592
908.372	17490
908.488	17474
908.604	17417
908.72	17376
908.836	17269
908.952	17261
909.068	17341
909.184	17425
909.3	17220
909.415	17341
909.531	17391
909.647	17075
909.762	17029
909.878	16957
909.993	17197
910.108	16961
910.224	16957
910.339	17025
910.454	16835
910.57	16752
910.685	16778
910.8	16987
910.915	16862
911.03	16816
911.145	16698
911.259	16569
911.374	16607
911.489	16683
911.604	16466
911.718	16284
911.833	16265
911.947	16238
912.062	16169
912.176	16299
912.291	16356
912.405	16318
912.519	16459
912.633	16527
912.748	16363
912.862	16200
912.976	16169
913.09	15983
913.204	16166
913.318	16116
913.431	16257
913.545	16185
913.659	16272
913.772	16154
913.886	15937
914	15880
914.113	15975
914.226	16055
914.34	15964
914.453	15789
914.566	16021
914.68	15819
914.793	15694
914.906	15606
915.019	15507
915.132	15511
915.245	15492
915.358	15606
915.47	15523
915.583	15568
915.696	15511
915.809	15660
915.921	15679
916.034	15416
916.146	15481
916.259	15431
916.371	15488
916.483	15408
916.595	15386
916.708	15378
916.82	15401
916.932	15329
917.044	15260
917.156	15222
917.268	15161
917.38	15188
917.491	15051
917.603	15142
917.715	15188
917.826	15233
917.938	15154
918.049	15055
918.161	15108
918.272	15241
918.384	15218
918.495	15039
918.606	14975
918.717	14880
918.828	15005
918.939	14887
919.05	14800
919.161	14937
919.272	14598
919.383	14819
919.494	15013
919.604	15097
919.715	14849
919.826	14880
919.936	14914
920.047	14990
920.157	15009
920.267	14994
920.378	14872
920.488	14880
920.598	15055
920.708	15077
920.818	15032
920.928	14990
921.038	15108
921.148	15074
921.258	14758
921.368	14716
921.477	14545
921.587	14644
921.697	14507
921.806	14560
921.916	14469
922.025	14366
922.134	14206
922.244	14142
922.353	14221
922.462	14096
922.571	14126
922.68	13841
922.789	13807
922.898	13932
923.007	13776
923.116	13841
923.224	13887
923.333	13890
923.442	13742
923.55	13696
923.659	13731
923.767	13765
923.876	13655
923.984	13761
924.092	13681
924.201	13734
924.309	13647
924.417	13643
924.525	13597
924.633	13506
924.741	14336
924.849	13422
924.956	13514
925.064	13316
925.172	13263
925.279	13194
925.387	13312
925.494	13301
925.602	13392
925.709	13301
925.816	13274
925.924	13278
926.031	13312
926.138	13251
926.245	13274
926.352	13129
926.459	13301
926.566	13282
926.673	13168
926.779	13095
926.886	13099
926.993	12833
927.099	12886
927.206	12859
927.312	12707
927.419	12856
927.525	12859
927.631	12844
927.737	12722
927.843	12753
927.95	12544
928.056	12650
928.162	12623
928.267	12753
928.373	13312
928.479	12696
928.585	12460
928.69	12612
928.796	12601
928.901	12502
929.007	12407
929.112	12513
929.218	12486
929.323	12456
929.428	12445
929.533	12429
929.638	12277
929.743	12342
929.848	12296
929.953	12433
930.058	12155
930.163	12060
930.267	12095
930.372	12220
930.477	12064
930.581	12194
930.685	12178
930.79	11942
930.894	11935
930.998	11874
931.103	12019
931.207	11592
931.311	11623
931.415	11493
931.519	11387
931.623	11326
