Data from test_V78500241_567.txt Node
Date: Fri Mar 25 15:13:48 CST 2022
User: usil
Spectrometer: V785-0024
Trigger mode: 0
Integration Time (sec): 4.000000E-1
Scans to average: 1
Nonlinearity correction enabled: false
Boxcar width: 0
Storing dark spectrum: false
XAxis mode: Wavelengths
Number of Pixels in Spectrum: 1024
>>>>>Begin Spectral Data<<<<<
801.071	26648
801.214	26579
801.356	26355
801.499	26282
801.641	26119
801.783	26126
801.926	26157
802.068	25944
802.211	25970
802.353	25906
802.496	25719
802.638	25738
802.78	25708
802.923	25620
803.065	25742
803.208	25662
803.35	25632
803.492	25772
803.635	25807
803.777	25822
803.919	25871
804.061	26164
804.204	25921
804.346	25742
804.488	25753
804.63	25734
804.773	25712
804.915	25845
805.057	26008
805.199	25936
805.341	25871
805.483	25913
805.626	26016
805.768	25811
805.91	25811
806.052	26027
806.194	25898
806.336	26039
806.478	25978
806.62	25955
806.762	25940
806.904	26172
807.046	26423
807.188	26393
807.33	26339
807.472	26320
807.614	26305
807.756	26362
807.898	26355
808.04	26138
808.182	26103
808.324	26145
808.465	26214
808.607	26271
808.749	26499
808.891	26575
809.033	26727
809.174	26503
809.316	26552
809.458	26587
809.6	26419
809.741	26667
809.883	26651
810.025	26735
810.166	26765
810.308	26921
810.45	26674
810.591	26686
810.733	26613
810.875	26488
811.016	26252
811.158	26282
811.299	26636
811.441	26492
811.582	26488
811.724	26503
811.865	26404
812.007	26488
812.148	26488
812.29	26552
812.431	26560
812.573	26838
812.714	26914
812.855	27055
812.997	27176
813.138	27306
813.279	27169
813.421	27028
813.562	27028
813.703	27017
813.845	26670
813.986	26343
814.127	26244
814.268	26164
814.41	26153
814.551	26153
814.692	26153
814.833	26153
814.974	26134
815.115	26248
815.256	26027
815.397	26073
815.539	26065
815.68	25944
815.821	25845
815.962	25845
816.103	25864
816.244	25791
816.385	25708
816.526	25597
816.666	25441
816.807	25365
816.948	25468
817.089	25540
817.23	25559
817.371	25453
817.512	25362
817.653	25324
817.793	25251
817.934	25468
818.075	25381
818.216	25373
818.356	25411
818.497	25263
818.638	25034
818.778	25069
818.919	25034
819.06	25247
819.2	25129
819.341	25247
819.481	25419
819.622	25556
819.762	25670
819.903	25685
820.043	25597
820.184	25388
820.324	25502
820.465	25483
820.605	25449
820.746	25411
820.886	25388
821.026	25430
821.167	25457
821.307	25460
821.447	25381
821.588	25282
821.728	25187
821.868	24924
822.008	24882
822.149	24825
822.289	24882
822.429	24650
822.569	24494
822.709	24585
822.849	24334
822.99	24292
823.13	24273
823.27	24289
823.41	24228
823.55	24144
823.69	24159
823.83	24178
823.97	24083
824.11	24007
824.25	23965
824.389	23950
824.529	24091
824.669	24079
824.809	24083
824.949	23977
825.089	23927
825.228	24034
825.368	23821
825.508	23821
825.648	23798
825.787	23977
825.927	23786
826.067	23764
826.206	23840
826.346	23771
826.485	23882
826.625	23863
826.765	23992
826.904	23897
827.044	23512
827.183	23642
827.323	23535
827.462	23638
827.601	23611
827.741	23539
827.88	23524
828.02	23376
828.159	23570
828.298	23611
828.437	23551
828.577	23482
828.716	23592
828.855	23478
828.994	23204
829.134	23364
829.273	23337
829.412	23143
829.551	23242
829.69	23280
829.829	23311
829.968	23330
830.107	23174
830.246	23330
830.385	23208
830.524	23261
830.663	23155
830.802	23109
830.941	22801
831.08	22877
831.219	23048
831.357	22942
831.496	23067
831.635	22889
831.774	22755
831.913	22820
832.051	22683
832.19	22698
832.329	22755
832.467	22637
832.606	22542
832.744	22542
832.883	22516
833.022	22588
833.16	22519
833.299	22717
833.437	22577
833.576	22733
833.714	22664
833.852	22713
833.991	22759
834.129	22869
834.267	22733
834.406	22618
834.544	22835
834.682	22599
834.821	22573
834.959	22713
835.097	22634
835.235	22683
835.373	22519
835.511	22550
835.65	22485
835.788	22489
835.926	22592
836.064	22287
836.202	22287
836.34	22565
836.478	22679
836.615	22497
836.753	22512
836.891	22573
837.029	22577
837.167	22466
837.305	22390
837.443	22394
837.58	22287
837.718	22386
837.856	22371
837.993	22230
838.131	22223
838.269	22169
838.406	22268
838.544	22226
838.681	22044
838.819	22010
838.956	21835
839.094	21922
839.231	21972
839.369	21979
839.506	22147
839.643	22124
839.781	21774
839.918	21774
840.055	21911
840.193	21835
840.33	21823
840.467	21728
840.604	21762
840.742	22036
840.879	21633
841.016	21709
841.153	21652
841.29	21865
841.427	21797
841.564	21915
841.701	21781
841.838	21663
841.975	21660
842.112	21610
842.249	21599
842.385	21488
842.522	21667
842.659	21568
842.796	21515
842.933	21526
843.069	21481
843.206	21454
843.343	21599
843.479	21450
843.616	21591
843.752	21317
843.889	21348
844.025	21496
844.162	21275
844.298	21359
844.435	21367
844.571	21332
844.708	21492
844.844	21477
844.98	21507
845.117	21412
845.253	21188
845.389	21249
845.525	21256
845.661	21093
845.798	20899
845.934	21066
846.07	21081
846.206	21001
846.342	21146
846.478	21039
846.614	20762
846.75	20758
846.886	20811
847.022	20899
847.158	20762
847.294	20735
847.429	20853
847.565	20864
847.701	21024
847.837	20571
847.972	20552
848.108	20564
848.244	20606
848.379	20412
848.515	20541
848.65	20507
848.786	20415
848.921	20385
849.057	20511
849.192	20499
849.328	20530
849.463	20370
849.598	20324
849.734	20309
849.869	20358
850.004	20187
850.14	20187
850.275	20214
850.41	20103
850.545	20027
850.68	20122
850.815	20180
850.95	20027
851.085	20377
851.22	20187
851.355	20237
851.49	20046
851.625	20172
851.76	20058
851.895	20134
852.03	20001
852.165	20039
852.299	20164
852.434	20309
852.569	20229
852.703	20183
852.838	20301
852.973	20351
853.107	20332
853.242	20168
853.376	20005
853.511	19879
853.645	19940
853.78	20172
853.914	19963
854.048	19928
854.183	19936
854.317	19951
854.451	20183
854.585	19887
854.72	19967
854.854	20077
854.988	19936
855.122	19902
855.256	19898
855.39	19963
855.524	19913
855.658	20001
855.792	19883
855.926	19978
856.06	20149
856.194	20130
856.327	19932
856.461	20001
856.595	19890
856.729	19860
856.862	20062
856.996	19917
857.13	20027
857.263	20149
857.397	20039
857.53	19974
857.664	19993
857.797	20012
857.931	20084
858.064	20119
858.197	20111
858.331	20039
858.464	20073
858.597	19921
858.731	19955
858.864	19856
858.997	19944
859.13	19986
859.263	20043
859.396	20024
859.529	19970
859.662	20005
859.795	19944
859.928	20058
860.061	20233
860.194	20035
860.327	20115
860.46	20039
860.592	20183
860.725	20130
860.858	20001
860.99	19955
861.123	19875
861.256	19936
861.388	19951
861.521	20754
861.653	19833
861.786	19799
861.918	19913
862.05	19841
862.183	19841
862.315	19978
862.447	19928
862.58	19909
862.712	19635
862.844	19647
862.976	19734
863.108	19845
863.24	20092
863.372	19693
863.504	19658
863.636	19620
863.768	19795
863.9	19765
864.032	19719
864.164	19582
864.296	19700
864.428	19769
864.559	19803
864.691	19784
864.823	19772
864.954	19868
865.086	19776
865.217	19658
865.349	19632
865.48	19601
865.612	19693
865.743	19738
865.875	19605
866.006	19597
866.137	19605
866.269	19575
866.4	19628
866.531	19575
866.662	19506
866.793	19468
866.924	19472
867.055	19681
867.186	19594
867.317	19502
867.448	19384
867.579	19487
867.71	19419
867.841	19434
867.972	19537
868.103	19514
868.233	19594
868.364	19548
868.495	19613
868.625	19845
868.756	19890
868.886	19670
869.017	19769
869.147	19909
869.278	19879
869.408	19780
869.539	19883
869.669	19860
869.799	19845
869.929	20046
870.06	19841
870.19	20050
870.32	20043
870.45	20199
870.58	20180
870.71	20271
870.84	20271
870.97	20252
871.1	20210
871.23	20404
871.36	20393
871.489	20252
871.619	20465
871.749	20423
871.879	20389
872.008	20400
872.138	20317
872.267	20351
872.397	20256
872.526	20199
872.656	20214
872.785	20168
872.915	20404
873.044	20590
873.173	20362
873.303	20476
873.432	20347
873.561	20583
873.69	20362
873.819	20473
873.948	20465
874.077	20438
874.206	20431
874.335	20541
874.464	20602
874.593	20613
874.722	20629
874.851	20651
874.979	20720
875.108	20697
875.237	20655
875.365	20629
875.494	20727
875.623	20910
875.751	20552
875.88	20670
876.008	20777
876.136	20902
876.265	21047
876.393	21195
876.521	21081
876.65	21070
876.778	20975
876.906	21039
877.034	21074
877.162	21119
877.29	20971
877.418	21074
877.546	20883
877.674	21077
877.802	20914
877.93	21043
878.058	20914
878.185	20963
878.313	21001
878.441	20921
878.568	20830
878.696	20914
878.824	21032
878.951	21184
879.079	21142
879.206	21272
879.333	21192
879.461	21024
879.588	21135
879.715	21142
879.842	21256
879.97	21184
880.097	20857
880.224	20883
880.351	20872
880.478	20895
880.605	20777
880.732	20811
880.859	21108
880.986	20872
881.112	20872
881.239	20838
881.366	20659
881.493	20556
881.619	20438
881.746	20514
881.872	20431
881.999	20419
882.125	20317
882.252	20438
882.378	20514
882.505	20427
882.631	20317
882.757	20191
882.883	20259
883.01	20172
883.136	20214
883.262	19997
883.388	19947
883.514	20317
883.64	20252
883.766	20195
883.892	19944
884.018	20115
884.143	20168
884.269	20164
884.395	19902
884.52	19753
884.646	19890
884.772	19772
884.897	19852
885.023	19807
885.148	19963
885.274	19955
885.399	19921
885.524	19715
885.65	19906
885.775	19811
885.9	19784
886.025	19947
886.15	19784
886.275	19791
886.4	19799
886.525	19803
886.65	19715
886.775	19685
886.9	19875
887.025	19993
887.149	19753
887.274	19696
887.399	19590
887.523	19635
887.648	19559
887.773	19533
887.897	19731
888.021	19704
888.146	19647
888.27	19628
888.395	19696
888.519	19567
888.643	19632
888.767	19696
888.891	19533
889.015	19365
889.139	19521
889.263	19460
889.387	19422
889.511	19677
889.635	19628
889.759	19270
889.883	19381
890.006	19476
890.13	19480
890.254	19247
890.377	19316
890.501	19126
890.624	19069
890.748	19320
890.871	19217
890.995	18996
891.118	18958
891.241	19061
891.364	19038
891.488	19289
891.611	19019
891.734	19069
891.857	19057
891.98	19050
892.103	19034
892.226	19008
892.349	18985
892.471	18779
892.594	19000
892.717	18878
892.839	18962
892.962	18981
893.085	19027
893.207	18943
893.33	18768
893.452	18798
893.575	18886
893.697	18875
893.819	19095
893.941	19114
894.064	19099
894.186	18894
894.308	18779
894.43	18970
894.552	19156
894.674	18989
894.796	18802
894.918	18901
895.04	18951
895.161	19110
895.283	18875
895.405	18886
895.526	18962
895.648	18928
895.769	19034
895.891	18928
896.012	19038
896.134	19042
896.255	18958
896.376	18871
896.498	18932
896.619	18947
896.74	18985
896.861	19065
896.982	19343
897.103	19449
897.224	19289
897.345	19110
897.466	19179
897.587	19156
897.708	19247
897.828	19225
897.949	19076
898.07	19080
898.19	19152
898.311	19346
898.431	19099
898.552	19168
898.672	19369
898.792	19263
898.913	19259
899.033	19137
899.153	19004
899.273	18943
899.393	18962
899.513	19012
899.633	19038
899.753	19053
899.873	18951
899.993	19015
900.113	18886
900.232	18890
900.352	18996
900.472	18844
900.591	18821
900.711	18840
900.83	18684
900.95	18913
901.069	18966
901.189	18563
901.308	18361
901.427	18384
901.546	18486
901.665	18361
901.784	18399
901.904	18258
902.023	18182
902.141	17950
902.26	18019
902.379	18125
902.498	17805
902.617	17863
902.735	17817
902.854	17863
902.973	17847
903.091	17543
903.21	17562
903.328	17444
903.446	17440
903.565	17417
903.683	17326
903.801	17345
903.919	17326
904.038	17318
904.156	17109
904.274	17353
904.392	17181
904.51	17098
904.627	17147
904.745	17189
904.863	17197
904.981	16965
905.098	16866
905.216	16729
905.334	16908
905.451	16767
905.569	16824
905.686	16835
905.803	16809
905.921	16584
906.038	16626
906.155	16626
906.272	16508
906.389	16428
906.506	16379
906.623	16409
906.74	16462
906.857	16310
906.974	16356
907.091	16516
907.208	16516
907.324	16402
907.441	16223
907.557	16253
907.674	16120
907.79	16086
907.907	16086
908.023	16029
908.139	16150
908.256	16013
908.372	16006
908.488	16040
908.604	15861
908.72	15709
908.836	15876
908.952	15797
909.068	15797
909.184	15880
909.3	15785
909.415	15899
909.531	15842
909.647	15637
909.762	15542
909.878	15515
909.993	15603
910.108	15447
910.224	15481
910.339	15595
910.454	15370
910.57	15351
910.685	15249
910.8	15660
910.915	15530
911.03	15424
911.145	15233
911.259	15123
911.374	15165
911.489	15108
911.604	15062
911.718	14982
911.833	14880
911.947	14796
912.062	14746
912.176	14872
912.291	14941
912.405	14921
912.519	15058
912.633	15032
912.748	15104
912.862	14933
912.976	14754
913.09	14636
913.204	14670
913.318	14750
913.431	14887
913.545	14765
913.659	14765
913.772	14785
913.886	14602
914	14594
914.113	14659
914.226	14583
914.34	14659
914.453	14495
914.566	14571
914.68	14469
914.793	14400
914.906	14271
915.019	14191
915.132	14191
915.245	14309
915.358	14187
915.47	14191
915.583	14233
915.696	14244
915.809	14381
915.921	14305
916.034	14240
916.146	14069
916.259	14016
916.371	14123
916.483	14119
916.595	14092
916.708	14100
916.82	14088
916.932	14016
917.044	13947
917.156	14005
917.268	14039
917.38	13902
917.491	13894
917.603	13894
917.715	13951
917.826	13970
917.938	13849
918.049	13784
918.161	13871
918.272	13978
918.384	13978
918.495	13864
918.606	13723
918.717	13571
918.828	13674
918.939	13700
919.05	13616
919.161	13677
919.272	13445
919.383	13483
919.494	13738
919.604	13795
919.715	13616
919.826	13567
919.936	13575
920.047	13670
920.157	13643
920.267	13761
920.378	13647
920.488	13495
920.598	13746
920.708	13944
920.818	13799
920.928	13772
921.038	13947
921.148	13852
921.258	13643
921.368	13613
921.477	13392
921.587	13358
921.697	13232
921.806	13419
921.916	13217
922.025	13088
922.134	13008
922.244	13023
922.353	13103
922.462	13023
922.571	12817
922.68	12738
922.789	12798
922.898	12730
923.007	12681
923.116	12787
923.224	12734
923.333	12696
923.442	12559
923.55	12509
923.659	12627
923.767	12597
923.876	12574
923.984	12631
924.092	12391
924.201	12452
924.309	12498
924.417	12521
924.525	12456
924.633	12410
924.741	13149
924.849	12262
924.956	12342
925.064	12224
925.172	12106
925.279	12235
925.387	12186
925.494	12144
925.602	12319
925.709	12251
925.816	12079
925.924	12030
926.031	12285
926.138	12133
926.245	12220
926.352	12053
926.459	12129
926.566	12148
926.673	12117
926.779	11939
926.886	11950
926.993	11733
927.099	11775
927.206	11771
927.312	11737
927.419	11745
927.525	11722
927.631	11824
927.737	11630
927.843	11619
927.95	11543
928.056	11535
928.162	11589
928.267	11611
928.373	12277
928.479	11653
928.585	11463
928.69	11562
928.796	11649
928.901	11444
929.007	11296
929.112	11535
929.218	11414
929.323	11360
929.428	11353
929.533	11505
929.638	11197
929.743	11341
929.848	11311
929.953	11322
930.058	11220
930.163	11006
930.267	11083
930.372	11189
930.477	11117
930.581	11193
930.685	11113
930.79	10984
930.894	10965
930.998	10923
931.103	11067
931.207	10710
931.311	10615
931.415	10542
931.519	10375
931.623	10371
