Data from test_V78500241_2129.txt Node
Date: Fri Mar 25 15:24:41 CST 2022
User: usil
Spectrometer: V785-0024
Trigger mode: 0
Integration Time (sec): 4.000000E-1
Scans to average: 1
Nonlinearity correction enabled: false
Boxcar width: 0
Storing dark spectrum: false
XAxis mode: Wavelengths
Number of Pixels in Spectrum: 1024
>>>>>Begin Spectral Data<<<<<
801.071	27367
801.214	27378
801.356	27096
801.499	27161
801.641	27039
801.783	26925
801.926	27055
802.068	26857
802.211	27017
802.353	26880
802.496	26785
802.638	26720
802.78	26625
802.923	26568
803.065	26431
803.208	26590
803.35	26678
803.492	26788
803.635	26765
803.777	26659
803.919	26815
804.061	27108
804.204	26701
804.346	26701
804.488	26724
804.63	26800
804.773	26754
804.915	26765
805.057	26956
805.199	26682
805.341	26830
805.483	26804
805.626	26857
805.768	26800
805.91	26948
806.052	26944
806.194	26883
806.336	26990
806.478	26933
806.62	26804
806.762	27047
806.904	27169
807.046	27504
807.188	27405
807.33	27294
807.472	27317
807.614	27218
807.756	27222
807.898	27188
808.04	27188
808.182	27211
808.324	27150
808.465	27199
808.607	27321
808.749	27534
808.891	27656
809.033	27690
809.174	27629
809.316	27530
809.458	27587
809.6	27511
809.741	27580
809.883	27572
810.025	27728
810.166	27876
810.308	27736
810.45	27812
810.591	27648
810.733	27614
810.875	27485
811.016	27393
811.158	27317
811.299	27530
811.441	27690
811.582	27606
811.724	27572
811.865	27427
812.007	27622
812.148	27397
812.29	27583
812.431	27800
812.573	27914
812.714	27895
812.855	28093
812.997	28173
813.138	28192
813.279	28200
813.421	28025
813.562	27975
813.703	27816
813.845	27774
813.986	27488
814.127	27344
814.268	27302
814.41	27203
814.551	27138
814.692	27252
814.833	27245
814.974	27165
815.115	27180
815.256	27093
815.397	26948
815.539	27214
815.68	26872
815.821	26788
815.962	26994
816.103	27051
816.244	26781
816.385	26727
816.526	26800
816.666	26526
816.807	26476
816.948	26556
817.089	26663
817.23	26438
817.371	26503
817.512	26533
817.653	26385
817.793	26385
817.934	26381
818.075	26484
818.216	26446
818.356	26469
818.497	26328
818.638	26130
818.778	26199
818.919	26142
819.06	26183
819.2	26396
819.341	26389
819.481	26442
819.622	26590
819.762	26868
819.903	26678
820.043	26716
820.184	26533
820.324	26446
820.465	26560
820.605	26469
820.746	26461
820.886	26415
821.026	26453
821.167	26488
821.307	26541
821.447	26427
821.588	26381
821.728	26168
821.868	26050
822.008	25913
822.149	25909
822.289	25932
822.429	25814
822.569	25624
822.709	25605
822.849	25441
822.99	25476
823.13	25365
823.27	25297
823.41	25339
823.55	25122
823.69	25183
823.83	25228
823.97	25168
824.11	25107
824.25	25076
824.389	25061
824.529	25160
824.669	25008
824.809	25133
824.949	25187
825.089	25213
825.228	25076
825.368	24886
825.508	25034
825.648	24909
825.787	25080
825.927	24996
826.067	24954
826.206	24935
826.346	24973
826.485	24802
826.625	24890
826.765	24958
826.904	24954
827.044	24783
827.183	24639
827.323	24646
827.462	24688
827.601	24540
827.741	24623
827.88	24753
828.02	24460
828.159	24673
828.298	24669
828.437	24650
828.577	24441
828.716	24753
828.855	24540
828.994	24407
829.134	24213
829.273	24372
829.412	24315
829.551	24239
829.69	24281
829.829	24330
829.968	24407
830.107	24467
830.246	24327
830.385	24277
830.524	24319
830.663	24254
830.802	23931
830.941	23958
831.08	23908
831.219	23931
831.357	23942
831.496	24129
831.635	23893
831.774	23813
831.913	23790
832.051	23619
832.19	23649
832.329	23722
832.467	23600
832.606	23646
832.744	23543
832.883	23577
833.022	23554
833.16	23649
833.299	23649
833.437	23687
833.576	23672
833.714	23638
833.852	23756
833.991	23691
834.129	23775
834.267	23752
834.406	23619
834.544	23703
834.682	23722
834.821	23676
834.959	23798
835.097	23646
835.235	23676
835.373	23512
835.511	23592
835.65	23478
835.788	23421
835.926	23372
836.064	23254
836.202	23356
836.34	23471
836.478	23551
836.615	23478
836.753	23490
836.891	23414
837.029	23554
837.167	23493
837.305	23292
837.443	23421
837.58	23349
837.718	23379
837.856	23341
837.993	23261
838.131	23284
838.269	23231
838.406	23330
838.544	23220
838.681	23006
838.819	22938
838.956	22774
839.094	22694
839.231	22771
839.369	23014
839.506	23261
839.643	23151
839.781	22900
839.918	22744
840.055	22782
840.193	22839
840.33	22812
840.467	22607
840.604	22565
840.742	22957
840.879	22710
841.016	22679
841.153	22531
841.29	22908
841.427	22729
841.564	22710
841.701	22717
841.838	22634
841.975	22538
842.112	22672
842.249	22474
842.385	22459
842.522	22706
842.659	22481
842.796	22527
842.933	22455
843.069	22409
843.206	22485
843.343	22497
843.479	22405
843.616	22561
843.752	22284
843.889	22284
844.025	22421
844.162	22196
844.298	22348
844.435	22143
844.571	22310
844.708	22268
844.844	22447
844.98	22394
845.117	22272
845.253	22253
845.389	22223
845.525	22078
845.661	21994
845.798	22002
845.934	22143
846.07	21907
846.206	22067
846.342	22226
846.478	22025
846.614	21736
846.75	21698
846.886	21720
847.022	21816
847.158	21709
847.294	21732
847.429	21728
847.565	21644
847.701	21918
847.837	21473
847.972	21424
848.108	21545
848.244	21545
848.379	21378
848.515	21249
848.65	21195
848.786	21233
848.921	21325
849.057	21408
849.192	21389
849.328	21355
849.463	21378
849.598	21268
849.734	21241
849.869	21222
850.004	20979
850.14	21245
850.275	21207
850.41	20971
850.545	21055
850.68	21096
850.815	21104
850.95	21100
851.085	21233
851.22	21211
851.355	21077
851.49	20910
851.625	20994
851.76	21024
851.895	20929
852.03	20990
852.165	21112
852.299	21135
852.434	21230
852.569	21112
852.703	21127
852.838	21192
852.973	21302
853.107	21332
853.242	20895
853.376	20971
853.511	20811
853.645	20807
853.78	20986
853.914	20918
854.048	20781
854.183	20979
854.317	20910
854.451	21089
854.585	20979
854.72	20929
854.854	21089
854.988	20830
855.122	20941
855.256	20842
855.39	20941
855.524	21089
855.658	20971
855.792	20895
855.926	20956
856.06	20883
856.194	20933
856.327	20902
856.461	20849
856.595	20773
856.729	20853
856.862	20982
856.996	20880
857.13	20998
857.263	21009
857.397	20921
857.53	20941
857.664	20948
857.797	21001
857.931	21039
858.064	20921
858.197	21081
858.331	20880
858.464	20895
858.597	20777
858.731	20788
858.864	20880
858.997	20815
859.13	20944
859.263	20975
859.396	21001
859.529	20830
859.662	20819
859.795	20876
859.928	20967
860.061	21100
860.194	21142
860.327	20948
860.46	20815
860.592	21100
860.725	21005
860.858	21074
860.99	20876
861.123	20800
861.256	20952
861.388	20830
861.521	21561
861.653	20777
861.786	20689
861.918	20792
862.05	20697
862.183	20781
862.315	20861
862.447	20921
862.58	20807
862.712	20670
862.844	20632
862.976	20777
863.108	20716
863.24	21150
863.372	20518
863.504	20640
863.636	20473
863.768	20765
863.9	20621
864.032	20575
864.164	20465
864.296	20651
864.428	20701
864.559	20640
864.691	20697
864.823	20701
864.954	20640
865.086	20526
865.217	20617
865.349	20446
865.48	20480
865.612	20431
865.743	20651
865.875	20533
866.006	20571
866.137	20461
866.269	20503
866.4	20518
866.531	20412
866.662	20351
866.793	20339
866.924	20434
867.055	20457
867.186	20495
867.317	20522
867.448	20355
867.579	20400
867.71	20290
867.841	20434
867.972	20450
868.103	20351
868.233	20530
868.364	20465
868.495	20522
868.625	20655
868.756	20815
868.886	20648
869.017	20678
869.147	20785
869.278	20910
869.408	20765
869.539	20693
869.669	20796
869.799	20686
869.929	20807
870.06	20834
870.19	20921
870.32	21024
870.45	21100
870.58	21043
870.71	21211
870.84	21135
870.97	21108
871.1	21089
871.23	21142
871.36	21199
871.489	21157
871.619	21340
871.749	21302
871.879	21374
872.008	21355
872.138	21412
872.267	21116
872.397	21180
872.526	21043
872.656	21199
872.785	21127
872.915	21317
873.044	21298
873.173	21336
873.303	21443
873.432	21176
873.561	21424
873.69	21336
873.819	21294
873.948	21336
874.077	21340
874.206	21298
874.335	21298
874.464	21492
874.593	21519
874.722	21549
874.851	21671
874.979	21454
875.108	21641
875.237	21545
875.365	21466
875.494	21523
875.623	21629
875.751	21435
875.88	21580
876.008	21698
876.136	21732
876.265	21964
876.393	22021
876.521	21907
876.65	21975
876.778	21972
876.906	21785
877.034	21899
877.162	21956
877.29	21838
877.418	21888
877.546	21926
877.674	21979
877.802	21861
877.93	21937
878.058	21857
878.185	21736
878.313	21926
878.441	21694
878.568	21739
878.696	21759
878.824	21930
878.951	21937
879.079	22055
879.206	22234
879.333	22105
879.461	21911
879.588	21930
879.715	22128
879.842	22124
879.97	22013
880.097	21736
880.224	21686
880.351	21797
880.478	21755
880.605	21709
880.732	21603
880.859	21880
880.986	21694
881.112	21789
881.239	21572
881.366	21412
881.493	21355
881.619	21173
881.746	21321
881.872	21321
881.999	21214
882.125	21237
882.252	21268
882.378	21310
882.505	21507
882.631	21294
882.757	21104
882.883	21058
883.01	21017
883.136	20941
883.262	20834
883.388	20902
883.514	21104
883.64	21066
883.766	20830
883.892	20765
884.018	20792
884.143	20963
884.269	21055
884.395	20716
884.52	20667
884.646	20754
884.772	20606
884.897	20583
885.023	20796
885.148	20792
885.274	20735
885.399	20807
885.524	20526
885.65	20746
885.775	20640
885.9	20613
886.025	20804
886.15	20823
886.275	20568
886.4	20571
886.525	20549
886.65	20686
886.775	20545
886.9	20678
887.025	20743
887.149	20663
887.274	20457
887.399	20503
887.523	20389
887.648	20400
887.773	20377
887.897	20461
888.021	20484
888.146	20347
888.27	20564
888.395	20427
888.519	20423
888.643	20457
888.767	20374
888.891	20358
889.015	20221
889.139	20370
889.263	20199
889.387	20343
889.511	20427
889.635	20442
889.759	20134
889.883	20126
890.006	20286
890.13	20176
890.254	20149
890.377	20031
890.501	20065
890.624	19989
890.748	20020
890.871	19860
890.995	19715
891.118	19795
891.241	19849
891.364	19799
891.488	19883
891.611	19738
891.734	19765
891.857	19822
891.98	19757
892.103	19765
892.226	19708
892.349	19951
892.471	19609
892.594	19750
892.717	19784
892.839	19723
892.962	19674
893.085	19658
893.207	19746
893.33	19605
893.452	19674
893.575	19841
893.697	19681
893.819	19742
893.941	19852
894.064	19871
894.186	19586
894.308	19681
894.43	19814
894.552	19883
894.674	19753
894.796	19624
894.918	19689
895.04	19632
895.161	19795
895.283	19757
895.405	19655
895.526	19765
895.648	19712
895.769	19746
895.891	19731
896.012	19856
896.134	19723
896.255	19632
896.376	19734
896.498	19647
896.619	19776
896.74	19769
896.861	19753
896.982	20065
897.103	20180
897.224	19887
897.345	19879
897.466	19837
897.587	19898
897.708	20031
897.828	20016
897.949	19788
898.07	19795
898.19	19902
898.311	20081
898.431	19902
898.552	19925
898.672	19913
898.792	20081
898.913	19997
899.033	19906
899.153	19704
899.273	19715
899.393	19769
899.513	19772
899.633	19715
899.753	19635
899.873	19696
899.993	19772
900.113	19613
900.232	19620
900.352	19689
900.472	19540
900.591	19537
900.711	19544
900.83	19350
900.95	19613
901.069	19582
901.189	19388
901.308	19126
901.427	19042
901.546	19004
901.665	19225
901.784	19095
901.904	18882
902.023	18962
902.141	18681
902.26	18677
902.379	18585
902.498	18601
902.617	18506
902.735	18616
902.854	18570
902.973	18593
903.091	18258
903.21	18330
903.328	18266
903.446	18197
903.565	18087
903.683	18038
903.801	17904
903.919	18045
904.038	17984
904.156	17878
904.274	18053
904.392	17843
904.51	17908
904.627	17760
904.745	17756
904.863	17779
904.981	17604
905.098	17516
905.216	17482
905.334	17539
905.451	17585
905.569	17551
905.686	17570
905.803	17478
905.921	17288
906.038	17433
906.155	17440
906.272	17223
906.389	17296
906.506	16949
906.623	17056
906.74	17128
906.857	16976
906.974	16942
907.091	17086
907.208	17143
907.324	17003
907.441	16866
907.557	16774
907.674	16809
907.79	16744
907.907	16812
908.023	16733
908.139	16698
908.256	16679
908.372	16679
908.488	16615
908.604	16538
908.72	16417
908.836	16504
908.952	16417
909.068	16599
909.184	16558
909.3	16611
909.415	16512
909.531	16508
909.647	16337
909.762	16348
909.878	16261
909.993	16200
910.108	16268
910.224	16177
910.339	16185
910.454	16013
910.57	16040
910.685	15972
910.8	16238
910.915	16074
911.03	15979
911.145	15838
911.259	15823
911.374	15846
911.489	15842
911.604	15614
911.718	15625
911.833	15614
911.947	15469
912.062	15344
912.176	15416
912.291	15564
912.405	15542
912.519	15694
912.633	15732
912.748	15568
912.862	15469
912.976	15443
913.09	15344
913.204	15378
913.318	15336
913.431	15519
913.545	15374
913.659	15462
913.772	15321
913.886	15195
914	15165
914.113	15233
914.226	15287
914.34	15306
914.453	15013
914.566	15169
914.68	15058
914.793	15013
914.906	14899
915.019	14781
915.132	14720
915.245	14758
915.358	14804
915.47	14701
915.583	14777
915.696	14735
915.809	14941
915.921	14925
916.034	14830
916.146	14705
916.259	14693
916.371	14750
916.483	14727
916.595	14689
916.708	14590
916.82	14613
916.932	14655
917.044	14575
917.156	14507
917.268	14381
917.38	14560
917.491	14381
917.603	14492
917.715	14514
917.826	14530
917.938	14427
918.049	14199
918.161	14404
918.272	14545
918.384	14419
918.495	14400
918.606	14229
918.717	14107
918.828	14202
918.939	14202
919.05	14107
919.161	14225
919.272	13970
919.383	14027
919.494	14233
919.604	14412
919.715	14244
919.826	14130
919.936	14164
920.047	14199
920.157	14172
920.267	14438
920.378	14225
920.488	14199
920.598	14362
920.708	14560
920.818	14309
920.928	14286
921.038	14530
921.148	14381
921.258	14199
921.368	14005
921.477	13925
921.587	13947
921.697	13761
921.806	13936
921.916	13772
922.025	13639
922.134	13639
922.244	13468
922.353	13647
922.462	13430
922.571	13365
922.68	13217
922.789	13270
922.898	13228
923.007	13118
923.116	13175
923.224	13274
923.333	13198
923.442	13179
923.55	13099
923.659	13095
923.767	13080
923.876	13015
923.984	13095
924.092	12951
924.201	12962
924.309	12977
924.417	12951
924.525	12897
924.633	12825
924.741	13769
924.849	12688
924.956	12871
925.064	12608
925.172	12650
925.279	12631
925.387	12654
925.494	12696
925.602	12787
925.709	12741
925.816	12574
925.924	12650
926.031	12665
926.138	12593
926.245	12540
926.352	12540
926.459	12688
926.566	12639
926.673	12517
926.779	12429
926.886	12445
926.993	12262
927.099	12262
927.206	12129
927.312	12163
927.419	12330
927.525	12216
927.631	12262
927.737	12129
927.843	12083
927.95	11965
928.056	12038
928.162	12076
928.267	12076
928.373	12741
928.479	12216
928.585	11882
928.69	12064
928.796	12060
928.901	11931
929.007	11798
929.112	11863
929.218	11889
929.323	11855
929.428	11695
929.533	11961
929.638	11790
929.743	11718
929.848	11805
929.953	11748
930.058	11646
930.163	11520
930.267	11535
930.372	11646
930.477	11417
930.581	11676
930.685	11592
930.79	11391
930.894	11376
930.998	11284
931.103	11467
931.207	11098
931.311	11052
931.415	10987
931.519	10824
931.623	10774
