Data from test_V78500241_1862.txt Node
Date: Fri Mar 25 15:22:49 CST 2022
User: usil
Spectrometer: V785-0024
Trigger mode: 0
Integration Time (sec): 4.000000E-1
Scans to average: 1
Nonlinearity correction enabled: false
Boxcar width: 0
Storing dark spectrum: false
XAxis mode: Wavelengths
Number of Pixels in Spectrum: 1024
>>>>>Begin Spectral Data<<<<<
801.071	27690
801.214	27682
801.356	27447
801.499	27443
801.641	27283
801.783	27233
801.926	27291
802.068	27211
802.211	27173
802.353	27100
802.496	26982
802.638	26982
802.78	26891
802.923	26765
803.065	26914
803.208	26773
803.35	26864
803.492	27138
803.635	27192
803.777	27032
803.919	27119
804.061	27420
804.204	27195
804.346	27070
804.488	26982
804.63	27096
804.773	26880
804.915	26921
805.057	27146
805.199	27036
805.341	27138
805.483	27264
805.626	27112
805.768	27214
805.91	27127
806.052	27199
806.194	27116
806.336	27393
806.478	27268
806.62	27287
806.762	27306
806.904	27473
807.046	27694
807.188	27717
807.33	27477
807.472	27576
807.614	27622
807.756	27557
807.898	27401
808.04	27397
808.182	27435
808.324	27397
808.465	27469
808.607	27793
808.749	27785
808.891	27873
809.033	28032
809.174	27831
809.316	27895
809.458	27873
809.6	27819
809.741	27972
809.883	27975
810.025	28185
810.166	28219
810.308	28082
810.45	28090
810.591	27922
810.733	27930
810.875	27724
811.016	27679
811.158	27641
811.299	28002
811.441	27918
811.582	27819
811.724	27892
811.865	27766
812.007	27816
812.148	27759
812.29	27884
812.431	28116
812.573	28109
812.714	28356
812.855	28386
812.997	28432
813.138	28535
813.279	28519
813.421	28474
813.562	28443
813.703	28154
813.845	27956
813.986	27724
814.127	27523
814.268	27572
814.41	27534
814.551	27466
814.692	27534
814.833	27443
814.974	27405
815.115	27564
815.256	27523
815.397	27370
815.539	27378
815.68	27386
815.821	27237
815.962	27382
816.103	27321
816.244	27062
816.385	27100
816.526	27112
816.666	26918
816.807	26746
816.948	26830
817.089	26952
817.23	26762
817.371	26777
817.512	26819
817.653	26891
817.793	26804
817.934	26792
818.075	26849
818.216	26902
818.356	26819
818.497	26648
818.638	26537
818.778	26602
818.919	26568
819.06	26518
819.2	26743
819.341	26617
819.481	26777
819.622	26960
819.762	27195
819.903	27066
820.043	27005
820.184	26861
820.324	26963
820.465	27047
820.605	27058
820.746	26842
820.886	26754
821.026	26838
821.167	26948
821.307	26982
821.447	26823
821.588	26739
821.728	26625
821.868	26518
822.008	26237
822.149	26324
822.289	26362
822.429	26138
822.569	25997
822.709	26050
822.849	25795
822.99	25868
823.13	25795
823.27	25791
823.41	25578
823.55	25514
823.69	25685
823.83	25681
823.97	25518
824.11	25384
824.25	25316
824.389	25365
824.529	25544
824.669	25411
824.809	25597
824.949	25578
825.089	25491
825.228	25476
825.368	25156
825.508	25247
825.648	25312
825.787	25217
825.927	25426
826.067	25270
826.206	25373
826.346	25377
826.485	25316
826.625	25266
826.765	25460
826.904	25297
827.044	24939
827.183	25141
827.323	25099
827.462	25194
827.601	25126
827.741	25282
827.88	25084
828.02	24897
828.159	24962
828.298	25091
828.437	24989
828.577	24890
828.716	25091
828.855	24932
828.994	24764
829.134	24700
829.273	24764
829.412	24791
829.551	24658
829.69	24745
829.829	24829
829.968	24806
830.107	24837
830.246	24810
830.385	24726
830.524	24661
830.663	24669
830.802	24528
830.941	24441
831.08	24334
831.219	24471
831.357	24445
831.496	24483
831.635	24190
831.774	24334
831.913	24327
832.051	24155
832.19	24186
832.329	24186
832.467	24117
832.606	23946
832.744	23916
832.883	23889
833.022	23961
833.16	24026
833.299	23961
833.437	24136
833.576	24125
833.714	23980
833.852	24095
833.991	24091
834.129	24235
834.267	24136
834.406	24159
834.544	24167
834.682	24243
834.821	24114
834.959	24190
835.097	23973
835.235	24049
835.373	24049
835.511	24026
835.65	23973
835.788	23923
835.926	23737
836.064	23760
836.202	23809
836.34	23885
836.478	23912
836.615	23897
836.753	23859
836.891	23980
837.029	24018
837.167	23954
837.305	23817
837.443	23809
837.58	23699
837.718	23897
837.856	23790
837.993	23737
838.131	23783
838.269	23638
838.406	23764
838.544	23589
838.681	23398
838.819	23551
838.956	23060
839.094	23258
839.231	23364
839.369	23448
839.506	23752
839.643	23448
839.781	23261
839.918	23227
840.055	23303
840.193	23136
840.33	23174
840.467	23242
840.604	23140
840.742	23478
840.879	23041
841.016	23044
841.153	23067
841.29	23265
841.427	23147
841.564	23162
841.701	23159
841.838	23079
841.975	23018
842.112	23083
842.249	22995
842.385	22854
842.522	23079
842.659	22965
842.796	22949
842.933	22854
843.069	22873
843.206	22889
843.343	23037
843.479	23056
843.616	22984
843.752	22668
843.889	22683
844.025	22782
844.162	22641
844.298	22862
844.435	22748
844.571	22668
844.708	22778
844.844	22900
844.98	22869
845.117	22820
845.253	22694
845.389	22466
845.525	22603
845.661	22660
845.798	22523
845.934	22432
846.07	22341
846.206	22443
846.342	22531
846.478	22398
846.614	22074
846.75	22109
846.886	22139
847.022	22234
847.158	22303
847.294	22105
847.429	22219
847.565	22150
847.701	22447
847.837	22013
847.972	21960
848.108	22048
848.244	21964
848.379	21804
848.515	21759
848.65	21743
848.786	21724
848.921	21873
849.057	21903
849.192	21895
849.328	21831
849.463	21652
849.598	21694
849.734	21648
849.869	21644
850.004	21580
850.14	21477
850.275	21564
850.41	21401
850.545	21386
850.68	21458
850.815	21576
850.95	21538
851.085	21739
851.22	21660
851.355	21545
851.49	21466
851.625	21424
851.76	21618
851.895	21526
852.03	21439
852.165	21648
852.299	21526
852.434	21667
852.569	21462
852.703	21587
852.838	21515
852.973	21682
853.107	21576
853.242	21557
853.376	21370
853.511	21275
853.645	21393
853.78	21462
853.914	21405
854.048	21272
854.183	21382
854.317	21420
854.451	21564
854.585	21294
854.72	21313
854.854	21447
854.988	21222
855.122	21268
855.256	21211
855.39	21424
855.524	21428
855.658	21370
855.792	21458
855.926	21351
856.06	21389
856.194	21336
856.327	21424
856.461	21291
856.595	21336
856.729	21260
856.862	21405
856.996	21424
857.13	21393
857.263	21523
857.397	21431
857.53	21329
857.664	21321
857.797	21386
857.931	21428
858.064	21401
858.197	21454
858.331	21348
858.464	21393
858.597	21275
858.731	21313
858.864	21302
858.997	21192
859.13	21218
859.263	21367
859.396	21447
859.529	21332
859.662	21447
859.795	21401
859.928	21393
860.061	21545
860.194	21530
860.327	21492
860.46	21477
860.592	21401
860.725	21496
860.858	21576
860.99	21389
861.123	21291
861.256	21260
861.388	21447
861.521	21983
861.653	21214
861.786	21051
861.918	21154
862.05	21154
862.183	21256
862.315	21260
862.447	21329
862.58	21359
862.712	21112
862.844	21070
862.976	21127
863.108	21112
863.24	21485
863.372	20975
863.504	21039
863.636	21085
863.768	21169
863.9	21058
864.032	20967
864.164	21005
864.296	21173
864.428	21058
864.559	21157
864.691	21036
864.823	21123
864.954	21096
865.086	20998
865.217	21062
865.349	20895
865.48	20902
865.612	21047
865.743	21135
865.875	21051
866.006	21055
866.137	21032
866.269	20937
866.4	20929
866.531	20872
866.662	20826
866.793	20864
866.924	20826
867.055	20960
867.186	20872
867.317	20853
867.448	20800
867.579	20762
867.71	20807
867.841	20800
867.972	20895
868.103	20990
868.233	20880
868.364	21001
868.495	20982
868.625	21169
868.756	21104
868.886	21081
869.017	21089
869.147	21268
869.278	21192
869.408	21237
869.539	21085
869.669	21214
869.799	21116
869.929	21241
870.06	21184
870.19	21374
870.32	21428
870.45	21428
870.58	21454
870.71	21633
870.84	21595
870.97	21504
871.1	21587
871.23	21656
871.36	21724
871.489	21545
871.619	21682
871.749	21694
871.879	21690
872.008	21899
872.138	21816
872.267	21774
872.397	21622
872.526	21557
872.656	21679
872.785	21500
872.915	21759
873.044	21842
873.173	21892
873.303	21819
873.432	21789
873.561	21873
873.69	21751
873.819	21701
873.948	21876
874.077	21785
874.206	21743
874.335	21713
874.464	21915
874.593	22059
874.722	22006
874.851	21972
874.979	22090
875.108	22048
875.237	22036
875.365	21884
875.494	22063
875.623	22051
875.751	22013
875.88	21983
876.008	22173
876.136	22105
876.265	22280
876.393	22535
876.521	22466
876.65	22443
876.778	22421
876.906	22333
877.034	22322
877.162	22341
877.29	22249
877.418	22440
877.546	22424
877.674	22481
877.802	22310
877.93	22360
878.058	22333
878.185	22265
878.313	22470
878.441	22405
878.568	22226
878.696	22371
878.824	22375
878.951	22535
879.079	22588
879.206	22561
879.333	22485
879.461	22284
879.588	22478
879.715	22622
879.842	22634
879.97	22371
880.097	22139
880.224	22207
880.351	22166
880.478	22097
880.605	22223
880.732	22131
880.859	22291
880.986	22253
881.112	22177
881.239	22067
881.366	21972
881.493	21797
881.619	21850
881.746	21892
881.872	21751
881.999	21690
882.125	21747
882.252	21739
882.378	21747
882.505	21865
882.631	21568
882.757	21515
882.883	21549
883.01	21477
883.136	21424
883.262	21454
883.388	21321
883.514	21367
883.64	21530
883.766	21469
883.892	21233
884.018	21279
884.143	21435
884.269	21378
884.395	21188
884.52	21039
884.646	21020
884.772	21093
884.897	21058
885.023	21127
885.148	21176
885.274	21428
885.399	21123
885.524	21157
885.65	21157
885.775	21058
885.9	21024
886.025	21173
886.15	21176
886.275	20986
886.4	21036
886.525	21070
886.65	21017
886.775	20952
886.9	21089
887.025	21329
887.149	21074
887.274	20895
887.399	20781
887.523	21005
887.648	20906
887.773	20811
887.897	20853
888.021	20906
888.146	20906
888.27	20994
888.395	21020
888.519	21017
888.643	20857
888.767	20849
888.891	20769
889.015	20689
889.139	20762
889.263	20632
889.387	20689
889.511	20853
889.635	20781
889.759	20613
889.883	20693
890.006	20648
890.13	20743
890.254	20568
890.377	20632
890.501	20427
890.624	20366
890.748	20488
890.871	20267
890.995	20176
891.118	20096
891.241	20225
891.364	20218
891.488	20320
891.611	20248
891.734	20206
891.857	20153
891.98	20210
892.103	20320
892.226	20233
892.349	20016
892.471	20092
892.594	20122
892.717	20126
892.839	20065
892.962	20130
893.085	20172
893.207	20157
893.33	20107
893.452	20069
893.575	20199
893.697	20149
893.819	20229
893.941	20347
894.064	20324
894.186	20100
894.308	20027
894.43	20290
894.552	20225
894.674	20180
894.796	20130
894.918	20142
895.04	19989
895.161	20164
895.283	20240
895.405	20027
895.526	20039
895.648	20138
895.769	20180
895.891	20126
896.012	20294
896.134	20046
896.255	20065
896.376	20134
896.498	20012
896.619	20275
896.74	20145
896.861	20202
896.982	20556
897.103	20579
897.224	20484
897.345	20389
897.466	20362
897.587	20244
897.708	20389
897.828	20408
897.949	20366
898.07	20134
898.19	20305
898.311	20358
898.431	20298
898.552	20275
898.672	20351
898.792	20263
898.913	20370
899.033	20377
899.153	20252
899.273	19913
899.393	20020
899.513	20069
899.633	20138
899.753	20039
899.873	20119
899.993	20062
900.113	20092
900.232	20081
900.352	19909
900.472	19860
900.591	19868
900.711	19830
900.83	19780
900.95	19913
901.069	19993
901.189	19723
901.308	19518
901.427	19396
901.546	19537
901.665	19521
901.784	19502
901.904	19400
902.023	19251
902.141	19031
902.26	18878
902.379	19053
902.498	19023
902.617	18890
902.735	18947
902.854	18951
902.973	18825
903.091	18669
903.21	18547
903.328	18563
903.446	18582
903.565	18506
903.683	18490
903.801	18273
903.919	18414
904.038	18273
904.156	18182
904.274	18273
904.392	18140
904.51	18201
904.627	18216
904.745	18224
904.863	18281
904.981	17992
905.098	17878
905.216	17840
905.334	17874
905.451	17745
905.569	17649
905.686	17965
905.803	17874
905.921	17741
906.038	17771
906.155	17687
906.272	17680
906.389	17490
906.506	17425
906.623	17478
906.74	17372
906.857	17345
906.974	17387
907.091	17516
907.208	17543
907.324	17448
907.441	17292
907.557	17151
907.674	17136
907.79	17006
907.907	17083
908.023	17143
908.139	17159
908.256	17098
908.372	16946
908.488	17086
908.604	16843
908.72	16824
908.836	16919
908.952	16778
909.068	16809
909.184	16968
909.3	16824
909.415	16805
909.531	16866
909.647	16691
909.762	16649
909.878	16470
909.993	16550
910.108	16611
910.224	16466
910.339	16497
910.454	16363
910.57	16409
910.685	16333
910.8	16649
910.915	16485
911.03	16341
911.145	16200
911.259	16234
911.374	16162
911.489	16082
911.604	16010
911.718	15975
911.833	15854
911.947	15808
912.062	15686
912.176	15892
912.291	15831
912.405	15808
912.519	15991
912.633	16101
912.748	15865
912.862	15960
912.976	15804
913.09	15637
913.204	15656
913.318	15644
913.431	15892
913.545	15751
913.659	15759
913.772	15671
913.886	15572
914	15504
914.113	15568
914.226	15606
914.34	15648
914.453	15382
914.566	15526
914.68	15378
914.793	15355
914.906	15214
915.019	15188
915.132	14963
915.245	15116
915.358	15116
915.47	15184
915.583	15062
915.696	15176
915.809	15142
915.921	15116
916.034	15108
916.146	15043
916.259	14990
916.371	15062
916.483	15123
916.595	14975
916.708	15013
916.82	15001
916.932	14918
917.044	15005
917.156	14868
917.268	14804
917.38	14796
917.491	14823
917.603	14800
917.715	14937
917.826	14960
917.938	14708
918.049	14651
918.161	14773
918.272	14788
918.384	14876
918.495	14777
918.606	14484
918.717	14396
918.828	14594
918.939	14556
919.05	14381
919.161	14476
919.272	14305
919.383	14446
919.494	14522
919.604	14613
919.715	14541
919.826	14400
919.936	14438
920.047	14594
920.157	14590
920.267	14689
920.378	14511
920.488	14526
920.598	14720
920.708	14781
920.818	14602
920.928	14617
921.038	14804
921.148	14750
921.258	14511
921.368	14400
921.477	14191
921.587	14221
921.697	14107
921.806	14244
921.916	14084
922.025	13890
922.134	13860
922.244	13864
922.353	13928
922.462	13685
922.571	13685
922.68	13601
922.789	13400
922.898	13537
923.007	13449
923.116	13571
923.224	13438
923.333	13472
923.442	13365
923.55	13388
923.659	13354
923.767	13403
923.876	13388
923.984	13358
924.092	13190
924.201	13301
924.309	13274
924.417	13266
924.525	13217
924.633	13221
924.741	14058
924.849	13008
924.956	13156
925.064	13004
925.172	12905
925.279	12863
925.387	12966
925.494	12901
925.602	13012
925.709	12973
925.816	12871
925.924	12856
926.031	12840
926.138	12924
926.245	12886
926.352	12745
926.459	12844
926.566	12981
926.673	12810
926.779	12658
926.886	12707
926.993	12448
927.099	12528
927.206	12494
927.312	12471
927.419	12506
927.525	12414
927.631	12422
927.737	12319
927.843	12277
927.95	12251
928.056	12289
928.162	12281
928.267	12350
928.373	12825
928.479	12448
928.585	12129
928.69	12319
928.796	12319
928.901	12140
929.007	12038
929.112	12144
929.218	12072
929.323	12159
929.428	12011
929.533	12201
929.638	11969
929.743	11965
929.848	12106
929.953	11942
930.058	11882
930.163	11741
930.267	11741
930.372	11870
930.477	11661
930.581	11893
930.685	11798
930.79	11642
930.894	11634
930.998	11676
931.103	11798
931.207	11288
931.311	11269
931.415	11208
931.519	10999
931.623	10946
