Data from test_V78500241_2909.txt Node
Date: Fri Mar 25 15:30:06 CST 2022
User: usil
Spectrometer: V785-0024
Trigger mode: 0
Integration Time (sec): 4.000000E-1
Scans to average: 1
Nonlinearity correction enabled: false
Boxcar width: 0
Storing dark spectrum: false
XAxis mode: Wavelengths
Number of Pixels in Spectrum: 1024
>>>>>Begin Spectral Data<<<<<
801.071	27298
801.214	27146
801.356	27020
801.499	26883
801.641	26758
801.783	26777
801.926	26883
802.068	26735
802.211	26769
802.353	26632
802.496	26488
802.638	26568
802.78	26385
802.923	26355
803.065	26263
803.208	26389
803.35	26408
803.492	26594
803.635	26689
803.777	26514
803.919	26609
804.061	26929
804.204	26602
804.346	26457
804.488	26549
804.63	26545
804.773	26549
804.915	26541
805.057	26674
805.199	26682
805.341	26636
805.483	26621
805.626	26750
805.768	26556
805.91	26750
806.052	26788
806.194	26651
806.336	26823
806.478	26746
806.62	26651
806.762	26716
806.904	26975
807.046	27203
807.188	27165
807.33	27180
807.472	27233
807.614	27024
807.756	27116
807.898	26758
808.04	26861
808.182	26906
808.324	26815
808.465	27058
808.607	27203
808.749	27374
808.891	27378
809.033	27439
809.174	27389
809.316	27252
809.458	27336
809.6	27340
809.741	27348
809.883	27359
810.025	27557
810.166	27553
810.308	27477
810.45	27564
810.591	27363
810.733	27317
810.875	27397
811.016	27146
811.158	27218
811.299	27405
811.441	27351
811.582	27401
811.724	27237
811.865	27211
812.007	27138
812.148	27348
812.29	27401
812.431	27363
812.573	27572
812.714	27663
812.855	27720
812.997	27934
813.138	28010
813.279	27812
813.421	27774
813.562	27778
813.703	27705
813.845	27587
813.986	27104
814.127	27146
814.268	27058
814.41	26933
814.551	27020
814.692	27055
814.833	26994
814.974	26864
815.115	26994
815.256	26819
815.397	26929
815.539	26785
815.68	26659
815.821	26514
815.962	26830
816.103	26644
816.244	26556
816.385	26556
816.526	26450
816.666	26431
816.807	26252
816.948	26237
817.089	26526
817.23	26499
817.371	26256
817.512	26168
817.653	26206
817.793	26092
817.934	26206
818.075	26237
818.216	26199
818.356	26180
818.497	26119
818.638	26054
818.778	26050
818.919	26050
819.06	26054
819.2	26145
819.341	26214
819.481	26210
819.622	26317
819.762	26556
819.903	26549
820.043	26381
820.184	26336
820.324	26282
820.465	26309
820.605	26343
820.746	26267
820.886	26180
821.026	26237
821.167	26073
821.307	26202
821.447	26195
821.588	26103
821.728	25909
821.868	25852
822.008	25689
822.149	25647
822.289	25506
822.429	25400
822.569	25411
822.709	25228
822.849	25255
822.99	25107
823.13	25217
823.27	25179
823.41	25057
823.55	24837
823.69	25046
823.83	25069
823.97	24951
824.11	24795
824.25	24833
824.389	24711
824.529	24856
824.669	24833
824.809	24935
824.949	24844
825.089	24966
825.228	24810
825.368	24707
825.508	24654
825.648	24582
825.787	24540
825.927	24757
826.067	24642
826.206	24681
826.346	24749
826.485	24760
826.625	24703
826.765	24654
826.904	24627
827.044	24407
827.183	24384
827.323	24235
827.462	24369
827.601	24422
827.741	24273
827.88	24334
828.02	24254
828.159	24319
828.298	24494
828.437	24441
828.577	24262
828.716	24433
828.855	24266
828.994	24155
829.134	24095
829.273	24136
829.412	23988
829.551	24015
829.69	23984
829.829	24117
829.968	24057
830.107	24087
830.246	24087
830.385	23939
830.524	23988
830.663	23973
830.802	23764
830.941	23672
831.08	23649
831.219	23756
831.357	23668
831.496	23893
831.635	23646
831.774	23589
831.913	23516
832.051	23543
832.19	23417
832.329	23356
832.467	23417
832.606	23379
832.744	23341
832.883	23364
833.022	23345
833.16	23326
833.299	23322
833.437	23341
833.576	23398
833.714	23311
833.852	23512
833.991	23395
834.129	23444
834.267	23558
834.406	23406
834.544	23417
834.682	23410
834.821	23330
834.959	23589
835.097	23353
835.235	23497
835.373	23379
835.511	23364
835.65	23303
835.788	23341
835.926	22968
836.064	22946
836.202	23132
836.34	23254
836.478	23292
836.615	23204
836.753	23204
836.891	23299
837.029	23265
837.167	23204
837.305	22995
837.443	23044
837.58	23113
837.718	23094
837.856	23102
837.993	23014
838.131	23052
838.269	22885
838.406	22968
838.544	22873
838.681	22866
838.819	22729
838.956	22683
839.094	22561
839.231	22493
839.369	22618
839.506	22790
839.643	22675
839.781	22626
839.918	22523
840.055	22561
840.193	22512
840.33	22417
840.467	22322
840.604	22481
840.742	22790
840.879	22322
841.016	22424
841.153	22451
841.29	22557
841.427	22565
841.564	22519
841.701	22497
841.838	22382
841.975	22390
842.112	22489
842.249	22249
842.385	22360
842.522	22592
842.659	22234
842.796	22276
842.933	22295
843.069	22101
843.206	22299
843.343	22276
843.479	22265
843.616	22173
843.752	22017
843.889	22055
844.025	22070
844.162	22048
844.298	22124
844.435	21972
844.571	21850
844.708	22013
844.844	22158
844.98	22086
845.117	22226
845.253	21903
845.389	21876
845.525	21835
845.661	21823
845.798	21766
845.934	21865
846.07	21622
846.206	21797
846.342	21884
846.478	21675
846.614	21553
846.75	21454
846.886	21504
847.022	21469
847.158	21591
847.294	21420
847.429	21561
847.565	21405
847.701	21835
847.837	21233
847.972	21116
848.108	21268
848.244	21222
848.379	21211
848.515	21112
848.65	21081
848.786	21100
848.921	20967
849.057	21024
849.192	21108
849.328	21119
849.463	21062
849.598	21070
849.734	20982
849.869	21020
850.004	20834
850.14	20956
850.275	20921
850.41	20697
850.545	20826
850.68	20823
850.815	20906
850.95	20701
851.085	20929
851.22	20994
851.355	20792
851.49	20758
851.625	20762
851.76	20826
851.895	20765
852.03	20765
852.165	20819
852.299	20823
852.434	20853
852.569	20796
852.703	20788
852.838	20781
852.973	20857
853.107	21028
853.242	20712
853.376	20648
853.511	20632
853.645	20518
853.78	20670
853.914	20655
854.048	20522
854.183	20625
854.317	20648
854.451	20834
854.585	20636
854.72	20697
854.854	20750
854.988	20621
855.122	20712
855.256	20484
855.39	20651
855.524	20746
855.658	20727
855.792	20667
855.926	20682
856.06	20739
856.194	20758
856.327	20655
856.461	20533
856.595	20598
856.729	20613
856.862	20788
856.996	20617
857.13	20705
857.263	20807
857.397	20792
857.53	20571
857.664	20651
857.797	20697
857.931	20636
858.064	20708
858.197	20785
858.331	20549
858.464	20511
858.597	20389
858.731	20625
858.864	20640
858.997	20522
859.13	20632
859.263	20594
859.396	20689
859.529	20598
859.662	20697
859.795	20571
859.928	20708
860.061	20781
860.194	20842
860.327	20629
860.46	20716
860.592	20769
860.725	20785
860.858	20746
860.99	20781
861.123	20568
861.256	20609
861.388	20670
861.521	21249
861.653	20552
861.786	20415
861.918	20545
862.05	20655
862.183	20526
862.315	20571
862.447	20693
862.58	20537
862.712	20400
862.844	20259
862.976	20442
863.108	20389
863.24	20796
863.372	20400
863.504	20415
863.636	20454
863.768	20328
863.9	20347
864.032	20339
864.164	20336
864.296	20389
864.428	20389
864.559	20381
864.691	20412
864.823	20355
864.954	20355
865.086	20176
865.217	20305
865.349	20199
865.48	20252
865.612	20199
865.743	20396
865.875	20256
866.006	20263
866.137	20259
866.269	20278
866.4	20278
866.531	20214
866.662	20180
866.793	20229
866.924	20309
867.055	20298
867.186	20206
867.317	20252
867.448	20081
867.579	20263
867.71	20153
867.841	20092
867.972	20195
868.103	20168
868.233	20259
868.364	20328
868.495	20206
868.625	20374
868.756	20533
868.886	20336
869.017	20480
869.147	20552
869.278	20461
869.408	20518
869.539	20419
869.669	20446
869.799	20495
869.929	20499
870.06	20564
870.19	20781
870.32	20693
870.45	20663
870.58	20792
870.71	20857
870.84	21001
870.97	20796
871.1	20948
871.23	20948
871.36	21150
871.489	20902
871.619	20944
871.749	21032
871.879	21062
872.008	21112
872.138	21093
872.267	20914
872.397	20838
872.526	20971
872.656	20895
872.785	20887
872.915	21093
873.044	21043
873.173	21074
873.303	21207
873.432	21096
873.561	21112
873.69	21020
873.819	21100
873.948	21055
874.077	20986
874.206	21039
874.335	21058
874.464	21249
874.593	21237
874.722	21424
874.851	21298
874.979	21294
875.108	21310
875.237	21241
875.365	21165
875.494	21252
875.623	21310
875.751	21264
875.88	21313
876.008	21428
876.136	21439
876.265	21808
876.393	21743
876.521	21778
876.65	21869
876.778	21644
876.906	21633
877.034	21553
877.162	21599
877.29	21561
877.418	21682
877.546	21736
877.674	21717
877.802	21656
877.93	21595
878.058	21580
878.185	21443
878.313	21694
878.441	21591
878.568	21542
878.696	21671
878.824	21736
878.951	21690
879.079	21770
879.206	21945
879.333	21701
879.461	21625
879.588	21759
879.715	21831
879.842	21895
879.97	21812
880.097	21382
880.224	21424
880.351	21450
880.478	21572
880.605	21523
880.732	21473
880.859	21759
880.986	21488
881.112	21530
881.239	21466
881.366	21256
881.493	21184
881.619	21157
881.746	21070
881.872	21135
881.999	20918
882.125	21051
882.252	21142
882.378	21032
882.505	21264
882.631	20842
882.757	20823
882.883	20921
883.01	20781
883.136	20785
883.262	20720
883.388	20632
883.514	20754
883.64	20804
883.766	20727
883.892	20514
884.018	20526
884.143	20674
884.269	20788
884.395	20358
884.52	20389
884.646	20408
884.772	20305
884.897	20259
885.023	20336
885.148	20549
885.274	20488
885.399	20594
885.524	20355
885.65	20469
885.775	20446
885.9	20336
886.025	20427
886.15	20480
886.275	20400
886.4	20286
886.525	20526
886.65	20431
886.775	20305
886.9	20579
887.025	20655
887.149	20442
887.274	20168
887.399	20183
887.523	20176
887.648	20214
887.773	20062
887.897	20263
888.021	20229
888.146	20187
888.27	20195
888.395	20328
888.519	20248
888.643	20256
888.767	20267
888.891	20218
889.015	20031
889.139	20180
889.263	19959
889.387	20210
889.511	20187
889.635	20043
889.759	20043
889.883	19909
890.006	19947
890.13	20088
890.254	19940
890.377	19871
890.501	19822
890.624	19814
890.748	19791
890.871	19643
890.995	19651
891.118	19510
891.241	19563
891.364	19578
891.488	19624
891.611	19582
891.734	19643
891.857	19567
891.98	19575
892.103	19632
892.226	19533
892.349	19540
892.471	19430
892.594	19457
892.717	19529
892.839	19362
892.962	19480
893.085	19518
893.207	19499
893.33	19377
893.452	19438
893.575	19476
893.697	19445
893.819	19700
893.941	19708
894.064	19674
894.186	19266
894.308	19502
894.43	19548
894.552	19639
894.674	19742
894.796	19468
894.918	19487
895.04	19441
895.161	19544
895.283	19483
895.405	19468
895.526	19491
895.648	19441
895.769	19480
895.891	19411
896.012	19616
896.134	19559
896.255	19529
896.376	19400
896.498	19586
896.619	19575
896.74	19468
896.861	19514
896.982	19845
897.103	20031
897.224	19746
897.345	19799
897.466	19559
897.587	19750
897.708	19879
897.828	19868
897.949	19788
898.07	19544
898.19	19639
898.311	19833
898.431	19693
898.552	19784
898.672	19772
898.792	19795
898.913	19765
899.033	19677
899.153	19518
899.273	19483
899.393	19533
899.513	19578
899.633	19540
899.753	19597
899.873	19457
899.993	19480
900.113	19487
900.232	19468
900.352	19529
900.472	19476
900.591	19240
900.711	19274
900.83	19278
900.95	19339
901.069	19293
901.189	19137
901.308	18951
901.427	18905
901.546	18844
901.665	18886
901.784	18890
901.904	18810
902.023	18764
902.141	18494
902.26	18452
902.379	18490
902.498	18456
902.617	18376
902.735	18448
902.854	18384
902.973	18357
903.091	18079
903.21	18049
903.328	18053
903.446	17904
903.565	17992
903.683	17863
903.801	17767
903.919	17855
904.038	17863
904.156	17577
904.274	17615
904.392	17646
904.51	17551
904.627	17729
904.745	17695
904.863	17813
904.981	17532
905.098	17395
905.216	17486
905.334	17337
905.451	17284
905.569	17269
905.686	17334
905.803	17391
905.921	17132
906.038	17105
906.155	17121
906.272	17090
906.389	16953
906.506	16915
906.623	16835
906.74	16896
906.857	16820
906.974	16752
907.091	16949
907.208	16942
907.324	16957
907.441	16675
907.557	16679
907.674	16535
907.79	16394
907.907	16558
908.023	16489
908.139	16660
908.256	16470
908.372	16531
908.488	16550
908.604	16314
908.72	16303
908.836	16348
908.952	16299
909.068	16382
909.184	16470
909.3	16314
909.415	16303
909.531	16238
909.647	16177
909.762	16025
909.878	16032
909.993	15994
910.108	16013
910.224	15994
910.339	15983
910.454	15937
910.57	15774
910.685	15816
910.8	16059
910.915	16071
911.03	15804
911.145	15682
911.259	15644
911.374	15637
911.489	15694
911.604	15656
911.718	15378
911.833	15496
911.947	15450
912.062	15233
912.176	15370
912.291	15454
912.405	15504
912.519	15720
912.633	15549
912.748	15515
912.862	15431
912.976	15291
913.09	15222
913.204	15241
913.318	15310
913.431	15302
913.545	15401
913.659	15359
913.772	15218
913.886	15070
914	15100
914.113	15131
914.226	15131
914.34	15070
914.453	14902
914.566	15146
914.68	14899
914.793	14876
914.906	14792
915.019	14636
915.132	14602
915.245	14712
915.358	14655
915.47	14629
915.583	14705
915.696	14705
915.809	14785
915.921	14819
916.034	14587
916.146	14564
916.259	14594
916.371	14682
916.483	14739
916.595	14537
916.708	14495
916.82	14495
916.932	14579
917.044	14484
917.156	14457
917.268	14336
917.38	14351
917.491	14355
917.603	14385
917.715	14393
917.826	14514
917.938	14218
918.049	14183
918.161	14252
918.272	14393
918.384	14469
918.495	14305
918.606	14107
918.717	14024
918.828	14100
918.939	14138
919.05	14046
919.161	14130
919.272	13936
919.383	13944
919.494	14111
919.604	14278
919.715	14100
919.826	14054
919.936	13955
920.047	14153
920.157	14096
920.267	14218
920.378	14092
920.488	14039
920.598	14206
920.708	14438
920.818	14263
920.928	14225
921.038	14347
921.148	14271
921.258	14096
921.368	13974
921.477	13837
921.587	13856
921.697	13662
921.806	13879
921.916	13647
922.025	13491
922.134	13480
922.244	13506
922.353	13597
922.462	13274
922.571	13358
922.68	13202
922.789	13114
922.898	13175
923.007	13072
923.116	13065
923.224	13061
923.333	13114
923.442	13027
923.55	13008
923.659	12973
923.767	13046
923.876	12894
923.984	12954
924.092	12890
924.201	12802
924.309	12958
924.417	12973
924.525	12852
924.633	12791
924.741	13761
924.849	12547
924.956	12825
925.064	12646
925.172	12528
925.279	12585
925.387	12582
925.494	12517
925.602	12620
925.709	12544
925.816	12464
925.924	12563
926.031	12528
926.138	12464
926.245	12559
926.352	12464
926.459	12551
926.566	12597
926.673	12429
926.779	12372
926.886	12270
926.993	12277
927.099	12251
927.206	12076
927.312	12129
927.419	12216
927.525	12232
927.631	12129
927.737	12060
927.843	11931
927.95	11969
928.056	12030
928.162	12038
928.267	12007
928.373	12700
928.479	12117
928.585	11847
928.69	11885
928.796	11988
928.901	11863
929.007	11703
929.112	11851
929.218	11767
929.323	11760
929.428	11691
929.533	11927
929.638	11585
929.743	11649
929.848	11699
929.953	11630
930.058	11646
930.163	11444
930.267	11482
930.372	11554
930.477	11452
930.581	11691
930.685	11497
930.79	11353
930.894	11311
930.998	11265
931.103	11452
931.207	11136
931.311	10961
931.415	10946
931.519	10733
931.623	10618
