Data from test_V78500241_2785.txt Node
Date: Fri Mar 25 15:29:15 CST 2022
User: usil
Spectrometer: V785-0024
Trigger mode: 0
Integration Time (sec): 4.000000E-1
Scans to average: 1
Nonlinearity correction enabled: false
Boxcar width: 0
Storing dark spectrum: false
XAxis mode: Wavelengths
Number of Pixels in Spectrum: 1024
>>>>>Begin Spectral Data<<<<<
801.071	27287
801.214	27093
801.356	26948
801.499	26815
801.641	26758
801.783	26769
801.926	26773
802.068	26762
802.211	26746
802.353	26621
802.496	26442
802.638	26328
802.78	26317
802.923	26244
803.065	26313
803.208	26328
803.35	26355
803.492	26298
803.635	26511
803.777	26423
803.919	26526
804.061	26792
804.204	26583
804.346	26336
804.488	26381
804.63	26438
804.773	26385
804.915	26594
805.057	26636
805.199	26583
805.341	26446
805.483	26716
805.626	26594
805.768	26587
805.91	26568
806.052	26575
806.194	26617
806.336	26746
806.478	26644
806.62	26552
806.762	26735
806.904	26815
807.046	27020
807.188	27066
807.33	27074
807.472	27062
807.614	26910
807.756	27005
807.898	26826
808.04	26910
808.182	26796
808.324	26872
808.465	26971
808.607	27104
808.749	27233
808.891	27397
809.033	27397
809.174	27336
809.316	27264
809.458	27154
809.6	27123
809.741	27302
809.883	27230
810.025	27587
810.166	27534
810.308	27511
810.45	27526
810.591	27252
810.733	27203
810.875	27146
811.016	27154
811.158	27005
811.299	27382
811.441	27321
811.582	27370
811.724	27104
811.865	27150
812.007	27089
812.148	27184
812.29	27192
812.431	27439
812.573	27424
812.714	27629
812.855	27762
812.997	27850
813.138	27964
813.279	27690
813.421	27682
813.562	27663
813.703	27542
813.845	27348
813.986	27055
814.127	26842
814.268	26815
814.41	26853
814.551	26845
814.692	26929
814.833	26819
814.974	26792
815.115	26872
815.256	26769
815.397	26716
815.539	26708
815.68	26598
815.821	26590
815.962	26621
816.103	26530
816.244	26446
816.385	26377
816.526	26442
816.666	26256
816.807	25993
816.948	26199
817.089	26252
817.23	26130
817.371	26122
817.512	26145
817.653	26103
817.793	25966
817.934	26020
818.075	26168
818.216	26119
818.356	25947
818.497	25849
818.638	25963
818.778	25837
818.919	25879
819.06	25841
819.2	25959
819.341	26229
819.481	26081
819.622	26313
819.762	26347
819.903	26366
820.043	26320
820.184	26157
820.324	26138
820.465	26237
820.605	26282
820.746	26176
820.886	26100
821.026	26065
821.167	26130
821.307	26153
821.447	26027
821.588	26012
821.728	25917
821.868	25826
822.008	25529
822.149	25628
822.289	25586
822.429	25373
822.569	25255
822.709	25388
822.849	25050
822.99	25080
823.13	24985
823.27	25107
823.41	24951
823.55	24692
823.69	24943
823.83	24932
823.97	24776
824.11	24772
824.25	24555
824.389	24536
824.529	24833
824.669	24707
824.809	24692
824.949	24669
825.089	24848
825.228	24734
825.368	24544
825.508	24456
825.648	24616
825.787	24582
825.927	24688
826.067	24555
826.206	24593
826.346	24642
826.485	24505
826.625	24555
826.765	24715
826.904	24559
827.044	24384
827.183	24254
827.323	24327
827.462	24380
827.601	24376
827.741	24239
827.88	24190
828.02	24087
828.159	24155
828.298	24315
828.437	24494
828.577	24133
828.716	24467
828.855	24129
828.994	23954
829.134	24034
829.273	24095
829.412	23935
829.551	23878
829.69	23866
829.829	23984
829.968	23988
830.107	23954
830.246	23954
830.385	23843
830.524	23965
830.663	23790
830.802	23570
830.941	23589
831.08	23509
831.219	23539
831.357	23619
831.496	23874
831.635	23562
831.774	23379
831.913	23391
832.051	23330
832.19	23284
832.329	23524
832.467	23220
832.606	23212
832.744	23277
832.883	23178
833.022	23170
833.16	23155
833.299	23292
833.437	23204
833.576	23440
833.714	23231
833.852	23296
833.991	23273
834.129	23444
834.267	23364
834.406	23299
834.544	23250
834.682	23341
834.821	23254
834.959	23512
835.097	23200
835.235	23440
835.373	23288
835.511	23303
835.65	23109
835.788	23261
835.926	23010
836.064	22896
836.202	23010
836.34	23189
836.478	23185
836.615	23147
836.753	23155
836.891	23277
837.029	23220
837.167	23014
837.305	23010
837.443	23083
837.58	22946
837.718	22972
837.856	23014
837.993	22889
838.131	23083
838.269	22736
838.406	22919
838.544	22721
838.681	22569
838.819	22698
838.956	22474
839.094	22428
839.231	22550
839.369	22618
839.506	22873
839.643	22694
839.781	22474
839.918	22489
840.055	22447
840.193	22402
840.33	22424
840.467	22504
840.604	22413
840.742	22607
840.879	22265
841.016	22344
841.153	22344
841.29	22497
841.427	22516
841.564	22402
841.701	22409
841.838	22337
841.975	22390
842.112	22226
842.249	22139
842.385	22287
842.522	22462
842.659	22329
842.796	22162
842.933	22154
843.069	22070
843.206	22135
843.343	22150
843.479	22131
843.616	22162
843.752	21922
843.889	21994
844.025	22070
844.162	21926
844.298	21968
844.435	21956
844.571	21838
844.708	21987
844.844	22048
844.98	22017
845.117	22093
845.253	21915
845.389	21816
845.525	21972
845.661	21747
845.798	21732
845.934	21827
846.07	21610
846.206	21755
846.342	21838
846.478	21603
846.614	21545
846.75	21348
846.886	21488
847.022	21488
847.158	21424
847.294	21325
847.429	21519
847.565	21458
847.701	21675
847.837	21214
847.972	21058
848.108	21386
848.244	21291
848.379	21062
848.515	21005
848.65	21051
848.786	21005
848.921	20941
849.057	21135
849.192	21047
849.328	21028
849.463	21001
849.598	20998
849.734	20956
849.869	20758
850.004	20743
850.14	20735
850.275	20609
850.41	20731
850.545	20701
850.68	20712
850.815	20807
850.95	20819
851.085	20891
851.22	20902
851.355	20746
851.49	20765
851.625	20800
851.76	20815
851.895	20807
852.03	20674
852.165	20906
852.299	20914
852.434	20807
852.569	20796
852.703	20678
852.838	20773
852.973	20887
853.107	20895
853.242	20682
853.376	20541
853.511	20560
853.645	20545
853.78	20735
853.914	20636
854.048	20560
854.183	20568
854.317	20579
854.451	20712
854.585	20587
854.72	20507
854.854	20678
854.988	20457
855.122	20674
855.256	20457
855.39	20587
855.524	20579
855.658	20602
855.792	20750
855.926	20552
856.06	20636
856.194	20613
856.327	20609
856.461	20530
856.595	20545
856.729	20511
856.862	20651
856.996	20674
857.13	20693
857.263	20769
857.397	20663
857.53	20552
857.664	20720
857.797	20689
857.931	20720
858.064	20659
858.197	20735
858.331	20629
858.464	20575
858.597	20507
858.731	20670
858.864	20514
858.997	20533
859.13	20648
859.263	20602
859.396	20705
859.529	20598
859.662	20552
859.795	20545
859.928	20564
860.061	20731
860.194	20743
860.327	20484
860.46	20655
860.592	20636
860.725	20667
860.858	20735
860.99	20568
861.123	20503
861.256	20541
861.388	20648
861.521	21279
861.653	20480
861.786	20385
861.918	20351
862.05	20545
862.183	20427
862.315	20651
862.447	20667
862.58	20492
862.712	20347
862.844	20362
862.976	20396
863.108	20374
863.24	20800
863.372	20229
863.504	20229
863.636	20320
863.768	20328
863.9	20290
864.032	20214
864.164	20218
864.296	20248
864.428	20488
864.559	20320
864.691	20301
864.823	20332
864.954	20317
865.086	20278
865.217	20149
865.349	20199
865.48	20351
865.612	20176
865.743	20427
865.875	20142
866.006	20214
866.137	20164
866.269	20138
866.4	20202
866.531	20138
866.662	20168
866.793	20206
866.924	20206
867.055	20134
867.186	20081
867.317	20157
867.448	20020
867.579	20096
867.71	20039
867.841	20126
867.972	20183
868.103	20077
868.233	20202
868.364	20092
868.495	20168
868.625	20480
868.756	20560
868.886	20366
869.017	20404
869.147	20602
869.278	20488
869.408	20438
869.539	20522
869.669	20484
869.799	20499
869.929	20541
870.06	20408
870.19	20640
870.32	20811
870.45	20815
870.58	20777
870.71	20891
870.84	20921
870.97	20758
871.1	20777
871.23	20864
871.36	21024
871.489	20838
871.619	21009
871.749	20979
871.879	20967
872.008	21104
872.138	21005
872.267	20956
872.397	20765
872.526	20868
872.656	20777
872.785	20902
872.915	21070
873.044	20982
873.173	21043
873.303	21043
873.432	21077
873.561	21020
873.69	20986
873.819	20887
873.948	21146
874.077	20948
874.206	20899
874.335	21005
874.464	21055
874.593	21233
874.722	21291
874.851	21386
874.979	21249
875.108	21374
875.237	21195
875.365	21165
875.494	21161
875.623	21272
875.751	21233
875.88	21393
876.008	21428
876.136	21431
876.265	21717
876.393	21785
876.521	21728
876.65	21816
876.778	21625
876.906	21595
877.034	21648
877.162	21599
877.29	21625
877.418	21599
877.546	21595
877.674	21637
877.802	21641
877.93	21633
878.058	21507
878.185	21511
878.313	21538
878.441	21732
878.568	21477
878.696	21526
878.824	21519
878.951	21690
879.079	21743
879.206	21865
879.333	21747
879.461	21641
879.588	21709
879.715	21816
879.842	21907
879.97	21690
880.097	21481
880.224	21477
880.351	21424
880.478	21412
880.605	21488
880.732	21416
880.859	21762
880.986	21481
881.112	21454
881.239	21378
881.366	21241
881.493	20994
881.619	20883
881.746	21131
881.872	21085
881.999	21043
882.125	20971
882.252	20990
882.378	20975
882.505	21184
882.631	20918
882.757	20663
882.883	20819
883.01	20750
883.136	20667
883.262	20754
883.388	20492
883.514	20796
883.64	20796
883.766	20731
883.892	20457
884.018	20533
884.143	20712
884.269	20724
884.395	20438
884.52	20324
884.646	20442
884.772	20218
884.897	20343
885.023	20381
885.148	20530
885.274	20556
885.399	20484
885.524	20442
885.65	20434
885.775	20374
885.9	20339
886.025	20590
886.15	20355
886.275	20320
886.4	20404
886.525	20374
886.65	20294
886.775	20267
886.9	20473
887.025	20568
887.149	20317
887.274	20221
887.399	20195
887.523	20164
887.648	19997
887.773	20043
887.897	20233
888.021	20206
888.146	20054
888.27	20229
888.395	20278
888.519	20210
888.643	20237
888.767	20149
888.891	20065
889.015	20035
889.139	20043
889.263	19917
889.387	20027
889.511	20157
889.635	20012
889.759	19959
889.883	19898
890.006	19997
890.13	20065
890.254	19830
890.377	19818
890.501	19647
890.624	19719
890.748	19742
890.871	19700
890.995	19571
891.118	19533
891.241	19537
891.364	19453
891.488	19521
891.611	19628
891.734	19518
891.857	19655
891.98	19571
892.103	19559
892.226	19521
892.349	19506
892.471	19350
892.594	19502
892.717	19544
892.839	19369
892.962	19518
893.085	19632
893.207	19392
893.33	19293
893.452	19381
893.575	19594
893.697	19365
893.819	19616
893.941	19727
894.064	19548
894.186	19457
894.308	19384
894.43	19441
894.552	19521
894.674	19510
894.796	19419
894.918	19434
895.04	19369
895.161	19559
895.283	19628
895.405	19346
895.526	19411
895.648	19407
895.769	19480
895.891	19563
896.012	19559
896.134	19510
896.255	19559
896.376	19438
896.498	19441
896.619	19422
896.74	19544
896.861	19552
896.982	19734
897.103	19967
897.224	19746
897.345	19658
897.466	19685
897.587	19723
897.708	19864
897.828	19727
897.949	19632
898.07	19521
898.19	19639
898.311	19845
898.431	19651
898.552	19761
898.672	19818
898.792	19666
898.913	19784
899.033	19514
899.153	19575
899.273	19480
899.393	19483
899.513	19464
899.633	19457
899.753	19453
899.873	19434
899.993	19419
900.113	19381
900.232	19346
900.352	19373
900.472	19339
900.591	19270
900.711	19270
900.83	19133
900.95	19304
901.069	19384
901.189	19236
901.308	18901
901.427	18810
901.546	18928
901.665	18943
901.784	18863
901.904	18700
902.023	18616
902.141	18414
902.26	18399
902.379	18445
902.498	18281
902.617	18448
902.735	18365
902.854	18391
902.973	18197
903.091	18152
903.21	17969
903.328	18114
903.446	18007
903.565	17874
903.683	17863
903.801	17779
903.919	17859
904.038	17809
904.156	17627
904.274	17760
904.392	17611
904.51	17554
904.627	17482
904.745	17596
904.863	17714
904.981	17455
905.098	17315
905.216	17246
905.334	17292
905.451	17349
905.569	17353
905.686	17379
905.803	17376
905.921	17174
906.038	17200
906.155	17155
906.272	16900
906.389	17014
906.506	16873
906.623	16942
906.74	16740
906.857	16790
906.974	16748
907.091	16923
907.208	16881
907.324	16885
907.441	16675
907.557	16497
907.674	16622
907.79	16527
907.907	16508
908.023	16455
908.139	16656
908.256	16550
908.372	16500
908.488	16485
908.604	16333
908.72	16257
908.836	16230
908.952	16162
909.068	16299
909.184	16421
909.3	16306
909.415	16360
909.531	16272
909.647	16040
909.762	15972
909.878	16010
909.993	16032
910.108	15972
910.224	16017
910.339	15934
910.454	15899
910.57	15804
910.685	15755
910.8	16055
910.915	15922
911.03	15823
911.145	15648
911.259	15538
911.374	15629
911.489	15542
911.604	15504
911.718	15313
911.833	15443
911.947	15313
912.062	15218
912.176	15454
912.291	15405
912.405	15447
912.519	15644
912.633	15481
912.748	15412
912.862	15340
912.976	15192
913.09	15077
913.204	15199
913.318	15180
913.431	15207
913.545	15298
913.659	15275
913.772	15157
913.886	14975
914	14948
914.113	15104
914.226	15154
914.34	14952
914.453	14880
914.566	14899
914.68	14963
914.793	14849
914.906	14648
915.019	14590
915.132	14541
915.245	14632
915.358	14564
915.47	14659
915.583	14522
915.696	14606
915.809	14739
915.921	14712
916.034	14579
916.146	14579
916.259	14503
916.371	14511
916.483	14549
916.595	14442
916.708	14469
916.82	14446
916.932	14457
917.044	14385
917.156	14358
917.268	14214
917.38	14206
917.491	14187
917.603	14225
917.715	14404
917.826	14385
917.938	14084
918.049	14050
918.161	14225
918.272	14381
918.384	14328
918.495	14259
918.606	14161
918.717	13986
918.828	14035
918.939	14062
919.05	13951
919.161	14012
919.272	13807
919.383	13925
919.494	14149
919.604	14237
919.715	14043
919.826	13989
919.936	13951
920.047	14149
920.157	14012
920.267	14187
920.378	14100
920.488	13963
920.598	14149
920.708	14362
920.818	14206
920.928	14130
921.038	14271
921.148	14282
921.258	13951
921.368	13906
921.477	13803
921.587	13761
921.697	13605
921.806	13731
921.916	13597
922.025	13514
922.134	13464
922.244	13422
922.353	13411
922.462	13384
922.571	13198
922.68	13042
922.789	13065
922.898	13160
923.007	13072
923.116	13023
923.224	12996
923.333	13012
923.442	12840
923.55	12878
923.659	12916
923.767	12909
923.876	12840
923.984	12928
924.092	12840
924.201	12730
924.309	12745
924.417	12810
924.525	12700
924.633	12825
924.741	13556
924.849	12627
924.956	12639
925.064	12532
925.172	12399
925.279	12494
925.387	12563
925.494	12494
925.602	12604
925.709	12604
925.816	12414
925.924	12483
926.031	12574
926.138	12517
926.245	12551
926.352	12334
926.459	12528
926.566	12486
926.673	12429
926.779	12266
926.886	12190
926.993	12148
927.099	12136
927.206	12057
927.312	12125
927.419	12110
927.525	12076
927.631	12087
927.737	11996
927.843	11935
927.95	11855
928.056	11958
928.162	11878
928.267	11954
928.373	12578
928.479	12022
928.585	11824
928.69	11828
928.796	11828
928.901	11802
929.007	11611
929.112	11756
929.218	11779
929.323	11668
929.428	11691
929.533	11783
929.638	11611
929.743	11543
929.848	11604
929.953	11649
930.058	11554
930.163	11349
930.267	11433
930.372	11364
930.477	11288
930.581	11554
930.685	11341
930.79	11280
930.894	11220
930.998	11143
931.103	11391
931.207	10991
931.311	10961
931.415	10824
931.519	10634
931.623	10611
