Data from test_V78500241_2739.txt Node
Date: Fri Mar 25 15:28:55 CST 2022
User: usil
Spectrometer: V785-0024
Trigger mode: 0
Integration Time (sec): 4.000000E-1
Scans to average: 1
Nonlinearity correction enabled: false
Boxcar width: 0
Storing dark spectrum: false
XAxis mode: Wavelengths
Number of Pixels in Spectrum: 1024
>>>>>Begin Spectral Data<<<<<
801.071	27047
801.214	27001
801.356	26804
801.499	26891
801.641	26526
801.783	26712
801.926	26644
802.068	26564
802.211	26617
802.353	26514
802.496	26259
802.638	26195
802.78	26317
802.923	26267
803.065	26096
803.208	26229
803.35	26240
803.492	26419
803.635	26362
803.777	26362
803.919	26400
804.061	26853
804.204	26499
804.346	26393
804.488	26457
804.63	26434
804.773	26427
804.915	26480
805.057	26518
805.199	26461
805.341	26324
805.483	26568
805.626	26575
805.768	26374
805.91	26473
806.052	26746
806.194	26511
806.336	26731
806.478	26564
806.62	26511
806.762	26731
806.904	26781
807.046	27017
807.188	27005
807.33	26918
807.472	27100
807.614	26944
807.756	26937
807.898	26819
808.04	26655
808.182	26743
808.324	26887
808.465	26929
808.607	26986
808.749	27142
808.891	27252
809.033	27313
809.174	27154
809.316	27032
809.458	27085
809.6	27135
809.741	27230
809.883	27306
810.025	27435
810.166	27405
810.308	27401
810.45	27386
810.591	27340
810.733	27146
810.875	27146
811.016	27024
811.158	26963
811.299	27214
811.441	27302
811.582	27439
811.724	27214
811.865	27009
812.007	27032
812.148	27039
812.29	27154
812.431	27230
812.573	27374
812.714	27500
812.855	27671
812.997	27747
813.138	27698
813.279	27701
813.421	27542
813.562	27591
813.703	27443
813.845	27264
813.986	26956
814.127	26929
814.268	26834
814.41	26830
814.551	26727
814.692	26864
814.833	26708
814.974	26819
815.115	26815
815.256	26640
815.397	26511
815.539	26697
815.68	26629
815.821	26511
815.962	26537
816.103	26518
816.244	26431
816.385	26370
816.526	26294
816.666	26244
816.807	26115
816.948	26073
817.089	26119
817.23	26138
817.371	26024
817.512	25951
817.653	26119
817.793	25849
817.934	26065
818.075	26020
818.216	26168
818.356	26069
818.497	25947
818.638	25769
818.778	25822
818.919	25803
819.06	25845
819.2	25940
819.341	26031
819.481	26008
819.622	26077
819.762	26377
819.903	26214
820.043	26252
820.184	26278
820.324	26073
820.465	26267
820.605	26084
820.746	26183
820.886	25906
821.026	26092
821.167	26024
821.307	26221
821.447	25982
821.588	25860
821.728	25936
821.868	25582
822.008	25556
822.149	25571
822.289	25518
822.429	25209
822.569	25339
822.709	25145
822.849	25023
822.99	25023
823.13	24996
823.27	24939
823.41	24905
823.55	24582
823.69	25008
823.83	24844
823.97	24719
824.11	24582
824.25	24566
824.389	24635
824.529	24616
824.669	24646
824.809	24734
824.949	24661
825.089	24806
825.228	24585
825.368	24285
825.508	24486
825.648	24410
825.787	24517
825.927	24612
826.067	24418
826.206	24460
826.346	24597
826.485	24494
826.625	24555
826.765	24570
826.904	24623
827.044	24136
827.183	24319
827.323	24232
827.462	24403
827.601	24239
827.741	24152
827.88	24277
828.02	24076
828.159	24258
828.298	24270
828.437	24163
828.577	24163
828.716	24239
828.855	24129
828.994	23840
829.134	23954
829.273	24022
829.412	23935
829.551	23889
829.69	23851
829.829	23939
829.968	24018
830.107	23977
830.246	24011
830.385	23851
830.524	23878
830.663	23786
830.802	23737
830.941	23634
831.08	23573
831.219	23680
831.357	23653
831.496	23737
831.635	23608
831.774	23421
831.913	23383
832.051	23303
832.19	23288
832.329	23235
832.467	23216
832.606	23075
832.744	23128
832.883	23151
833.022	23132
833.16	23220
833.299	23220
833.437	23239
833.576	23311
833.714	23178
833.852	23208
833.991	23273
834.129	23277
834.267	23425
834.406	23280
834.544	23242
834.682	23364
834.821	23239
834.959	23326
835.097	23181
835.235	23220
835.373	23265
835.511	23235
835.65	23128
835.788	23155
835.926	22885
836.064	22900
836.202	22900
836.34	23121
836.478	23067
836.615	23102
836.753	23212
836.891	23216
837.029	23086
837.167	23064
837.305	22972
837.443	23075
837.58	23014
837.718	23075
837.856	23037
837.993	22984
838.131	22953
838.269	22812
838.406	22889
838.544	22812
838.681	22611
838.819	22546
838.956	22504
839.094	22512
839.231	22478
839.369	22554
839.506	22824
839.643	22550
839.781	22504
839.918	22382
840.055	22375
840.193	22443
840.33	22325
840.467	22394
840.604	22356
840.742	22561
840.879	22253
841.016	22246
841.153	22333
841.29	22478
841.427	22382
841.564	22402
841.701	22325
841.838	22356
841.975	22261
842.112	22276
842.249	22246
842.385	22223
842.522	22390
842.659	22367
842.796	22116
842.933	22063
843.069	22101
843.206	22124
843.343	22120
843.479	22017
843.616	22090
843.752	21903
843.889	21880
844.025	22017
844.162	21934
844.298	21949
844.435	21998
844.571	21846
844.708	21899
844.844	22029
844.98	21949
845.117	21991
845.253	21838
845.389	21819
845.525	21838
845.661	21873
845.798	21686
845.934	21614
846.07	21618
846.206	21755
846.342	21690
846.478	21622
846.614	21504
846.75	21389
846.886	21374
847.022	21561
847.158	21481
847.294	21351
847.429	21408
847.565	21408
847.701	21530
847.837	21226
847.972	21093
848.108	21116
848.244	21154
848.379	20971
848.515	20906
848.65	20861
848.786	20933
848.921	20956
849.057	21032
849.192	21077
849.328	21123
849.463	20982
849.598	20906
849.734	20800
849.869	20739
850.004	20716
850.14	20712
850.275	20727
850.41	20686
850.545	20682
850.68	20682
850.815	20735
850.95	20796
851.085	20933
851.22	20929
851.355	20743
851.49	20811
851.625	20724
851.76	20777
851.895	20659
852.03	20659
852.165	20701
852.299	20746
852.434	20830
852.569	20792
852.703	20845
852.838	20819
852.973	20925
853.107	20842
853.242	20697
853.376	20533
853.511	20423
853.645	20549
853.78	20598
853.914	20434
854.048	20594
854.183	20606
854.317	20583
854.451	20670
854.585	20552
854.72	20545
854.854	20712
854.988	20442
855.122	20568
855.256	20530
855.39	20571
855.524	20648
855.658	20602
855.792	20503
855.926	20511
856.06	20598
856.194	20724
856.327	20545
856.461	20495
856.595	20454
856.729	20564
856.862	20609
856.996	20541
857.13	20560
857.263	20697
857.397	20640
857.53	20621
857.664	20667
857.797	20640
857.931	20606
858.064	20678
858.197	20674
858.331	20415
858.464	20514
858.597	20457
858.731	20632
858.864	20533
858.997	20541
859.13	20590
859.263	20526
859.396	20651
859.529	20590
859.662	20488
859.795	20488
859.928	20598
860.061	20659
860.194	20804
860.327	20583
860.46	20522
860.592	20693
860.725	20788
860.858	20777
860.99	20606
861.123	20415
861.256	20556
861.388	20484
861.521	21062
861.653	20484
861.786	20374
861.918	20358
862.05	20355
862.183	20431
862.315	20526
862.447	20514
862.58	20499
862.712	20370
862.844	20355
862.976	20339
863.108	20404
863.24	20708
863.372	20122
863.504	20176
863.636	20244
863.768	20305
863.9	20358
864.032	20309
864.164	20286
864.296	20233
864.428	20366
864.559	20259
864.691	20309
864.823	20389
864.954	20233
865.086	20286
865.217	20195
865.349	20199
865.48	20229
865.612	20263
865.743	20324
865.875	20263
866.006	20191
866.137	20221
866.269	20119
866.4	20168
866.531	20122
866.662	20103
866.793	20149
866.924	20172
867.055	20294
867.186	20096
867.317	20138
867.448	20096
867.579	20122
867.71	20039
867.841	20092
867.972	20149
868.103	20126
868.233	20130
868.364	20130
868.495	20187
868.625	20313
868.756	20457
868.886	20286
869.017	20396
869.147	20400
869.278	20503
869.408	20377
869.539	20408
869.669	20290
869.799	20465
869.929	20526
870.06	20587
870.19	20636
870.32	20682
870.45	20594
870.58	20724
870.71	20830
870.84	20902
870.97	20796
871.1	20773
871.23	20823
871.36	20952
871.489	20929
871.619	20758
871.749	20998
871.879	21001
872.008	21085
872.138	20944
872.267	20914
872.397	20785
872.526	20826
872.656	20918
872.785	20921
872.915	21028
873.044	21123
873.173	21001
873.303	21051
873.432	21157
873.561	21093
873.69	20921
873.819	21119
873.948	21119
874.077	21032
874.206	20990
874.335	21062
874.464	21188
874.593	21218
874.722	21051
874.851	21211
874.979	21272
875.108	21291
875.237	21192
875.365	21260
875.494	21302
875.623	21306
875.751	21195
875.88	21291
876.008	21416
876.136	21389
876.265	21732
876.393	21770
876.521	21713
876.65	21663
876.778	21717
876.906	21553
877.034	21591
877.162	21538
877.29	21428
877.418	21637
877.546	21545
877.674	21648
877.802	21542
877.93	21549
878.058	21538
878.185	21370
878.313	21534
878.441	21458
878.568	21511
878.696	21530
878.824	21553
878.951	21701
879.079	21751
879.206	21945
879.333	21762
879.461	21713
879.588	21625
879.715	21728
879.842	21892
879.97	21679
880.097	21431
880.224	21504
880.351	21538
880.478	21466
880.605	21454
880.732	21378
880.859	21648
880.986	21397
881.112	21367
881.239	21313
881.366	21298
881.493	21192
881.619	20937
881.746	21009
881.872	21176
881.999	20800
882.125	20963
882.252	21077
882.378	20925
882.505	20975
882.631	20880
882.757	20727
882.883	20800
883.01	20705
883.136	20712
883.262	20606
883.388	20613
883.514	20674
883.64	20804
883.766	20667
883.892	20412
884.018	20541
884.143	20720
884.269	20590
884.395	20362
884.52	20320
884.646	20294
884.772	20317
884.897	20259
885.023	20290
885.148	20469
885.274	20594
885.399	20476
885.524	20366
885.65	20309
885.775	20408
885.9	20347
886.025	20408
886.15	20301
886.275	20248
886.4	20214
886.525	20400
886.65	20195
886.775	20290
886.9	20442
887.025	20571
887.149	20267
887.274	20218
887.399	20130
887.523	20062
887.648	20126
887.773	20130
887.897	20126
888.021	20191
888.146	20187
888.27	20187
888.395	20221
888.519	20081
888.643	20081
888.767	20081
888.891	20012
889.015	20001
889.139	19955
889.263	19898
889.387	19951
889.511	20149
889.635	20092
889.759	19940
889.883	20008
890.006	19761
890.13	20168
890.254	19894
890.377	19826
890.501	19784
890.624	19677
890.748	19757
890.871	19643
890.995	19499
891.118	19453
891.241	19544
891.364	19438
891.488	19670
891.611	19502
891.734	19487
891.857	19556
891.98	19449
892.103	19453
892.226	19601
892.349	19449
892.471	19293
892.594	19434
892.717	19430
892.839	19476
892.962	19476
893.085	19445
893.207	19384
893.33	19369
893.452	19377
893.575	19453
893.697	19358
893.819	19582
893.941	19613
894.064	19506
894.186	19384
894.308	19320
894.43	19533
894.552	19601
894.674	19480
894.796	19358
894.918	19411
895.04	19415
895.161	19483
895.283	19480
895.405	19403
895.526	19438
895.648	19362
895.769	19411
895.891	19426
896.012	19495
896.134	19472
896.255	19483
896.376	19430
896.498	19460
896.619	19472
896.74	19453
896.861	19533
896.982	19769
897.103	19841
897.224	19662
897.345	19571
897.466	19578
897.587	19662
897.708	19765
897.828	19723
897.949	19616
898.07	19567
898.19	19635
898.311	19757
898.431	19605
898.552	19567
898.672	19674
898.792	19658
898.913	19761
899.033	19544
899.153	19514
899.273	19335
899.393	19373
899.513	19415
899.633	19449
899.753	19495
899.873	19457
899.993	19297
900.113	19400
900.232	19396
900.352	19327
900.472	19263
900.591	19209
900.711	19175
900.83	19217
900.95	19384
901.069	19358
901.189	19145
901.308	18909
901.427	18757
901.546	18749
901.665	18817
901.784	18856
901.904	18749
902.023	18635
902.141	18334
902.26	18338
902.379	18433
902.498	18323
902.617	18304
902.735	18479
902.854	18296
902.973	18304
903.091	17984
903.21	18030
903.328	18076
903.446	17931
903.565	17954
903.683	17904
903.801	17786
903.919	17840
904.038	17783
904.156	17718
904.274	17638
904.392	17589
904.51	17592
904.627	17710
904.745	17676
904.863	17767
904.981	17425
905.098	17364
905.216	17269
905.334	17307
905.451	17280
905.569	17239
905.686	17360
905.803	17334
905.921	17064
906.038	17166
906.155	17052
906.272	17064
906.389	17075
906.506	16949
906.623	16824
906.74	16957
906.857	16759
906.974	16835
907.091	16896
907.208	16927
907.324	16949
907.441	16854
907.557	16584
907.674	16542
907.79	16550
907.907	16535
908.023	16561
908.139	16527
908.256	16504
908.372	16497
908.488	16500
908.604	16314
908.72	16223
908.836	16291
908.952	16299
909.068	16268
909.184	16451
909.3	16215
909.415	16333
909.531	16276
909.647	16036
909.762	16074
909.878	15964
909.993	15991
910.108	15987
910.224	15949
910.339	15949
910.454	15835
910.57	15842
910.685	15755
910.8	16010
910.915	15941
911.03	15781
911.145	15660
911.259	15675
911.374	15720
911.489	15526
911.604	15568
911.718	15420
911.833	15466
911.947	15344
912.062	15264
912.176	15420
912.291	15382
912.405	15351
912.519	15545
912.633	15553
912.748	15325
912.862	15298
912.976	15222
913.09	15077
913.204	15203
913.318	15195
913.431	15268
913.545	15264
913.659	15355
913.772	15089
913.886	15093
914	14906
914.113	15013
914.226	15089
914.34	14982
914.453	14929
914.566	14990
914.68	14861
914.793	14914
914.906	14686
915.019	14663
915.132	14556
915.245	14564
915.358	14648
915.47	14648
915.583	14606
915.696	14731
915.809	14697
915.921	14724
916.034	14602
916.146	14621
916.259	14530
916.371	14549
916.483	14640
916.595	14419
916.708	14438
916.82	14442
916.932	14446
917.044	14415
917.156	14396
917.268	14237
917.38	14248
917.491	14301
917.603	14305
917.715	14351
917.826	14362
917.938	14134
918.049	14123
918.161	14278
918.272	14415
918.384	14362
918.495	14161
918.606	14187
918.717	14084
918.828	14138
918.939	14100
919.05	13989
919.161	14039
919.272	13822
919.383	13951
919.494	14084
919.604	14164
919.715	14062
919.826	13917
919.936	14005
920.047	13986
920.157	14008
920.267	14214
920.378	14081
920.488	13883
920.598	14206
920.708	14313
920.818	14218
920.928	14149
921.038	14366
921.148	14294
921.258	13967
921.368	13879
921.477	13738
921.587	13799
921.697	13700
921.806	13780
921.916	13727
922.025	13468
922.134	13460
922.244	13388
922.353	13445
922.462	13285
922.571	13259
922.68	13114
922.789	13175
922.898	13042
923.007	13012
923.116	13080
923.224	13118
923.333	12970
923.442	12920
923.55	12852
923.659	12970
923.767	12939
923.876	12935
923.984	12943
924.092	12757
924.201	12848
924.309	12905
924.417	12810
924.525	12787
924.633	12745
924.741	13624
924.849	12601
924.956	12741
925.064	12597
925.172	12483
925.279	12570
925.387	12502
925.494	12566
925.602	12681
925.709	12612
925.816	12350
925.924	12418
926.031	12509
926.138	12509
926.245	12506
926.352	12426
926.459	12525
926.566	12589
926.673	12403
926.779	12292
926.886	12296
926.993	12140
927.099	12197
927.206	12117
927.312	12049
927.419	12106
927.525	12133
927.631	12140
927.737	12015
927.843	11923
927.95	11855
928.056	11836
928.162	11897
928.267	12041
928.373	12467
928.479	12049
928.585	11718
928.69	11942
928.796	11935
928.901	11809
929.007	11615
929.112	11832
929.218	11870
929.323	11680
929.428	11672
929.533	11726
929.638	11566
929.743	11672
929.848	11676
929.953	11596
930.058	11600
930.163	11311
930.267	11459
930.372	11581
930.477	11326
930.581	11562
930.685	11402
930.79	11235
930.894	11315
930.998	11250
931.103	11379
931.207	11060
931.311	10934
931.415	10877
931.519	10675
931.623	10626
