Data from test_V78500241_1093.txt Node
Date: Fri Mar 25 15:17:28 CST 2022
User: usil
Spectrometer: V785-0024
Trigger mode: 0
Integration Time (sec): 4.000000E-1
Scans to average: 1
Nonlinearity correction enabled: false
Boxcar width: 0
Storing dark spectrum: false
XAxis mode: Wavelengths
Number of Pixels in Spectrum: 1024
>>>>>Begin Spectral Data<<<<<
801.071	28394
801.214	28325
801.356	28131
801.499	28112
801.641	27903
801.783	27895
801.926	28040
802.068	27968
802.211	27861
802.353	27816
802.496	27713
802.638	27652
802.78	27515
802.923	27557
803.065	27561
803.208	27561
803.35	27629
803.492	27694
803.635	27804
803.777	27812
803.919	27937
804.061	27926
804.204	27979
804.346	27720
804.488	27690
804.63	27838
804.773	27797
804.915	27869
805.057	27812
805.199	27797
805.341	27937
805.483	28109
805.626	28025
805.768	27861
805.91	27926
806.052	27956
806.194	27956
806.336	28246
806.478	28177
806.62	28143
806.762	28093
806.904	28257
807.046	28459
807.188	28455
807.33	28512
807.472	28409
807.614	28367
807.756	28246
807.898	28375
808.04	28303
808.182	28306
808.324	28185
808.465	28413
808.607	28550
808.749	28577
808.891	28660
809.033	28820
809.174	28641
809.316	28634
809.458	28592
809.6	28687
809.741	28812
809.883	28987
810.025	28934
810.166	28888
810.308	28980
810.45	28854
810.591	28698
810.733	28694
810.875	28736
811.016	28584
811.158	28637
811.299	28729
811.441	28664
811.582	28816
811.724	28748
811.865	28664
812.007	28805
812.148	28702
812.29	28729
812.431	28896
812.573	28961
812.714	29162
812.855	29216
812.997	29311
813.138	29531
813.279	29341
813.421	29334
813.562	29242
813.703	28930
813.845	29033
813.986	28656
814.127	28478
814.268	28401
814.41	28557
814.551	28367
814.692	28519
814.833	28348
814.974	28344
815.115	28367
815.256	28154
815.397	28268
815.539	28246
815.68	28162
815.821	28226
815.962	28204
816.103	28249
816.244	28040
816.385	27907
816.526	27861
816.666	27827
816.807	27686
816.948	27785
817.089	27816
817.23	27789
817.371	27705
817.512	27835
817.653	27698
817.793	27599
817.934	27819
818.075	27709
818.216	27781
818.356	27781
818.497	27644
818.638	27466
818.778	27462
818.919	27515
819.06	27488
819.2	27648
819.341	27633
819.481	27641
819.622	27922
819.762	28082
819.903	27899
820.043	27873
820.184	27793
820.324	27846
820.465	27922
820.605	27865
820.746	27724
820.886	27857
821.026	27994
821.167	27793
821.307	27880
821.447	27827
821.588	27682
821.728	27622
821.868	27348
822.008	27291
822.149	27066
822.289	27150
822.429	26956
822.569	26781
822.709	26804
822.849	26735
822.99	26769
823.13	26762
823.27	26712
823.41	26492
823.55	26431
823.69	26617
823.83	26625
823.97	26473
824.11	26469
824.25	26347
824.389	26271
824.529	26598
824.669	26301
824.809	26442
824.949	26427
825.089	26526
825.228	26533
825.368	26206
825.508	26259
825.648	26256
825.787	26408
825.927	26423
826.067	26332
826.206	26168
826.346	26267
826.485	26328
826.625	26263
826.765	26419
826.904	26343
827.044	25966
827.183	25852
827.323	26031
827.462	25986
827.601	26027
827.741	26046
827.88	26050
828.02	25932
828.159	25925
828.298	25951
828.437	26050
828.577	25986
828.716	25963
828.855	25871
828.994	25769
829.134	25738
829.273	25868
829.412	25609
829.551	25666
829.69	25731
829.829	25655
829.968	25784
830.107	25677
830.246	25696
830.385	25632
830.524	25670
830.663	25521
830.802	25502
830.941	25259
831.08	25266
831.219	25327
831.357	25259
831.496	25586
831.635	25373
831.774	25312
831.913	25190
832.051	25168
832.19	25304
832.329	25152
832.467	24977
832.606	24920
832.744	24970
832.883	24909
833.022	25038
833.16	24977
833.299	25126
833.437	25164
833.576	24996
833.714	25209
833.852	25160
833.991	25148
834.129	25126
834.267	25042
834.406	25084
834.544	25114
834.682	25221
834.821	25069
834.959	25320
835.097	24932
835.235	25217
835.373	25053
835.511	25034
835.65	24897
835.788	24947
835.926	24863
836.064	24829
836.202	24924
836.34	24867
836.478	25038
836.615	24821
836.753	24913
836.891	25008
837.029	24833
837.167	24844
837.305	24863
837.443	24798
837.58	24810
837.718	24779
837.856	24753
837.993	24559
838.131	24669
838.269	24544
838.406	24669
838.544	24570
838.681	24380
838.819	24357
838.956	24174
839.094	24262
839.231	24372
839.369	24292
839.506	24589
839.643	24544
839.781	24315
839.918	24136
840.055	24232
840.193	24194
840.33	24091
840.467	24095
840.604	24121
840.742	24327
840.879	23821
841.016	24095
841.153	23965
841.29	24235
841.427	24091
841.564	24197
841.701	24053
841.838	24022
841.975	24015
842.112	23923
842.249	23942
842.385	23927
842.522	23977
842.659	23912
842.796	23912
842.933	23878
843.069	23901
843.206	23798
843.343	24003
843.479	23863
843.616	23733
843.752	23649
843.889	23710
844.025	23699
844.162	23707
844.298	23699
844.435	23627
844.571	23680
844.708	23790
844.844	23771
844.98	23752
845.117	23817
845.253	23531
845.389	23410
845.525	23547
845.661	23516
845.798	23364
845.934	23448
846.07	23318
846.206	23429
846.342	23505
846.478	23334
846.614	23132
846.75	23102
846.886	23121
847.022	23254
847.158	23261
847.294	23071
847.429	23185
847.565	23079
847.701	23410
847.837	22675
847.972	22755
848.108	22938
848.244	22908
848.379	22710
848.515	22729
848.65	22645
848.786	22622
848.921	22744
849.057	22862
849.192	22626
849.328	22771
849.463	22713
849.598	22569
849.734	22694
849.869	22550
850.004	22466
850.14	22535
850.275	22550
850.41	22398
850.545	22306
850.68	22443
850.815	22459
850.95	22466
851.085	22462
851.22	22542
851.355	22527
851.49	22573
851.625	22386
851.76	22466
851.895	22344
852.03	22470
852.165	22432
852.299	22428
852.434	22504
852.569	22512
852.703	22398
852.838	22478
852.973	22584
853.107	22641
853.242	22382
853.376	22318
853.511	22226
853.645	22287
853.78	22348
853.914	22287
854.048	22329
854.183	22242
854.317	22333
854.451	22451
854.585	22310
854.72	22329
854.854	22325
854.988	22223
855.122	22322
855.256	22128
855.39	22318
855.524	22333
855.658	22280
855.792	22382
855.926	22238
856.06	22265
856.194	22413
856.327	22139
856.461	22234
856.595	22116
856.729	22280
856.862	22409
856.996	22356
857.13	22417
857.263	22234
857.397	22424
857.53	22207
857.664	22265
857.797	22234
857.931	22257
858.064	22489
858.197	22348
858.331	22246
858.464	22192
858.597	22253
858.731	22215
858.864	22226
858.997	22299
859.13	22253
859.263	22322
859.396	22253
859.529	22295
859.662	22314
859.795	22226
859.928	22192
860.061	22394
860.194	22497
860.327	22295
860.46	22318
860.592	22409
860.725	22424
860.858	22329
860.99	22272
861.123	22166
861.256	22196
861.388	22253
861.521	23014
861.653	22124
861.786	22063
861.918	21975
862.05	22135
862.183	22226
862.315	22177
862.447	22147
862.58	22116
862.712	21876
862.844	21994
862.976	22029
863.108	22048
863.24	22451
863.372	21892
863.504	21953
863.636	21911
863.768	22048
863.9	21987
864.032	21880
864.164	21918
864.296	21911
864.428	22040
864.559	22105
864.691	22048
864.823	21991
864.954	21934
865.086	21926
865.217	21888
865.349	21857
865.48	21846
865.612	21842
865.743	22105
865.875	21857
866.006	21835
866.137	21816
866.269	21739
866.4	21873
866.531	21728
866.662	21652
866.793	21709
866.924	21747
867.055	21823
867.186	21751
867.317	21667
867.448	21717
867.579	21701
867.71	21774
867.841	21637
867.972	21797
868.103	21751
868.233	21789
868.364	21903
868.495	21854
868.625	21968
868.756	22070
868.886	21968
869.017	21842
869.147	22109
869.278	22090
869.408	21994
869.539	21979
869.669	22166
869.799	22006
869.929	22097
870.06	22044
870.19	22394
870.32	22200
870.45	22310
870.58	22360
870.71	22573
870.84	22417
870.97	22538
871.1	22375
871.23	22580
871.36	22645
871.489	22599
871.619	22603
871.749	22618
871.879	22656
872.008	22630
872.138	22618
872.267	22527
872.397	22402
872.526	22516
872.656	22474
872.785	22481
872.915	22675
873.044	22710
873.173	22687
873.303	22653
873.432	22725
873.561	22854
873.69	22618
873.819	22634
873.948	22839
874.077	22615
874.206	22546
874.335	22519
874.464	22713
874.593	22767
874.722	22656
874.851	22904
874.979	22896
875.108	22915
875.237	22637
875.365	22767
875.494	22752
875.623	22953
875.751	22805
875.88	22877
876.008	23033
876.136	23048
876.265	23170
876.393	23353
876.521	23387
876.65	23376
876.778	23166
876.906	23143
877.034	23155
877.162	23189
877.29	23143
877.418	23220
877.546	23216
877.674	23204
877.802	23185
877.93	23185
878.058	23083
878.185	23052
878.313	23083
878.441	23235
878.568	22953
878.696	23025
878.824	23242
878.951	23220
879.079	23414
879.206	23512
879.333	23364
879.461	23200
879.588	23379
879.715	23315
879.842	23543
879.97	23223
880.097	23025
880.224	22965
880.351	23102
880.478	23010
880.605	22984
880.732	23117
880.859	23261
880.986	23025
881.112	22938
881.239	22892
881.366	22744
881.493	22740
881.619	22729
881.746	22713
881.872	22615
881.999	22531
882.125	22542
882.252	22599
882.378	22466
882.505	22683
882.631	22489
882.757	22337
882.883	22440
883.01	22379
883.136	22223
883.262	22200
883.388	22112
883.514	22147
883.64	22265
883.766	22044
883.892	21968
884.018	22162
884.143	22169
884.269	22322
884.395	22067
884.52	22006
884.646	21998
884.772	21835
884.897	21789
885.023	21907
885.148	21994
885.274	21956
885.399	21998
885.524	21854
885.65	21880
885.775	21884
885.9	21903
886.025	21941
886.15	21972
886.275	21770
886.4	21762
886.525	21911
886.65	21785
886.775	21857
886.9	21975
887.025	22036
887.149	21755
887.274	21751
887.399	21675
887.523	21747
887.648	21686
887.773	21523
887.897	21709
888.021	21637
888.146	21625
888.27	21717
888.395	21793
888.519	21770
888.643	21644
888.767	21713
888.891	21739
889.015	21553
889.139	21408
889.263	21500
889.387	21618
889.511	21705
889.635	21720
889.759	21519
889.883	21416
890.006	21401
890.13	21443
890.254	21526
890.377	21469
890.501	21214
890.624	21188
890.748	21310
890.871	21157
890.995	21013
891.118	20921
891.241	21100
891.364	21119
891.488	21135
891.611	21001
891.734	21055
891.857	21070
891.98	20975
892.103	20925
892.226	21058
892.349	20952
892.471	20788
892.594	21032
892.717	20963
892.839	20834
892.962	20944
893.085	21058
893.207	20861
893.33	20800
893.452	20765
893.575	20902
893.697	20956
893.819	21074
893.941	21081
894.064	21081
894.186	20796
894.308	20899
894.43	20998
894.552	20960
894.674	21043
894.796	20876
894.918	20876
895.04	20864
895.161	20853
895.283	20990
895.405	20826
895.526	20887
895.648	20804
895.769	20838
895.891	20902
896.012	20914
896.134	20941
896.255	20788
896.376	20842
896.498	20918
896.619	20765
896.74	20895
896.861	20933
896.982	21180
897.103	21302
897.224	21100
897.345	21047
897.466	21066
897.587	21013
897.708	21104
897.828	21230
897.949	20979
898.07	20906
898.19	20952
898.311	20994
898.431	20979
898.552	21096
898.672	21085
898.792	21199
898.913	21100
899.033	20971
899.153	20883
899.273	20785
899.393	20765
899.513	20834
899.633	20689
899.753	20796
899.873	20609
899.993	20800
900.113	20769
900.232	20796
900.352	20632
900.472	20560
900.591	20575
900.711	20594
900.83	20602
900.95	20667
901.069	20617
901.189	20511
901.308	20202
901.427	20183
901.546	20088
901.665	20206
901.784	20153
901.904	19928
902.023	19776
902.141	19616
902.26	19685
902.379	19715
902.498	19700
902.617	19628
902.735	19689
902.854	19597
902.973	19571
903.091	19251
903.21	19320
903.328	19343
903.446	19285
903.565	19118
903.683	19015
903.801	18993
903.919	19126
904.038	19046
904.156	18909
904.274	18962
904.392	18886
904.51	18837
904.627	18810
904.745	18943
904.863	18916
904.981	18806
905.098	18612
905.216	18574
905.334	18608
905.451	18597
905.569	18528
905.686	18559
905.803	18563
905.921	18452
906.038	18498
906.155	18308
906.272	18216
906.389	18270
906.506	18155
906.623	18102
906.74	18098
906.857	18064
906.974	18053
907.091	18182
907.208	18163
907.324	18068
907.441	17996
907.557	17775
907.674	17824
907.79	17798
907.907	17764
908.023	17855
908.139	17733
908.256	17691
908.372	17509
908.488	17600
908.604	17585
908.72	17452
908.836	17463
908.952	17524
909.068	17486
909.184	17528
909.3	17501
909.415	17520
909.531	17474
909.647	17414
909.762	17181
909.878	17288
909.993	17117
910.108	17250
910.224	17220
910.339	17193
910.454	17010
910.57	16965
910.685	16927
910.8	17200
910.915	17121
911.03	17010
911.145	16892
911.259	16778
911.374	16767
911.489	16649
911.604	16736
911.718	16573
911.833	16481
911.947	16508
912.062	16299
912.176	16394
912.291	16478
912.405	16440
912.519	16691
912.633	16603
912.748	16527
912.862	16432
912.976	16337
913.09	16211
913.204	16287
913.318	16451
913.431	16436
913.545	16417
913.659	16447
913.772	16261
913.886	16200
914	16090
914.113	16120
914.226	16192
914.34	16150
914.453	15968
914.566	16303
914.68	15994
914.793	15960
914.906	15865
915.019	15747
915.132	15679
915.245	15675
915.358	15709
915.47	15724
915.583	15724
915.696	15739
915.809	15850
915.921	15857
916.034	15652
916.146	15603
916.259	15542
916.371	15675
916.483	15686
916.595	15526
916.708	15580
916.82	15504
916.932	15466
917.044	15401
917.156	15344
917.268	15450
917.38	15348
917.491	15294
917.603	15367
917.715	15386
917.826	15492
917.938	15222
918.049	15184
918.161	15207
918.272	15321
918.384	15397
918.495	15279
918.606	15157
918.717	15074
918.828	15165
918.939	15119
919.05	14975
919.161	15055
919.272	14899
919.383	14971
919.494	15188
919.604	15256
919.715	15024
919.826	14948
919.936	15097
920.047	15222
920.157	14971
920.267	15252
920.378	15062
920.488	14914
920.598	15176
920.708	15374
920.818	15097
920.928	15245
921.038	15260
921.148	15214
921.258	14986
921.368	14929
921.477	14838
921.587	14697
921.697	14537
921.806	14815
921.916	14541
922.025	14396
922.134	14328
922.244	14404
922.353	14499
922.462	14183
922.571	14202
922.68	14058
922.789	14039
922.898	13997
923.007	13852
923.116	14096
923.224	14020
923.333	13997
923.442	13864
923.55	13875
923.659	13928
923.767	13879
923.876	13780
923.984	13864
924.092	13753
924.201	13780
924.309	13742
924.417	13708
924.525	13670
924.633	13677
924.741	14625
924.849	13548
924.956	13605
925.064	13438
925.172	13403
925.279	13483
925.387	13411
925.494	13373
925.602	13502
925.709	13400
925.816	13293
925.924	13362
926.031	13464
926.138	13282
926.245	13438
926.352	13225
926.459	13411
926.566	13460
926.673	13213
926.779	13255
926.886	13160
926.993	12981
927.099	12905
927.206	12935
927.312	12932
927.419	12935
927.525	13004
927.631	12939
927.737	12947
927.843	12814
927.95	12722
928.056	12791
928.162	12741
928.267	12760
928.373	13563
928.479	12821
928.585	12525
928.69	12700
928.796	12798
928.901	12620
929.007	12460
929.112	12627
929.218	12601
929.323	12616
929.428	12460
929.533	12589
929.638	12361
929.743	12399
929.848	12570
929.953	12391
930.058	12414
930.163	12228
930.267	12175
930.372	12311
930.477	12155
930.581	12357
930.685	12148
930.79	12049
930.894	12148
930.998	11999
931.103	12167
931.207	11798
931.311	11672
931.415	11665
931.519	11383
931.623	11372
