Data from test_V78500241_264.txt Node
Date: Fri Mar 25 15:11:41 CST 2022
User: usil
Spectrometer: V785-0024
Trigger mode: 0
Integration Time (sec): 4.000000E-1
Scans to average: 1
Nonlinearity correction enabled: false
Boxcar width: 0
Storing dark spectrum: false
XAxis mode: Wavelengths
Number of Pixels in Spectrum: 1024
>>>>>Begin Spectral Data<<<<<
801.071	28325
801.214	28200
801.356	27953
801.499	28032
801.641	27762
801.783	27922
801.926	27964
802.068	27846
802.211	27732
802.353	27903
802.496	27633
802.638	27564
802.78	27485
802.923	27595
803.065	27370
803.208	27450
803.35	27523
803.492	27720
803.635	27759
803.777	27519
803.919	27736
804.061	28097
804.204	27633
804.346	27587
804.488	27580
804.63	27603
804.773	27439
804.915	27561
805.057	27808
805.199	27637
805.341	27861
805.483	27865
805.626	27713
805.768	27705
805.91	27755
806.052	27785
806.194	27682
806.336	27914
806.478	27785
806.62	27709
806.762	27907
806.904	27998
807.046	28303
807.188	28173
807.33	28162
807.472	28401
807.614	28036
807.756	28025
807.898	27922
808.04	28063
808.182	28112
808.324	27998
808.465	27972
808.607	28272
808.749	28268
808.891	28474
809.033	28660
809.174	28367
809.316	28382
809.458	28257
809.6	28481
809.741	28413
809.883	28588
810.025	28801
810.166	28679
810.308	28641
810.45	28672
810.591	28421
810.733	28276
810.875	28371
811.016	28295
811.158	28246
811.299	28451
811.441	28565
811.582	28310
811.724	28238
811.865	28394
812.007	28382
812.148	28413
812.29	28405
812.431	28390
812.573	28653
812.714	28755
812.855	28736
812.997	29033
813.138	29147
813.279	29064
813.421	28858
813.562	28702
813.703	28706
813.845	28603
813.986	28200
814.127	28128
814.268	28109
814.41	27991
814.551	27937
814.692	28154
814.833	27850
814.974	27880
815.115	28029
815.256	27743
815.397	27960
815.539	27846
815.68	27698
815.821	27804
815.962	27827
816.103	27899
816.244	27557
816.385	27606
816.526	27431
816.666	27313
816.807	27184
816.948	27412
817.089	27564
817.23	27317
817.371	27370
817.512	27138
817.653	27173
817.793	27089
817.934	27272
818.075	27188
818.216	27245
818.356	27150
818.497	27039
818.638	26906
818.778	26868
818.919	26842
819.06	27077
819.2	26982
819.341	27116
819.481	27104
819.622	27252
819.762	27466
819.903	27466
820.043	27363
820.184	27427
820.324	27291
820.465	27329
820.605	27199
820.746	27287
820.886	26998
821.026	27313
821.167	27291
821.307	27252
821.447	27184
821.588	27070
821.728	26857
821.868	26765
822.008	26655
822.149	26541
822.289	26583
822.429	26412
822.569	26377
822.709	26351
822.849	26134
822.99	26043
823.13	26077
823.27	25902
823.41	25887
823.55	25837
823.69	25978
823.83	25868
823.97	25826
824.11	25803
824.25	25727
824.389	25719
824.529	25734
824.669	25719
824.809	25795
824.949	25715
825.089	25856
825.228	25765
825.368	25731
825.508	25479
825.648	25586
825.787	25620
825.927	25655
826.067	25613
826.206	25613
826.346	25655
826.485	25582
826.625	25525
826.765	25731
826.904	25537
827.044	25324
827.183	25343
827.323	25168
827.462	25365
827.601	25335
827.741	25285
827.88	25179
828.02	25114
828.159	25270
828.298	25266
828.437	25289
828.577	25198
828.716	25289
828.855	25133
828.994	24966
829.134	24962
829.273	24977
829.412	24962
829.551	24802
829.69	24970
829.829	24947
829.968	25000
830.107	25088
830.246	25031
830.385	24882
830.524	24814
830.663	24726
830.802	24669
830.941	24407
831.08	24422
831.219	24593
831.357	24734
831.496	24779
831.635	24551
831.774	24414
831.913	24323
832.051	24403
832.19	24243
832.329	24254
832.467	24194
832.606	24159
832.744	24178
832.883	24155
833.022	24152
833.16	24315
833.299	24224
833.437	24243
833.576	24235
833.714	24220
833.852	24273
833.991	24251
834.129	24357
834.267	24243
834.406	24296
834.544	24239
834.682	24258
834.821	24201
834.959	24395
835.097	24178
835.235	24209
835.373	24243
835.511	24315
835.65	24083
835.788	23988
835.926	23908
836.064	23752
836.202	23752
836.34	24015
836.478	24106
836.615	23973
836.753	24068
836.891	24026
837.029	24072
837.167	24034
837.305	23973
837.443	23916
837.58	23893
837.718	24022
837.856	23942
837.993	23813
838.131	23920
838.269	23832
838.406	23779
838.544	23718
838.681	23551
838.819	23531
838.956	23410
839.094	23322
839.231	23383
839.369	23406
839.506	23729
839.643	23516
839.781	23242
839.918	23383
840.055	23246
840.193	23444
840.33	23197
840.467	23246
840.604	23261
840.742	23547
840.879	23075
841.016	23212
841.153	23121
841.29	23414
841.427	23235
841.564	23208
841.701	23136
841.838	23151
841.975	23037
842.112	23128
842.249	23056
842.385	22923
842.522	23132
842.659	23033
842.796	22961
842.933	22965
843.069	23014
843.206	22949
843.343	23006
843.479	22957
843.616	23010
843.752	22687
843.889	22694
844.025	22858
844.162	22641
844.298	22869
844.435	22702
844.571	22725
844.708	22748
844.844	22797
844.98	22721
845.117	22866
845.253	22660
845.389	22641
845.525	22512
845.661	22599
845.798	22451
845.934	22531
846.07	22405
846.206	22443
846.342	22523
846.478	22436
846.614	22211
846.75	22116
846.886	22188
847.022	22261
847.158	22246
847.294	22124
847.429	22162
847.565	22234
847.701	22394
847.837	21972
847.972	21979
848.108	22025
848.244	21949
848.379	21838
848.515	21778
848.65	21679
848.786	21762
848.921	21663
849.057	21956
849.192	21873
849.328	21766
849.463	21835
849.598	21831
849.734	21595
849.869	21622
850.004	21523
850.14	21610
850.275	21606
850.41	21488
850.545	21515
850.68	21416
850.815	21686
850.95	21568
851.085	21690
851.22	21603
851.355	21496
851.49	21443
851.625	21473
851.76	21534
851.895	21363
852.03	21386
852.165	21420
852.299	21568
852.434	21549
852.569	21572
852.703	21519
852.838	21682
852.973	21622
853.107	21637
853.242	21367
853.376	21268
853.511	21260
853.645	21313
853.78	21599
853.914	21321
854.048	21340
854.183	21321
854.317	21192
854.451	21542
854.585	21245
854.72	21329
854.854	21405
854.988	21336
855.122	21306
855.256	21264
855.39	21329
855.524	21393
855.658	21306
855.792	21313
855.926	21431
856.06	21317
856.194	21313
856.327	21294
856.461	21260
856.595	21237
856.729	21222
856.862	21439
856.996	21416
857.13	21370
857.263	21488
857.397	21401
857.53	21279
857.664	21412
857.797	21344
857.931	21435
858.064	21401
858.197	21405
858.331	21184
858.464	21245
858.597	21131
858.731	21294
858.864	21291
858.997	21302
859.13	21298
859.263	21313
859.396	21272
859.529	21294
859.662	21176
859.795	21218
859.928	21298
860.061	21405
860.194	21534
860.327	21344
860.46	21203
860.592	21454
860.725	21473
860.858	21416
860.99	21245
861.123	21180
861.256	21268
861.388	21230
861.521	21960
861.653	21047
861.786	21047
861.918	21176
862.05	21241
862.183	21233
862.315	21310
862.447	21294
862.58	21211
862.712	21051
862.844	20979
862.976	21142
863.108	21036
863.24	21530
863.372	20906
863.504	20933
863.636	20929
863.768	20975
863.9	20914
864.032	20967
864.164	20880
864.296	21051
864.428	21131
864.559	20967
864.691	20998
864.823	20902
864.954	20986
865.086	20948
865.217	20853
865.349	20743
865.48	20842
865.612	20963
865.743	20899
865.875	20815
866.006	20830
866.137	20857
866.269	20918
866.4	20876
866.531	20800
866.662	20648
866.793	20887
866.924	20785
867.055	20849
867.186	20891
867.317	20739
867.448	20834
867.579	20796
867.71	20693
867.841	20712
867.972	20853
868.103	20804
868.233	20796
868.364	20792
868.495	20933
868.625	21017
868.756	21089
868.886	20979
869.017	21058
869.147	21028
869.278	21306
869.408	21062
869.539	21093
869.669	21230
869.799	21009
869.929	21085
870.06	21135
870.19	21393
870.32	21351
870.45	21416
870.58	21416
870.71	21526
870.84	21485
870.97	21348
871.1	21549
871.23	21682
871.36	21561
871.489	21504
871.619	21622
871.749	21625
871.879	21671
872.008	21637
872.138	21622
872.267	21660
872.397	21462
872.526	21545
872.656	21462
872.785	21416
872.915	21504
873.044	21660
873.173	21705
873.303	21660
873.432	21629
873.561	21663
873.69	21747
873.819	21610
873.948	21656
874.077	21633
874.206	21633
874.335	21701
874.464	21785
874.593	21888
874.722	21888
874.851	21899
874.979	21804
875.108	22002
875.237	21911
875.365	21732
875.494	21869
875.623	21941
875.751	21922
875.88	21873
876.008	21972
876.136	22055
876.265	22272
876.393	22379
876.521	22306
876.65	22428
876.778	22303
876.906	22242
877.034	22169
877.162	22246
877.29	22154
877.418	22268
877.546	22219
877.674	22287
877.802	22306
877.93	22219
878.058	22150
878.185	22215
878.313	22226
878.441	22086
878.568	22086
878.696	22150
878.824	22390
878.951	22405
879.079	22417
879.206	22596
879.333	22402
879.461	22421
879.588	22329
879.715	22409
879.842	22341
879.97	22295
880.097	22154
880.224	22040
880.351	21964
880.478	22044
880.605	22059
880.732	22070
880.859	22223
880.986	22032
881.112	21918
881.239	21930
881.366	21808
881.493	21633
881.619	21530
881.746	21720
881.872	21618
881.999	21538
882.125	21652
882.252	21583
882.378	21549
882.505	21606
882.631	21431
882.757	21408
882.883	21492
883.01	21340
883.136	21306
883.262	21214
883.388	21207
883.514	21363
883.64	21378
883.766	21317
883.892	21055
884.018	21169
884.143	21283
884.269	21344
884.395	21032
884.52	20948
884.646	20998
884.772	20918
884.897	20819
885.023	20918
885.148	21112
885.274	21093
885.399	21176
885.524	21017
885.65	20979
885.775	20998
885.9	20986
886.025	21119
886.15	21157
886.275	20998
886.4	20826
886.525	20967
886.65	20849
886.775	20895
886.9	21032
887.025	21112
887.149	21020
887.274	20792
887.399	20727
887.523	20872
887.648	20644
887.773	20625
887.897	20781
888.021	20788
888.146	20701
888.27	20686
888.395	20792
888.519	20731
888.643	20689
888.767	20720
888.891	20522
889.015	20492
889.139	20590
889.263	20514
889.387	20678
889.511	20701
889.635	20651
889.759	20556
889.883	20511
890.006	20526
890.13	20598
890.254	20454
890.377	20431
890.501	20229
890.624	20183
890.748	20328
890.871	20157
890.995	20069
891.118	19970
891.241	20164
891.364	20126
891.488	20214
891.611	20027
891.734	20054
891.857	20100
891.98	20107
892.103	20142
892.226	20176
892.349	20176
892.471	19936
892.594	19963
892.717	19955
892.839	20012
892.962	20039
893.085	20119
893.207	20008
893.33	19997
893.452	19982
893.575	20008
893.697	19936
893.819	20115
893.941	20149
894.064	20180
894.186	19967
894.308	19944
894.43	20107
894.552	20092
894.674	20062
894.796	19879
894.918	20027
895.04	19947
895.161	20012
895.283	19974
895.405	20020
895.526	20069
895.648	20046
895.769	20024
895.891	19963
896.012	20107
896.134	19963
896.255	19997
896.376	19959
896.498	19944
896.619	20062
896.74	19871
896.861	20096
896.982	20377
897.103	20625
897.224	20210
897.345	20366
897.466	20111
897.587	20180
897.708	20381
897.828	20210
897.949	20176
898.07	19967
898.19	20233
898.311	20218
898.431	20278
898.552	20126
898.672	20248
898.792	20244
898.913	20221
899.033	20119
899.153	20001
899.273	19917
899.393	20031
899.513	19890
899.633	19826
899.753	19932
899.873	19955
899.993	19947
900.113	19875
900.232	19856
900.352	19852
900.472	19719
900.591	19681
900.711	19757
900.83	19704
900.95	19890
901.069	19788
901.189	19674
901.308	19400
901.427	19320
901.546	19244
901.665	19293
901.784	19346
901.904	19107
902.023	19076
902.141	18825
902.26	18890
902.379	18821
902.498	18806
902.617	18829
902.735	18867
902.854	18768
902.973	18707
903.091	18467
903.21	18517
903.328	18384
903.446	18388
903.565	18266
903.683	18369
903.801	18178
903.919	18258
904.038	18224
904.156	17999
904.274	18194
904.392	18068
904.51	18079
904.627	18011
904.745	18117
904.863	18083
904.981	17866
905.098	17665
905.216	17687
905.334	17733
905.451	17741
905.569	17722
905.686	17714
905.803	17775
905.921	17493
906.038	17676
906.155	17627
906.272	17417
906.389	17315
906.506	17330
906.623	17330
906.74	17239
906.857	17197
906.974	17174
907.091	17292
907.208	17383
907.324	17322
907.441	17181
907.557	16987
907.674	17029
907.79	16946
907.907	16946
908.023	17064
908.139	16957
908.256	16934
908.372	16839
908.488	16835
908.604	16664
908.72	16687
908.836	16725
908.952	16573
909.068	16630
909.184	16869
909.3	16603
909.415	16759
909.531	16706
909.647	16466
909.762	16352
909.878	16432
909.993	16459
910.108	16261
910.224	16363
910.339	16405
910.454	16238
910.57	16181
910.685	16010
910.8	16360
910.915	16295
911.03	16253
911.145	15941
911.259	16040
911.374	15915
911.489	15934
911.604	15876
911.718	15724
911.833	15648
911.947	15595
912.062	15564
912.176	15667
912.291	15679
912.405	15709
912.519	15846
912.633	15876
912.748	15736
912.862	15709
912.976	15466
913.09	15393
913.204	15488
913.318	15511
913.431	15561
913.545	15488
913.659	15564
913.772	15450
913.886	15321
914	15336
914.113	15386
914.226	15401
914.34	15431
914.453	15275
914.566	15378
914.68	15302
914.793	15199
914.906	15009
915.019	14891
915.132	14849
915.245	14872
915.358	14956
915.47	14948
915.583	14948
915.696	14975
915.809	15116
915.921	14998
916.034	14804
916.146	14899
916.259	14716
916.371	14918
916.483	14796
916.595	14800
916.708	14743
916.82	14769
916.932	14807
917.044	14781
917.156	14686
917.268	14621
917.38	14644
917.491	14606
917.603	14545
917.715	14670
917.826	14724
917.938	14465
918.049	14339
918.161	14564
918.272	14811
918.384	14549
918.495	14492
918.606	14438
918.717	14351
918.828	14347
918.939	14381
919.05	14244
919.161	14275
919.272	14084
919.383	14240
919.494	14313
919.604	14568
919.715	14355
919.826	14271
919.936	14218
920.047	14282
920.157	14301
920.267	14575
920.378	14377
920.488	14298
920.598	14549
920.708	14568
920.818	14465
920.928	14305
921.038	14568
921.148	14552
921.258	14214
921.368	14130
921.477	14054
921.587	14035
921.697	13947
921.806	14039
921.916	13788
922.025	13753
922.134	13738
922.244	13666
922.353	13651
922.462	13662
922.571	13491
922.68	13358
922.789	13278
922.898	13259
923.007	13225
923.116	13384
923.224	13282
923.333	13244
923.442	13213
923.55	13122
923.659	13141
923.767	13278
923.876	13137
923.984	13213
924.092	13046
924.201	13152
924.309	13069
924.417	13156
924.525	12996
924.633	13072
924.741	13807
924.849	12837
924.956	12886
925.064	12817
925.172	12753
925.279	12760
925.387	12741
925.494	12719
925.602	12833
925.709	12795
925.816	12544
925.924	12669
926.031	12791
926.138	12700
926.245	12753
926.352	12578
926.459	12692
926.566	12806
926.673	12715
926.779	12475
926.886	12525
926.993	12300
927.099	12407
927.206	12403
927.312	12232
927.419	12338
927.525	12296
927.631	12372
927.737	12296
927.843	12087
927.95	12072
928.056	12136
928.162	12224
928.267	12308
928.373	12665
928.479	12182
928.585	11885
928.69	12114
928.796	12140
928.901	12057
929.007	11851
929.112	11969
929.218	11977
929.323	11798
929.428	11836
929.533	11988
929.638	11828
929.743	11752
929.848	11832
929.953	11843
930.058	11771
930.163	11573
930.267	11585
930.372	11756
930.477	11524
930.581	11684
930.685	11596
930.79	11501
930.894	11433
930.998	11417
931.103	11543
931.207	11147
931.311	11201
931.415	10984
931.519	10790
931.623	10839
