Data from test_V78500241_533.txt Node
Date: Fri Mar 25 15:13:34 CST 2022
User: usil
Spectrometer: V785-0024
Trigger mode: 0
Integration Time (sec): 4.000000E-1
Scans to average: 1
Nonlinearity correction enabled: false
Boxcar width: 0
Storing dark spectrum: false
XAxis mode: Wavelengths
Number of Pixels in Spectrum: 1024
>>>>>Begin Spectral Data<<<<<
801.071	27416
801.214	27310
801.356	27131
801.499	27180
801.641	27085
801.783	26788
801.926	26975
802.068	26682
802.211	26743
802.353	26830
802.496	26412
802.638	26648
802.78	26488
802.923	26571
803.065	26533
803.208	26541
803.35	26571
803.492	26617
803.635	26670
803.777	26629
803.919	26716
804.061	26994
804.204	26724
804.346	26724
804.488	26503
804.63	26754
804.773	26564
804.915	26598
805.057	26739
805.199	26663
805.341	26739
805.483	26735
805.626	26834
805.768	26727
805.91	26895
806.052	26792
806.194	26708
806.336	27017
806.478	26804
806.62	26762
806.762	26910
806.904	26998
807.046	27317
807.188	27283
807.33	27310
807.472	27275
807.614	27070
807.756	27207
807.898	27093
808.04	27020
808.182	26975
808.324	27043
808.465	27058
808.607	27192
808.749	27272
808.891	27485
809.033	27625
809.174	27439
809.316	27401
809.458	27405
809.6	27363
809.741	27538
809.883	27526
810.025	27838
810.166	27682
810.308	27701
810.45	27504
810.591	27728
810.733	27519
810.875	27405
811.016	27329
811.158	27367
811.299	27416
811.441	27610
811.582	27625
811.724	27485
811.865	27199
812.007	27287
812.148	27416
812.29	27416
812.431	27466
812.573	27686
812.714	27705
812.855	28067
812.997	28021
813.138	28211
813.279	28010
813.421	28097
813.562	27827
813.703	27831
813.845	27496
813.986	27218
814.127	27222
814.268	27123
814.41	27085
814.551	27066
814.692	27123
814.833	26891
814.974	26940
815.115	27199
815.256	26902
815.397	27005
815.539	26910
815.68	26929
815.821	26716
815.962	26899
816.103	26891
816.244	26720
816.385	26750
816.526	26571
816.666	26526
816.807	26412
816.948	26530
817.089	26526
817.23	26404
817.371	26347
817.512	26317
817.653	26305
817.793	26298
817.934	26400
818.075	26339
818.216	26328
818.356	26317
818.497	26317
818.638	26084
818.778	26020
818.919	26058
819.06	26081
819.2	26256
819.341	26313
819.481	26317
819.622	26484
819.762	26606
819.903	26689
820.043	26545
820.184	26533
820.324	26461
820.465	26560
820.605	26549
820.746	26552
820.886	26305
821.026	26305
821.167	26374
821.307	26408
821.447	26434
821.588	26221
821.728	26191
821.868	26016
822.008	25833
822.149	25826
822.289	25868
822.429	25491
822.569	25548
822.709	25575
822.849	25362
822.99	25232
823.13	25301
823.27	25145
823.41	25110
823.55	24992
823.69	25133
823.83	25088
823.97	25046
824.11	24992
824.25	25031
824.389	24909
824.529	24943
824.669	24958
824.809	25069
824.949	25145
825.089	25171
825.228	25034
825.368	24916
825.508	24768
825.648	24848
825.787	24810
825.927	24901
826.067	24783
826.206	24772
826.346	24951
826.485	24932
826.625	24890
826.765	24871
826.904	24837
827.044	24380
827.183	24597
827.323	24582
827.462	24658
827.601	24627
827.741	24540
827.88	24502
828.02	24403
828.159	24544
828.298	24589
828.437	24559
828.577	24452
828.716	24601
828.855	24559
828.994	24311
829.134	24224
829.273	24300
829.412	24232
829.551	24182
829.69	24308
829.829	24205
829.968	24235
830.107	24194
830.246	24338
830.385	24182
830.524	24110
830.663	24228
830.802	23969
830.941	23859
831.08	23722
831.219	23840
831.357	23859
831.496	24148
831.635	23809
831.774	23733
831.913	23611
832.051	23729
832.19	23684
832.329	23638
832.467	23596
832.606	23493
832.744	23436
832.883	23543
833.022	23490
833.16	23459
833.299	23478
833.437	23512
833.576	23577
833.714	23684
833.852	23741
833.991	23581
834.129	23596
834.267	23619
834.406	23668
834.544	23684
834.682	23634
834.821	23414
834.959	23859
835.097	23547
835.235	23600
835.373	23699
835.511	23573
835.65	23436
835.788	23440
835.926	23254
836.064	23292
836.202	23315
836.34	23421
836.478	23531
836.615	23463
836.753	23330
836.891	23543
837.029	23490
837.167	23433
837.305	23337
837.443	23288
837.58	23410
837.718	23322
837.856	23307
837.993	23235
838.131	23246
838.269	23102
838.406	23284
838.544	23208
838.681	22900
838.819	22934
838.956	22782
839.094	22691
839.231	22904
839.369	22759
839.506	23090
839.643	23003
839.781	22930
839.918	22679
840.055	22824
840.193	22721
840.33	22801
840.467	22622
840.604	22774
840.742	23029
840.879	22512
841.016	22618
841.153	22577
841.29	22778
841.427	22615
841.564	22752
841.701	22755
841.838	22630
841.975	22535
842.112	22504
842.249	22516
842.385	22538
842.522	22675
842.659	22485
842.796	22607
842.933	22474
843.069	22424
843.206	22455
843.343	22462
843.479	22424
843.616	22402
843.752	22276
843.889	22303
844.025	22333
844.162	22238
844.298	22329
844.435	22139
844.571	22162
844.708	22257
844.844	22402
844.98	22390
845.117	22348
845.253	22219
845.389	22105
845.525	22135
845.661	22143
845.798	22029
845.934	22029
846.07	21991
846.206	22051
846.342	22116
846.478	22055
846.614	21816
846.75	21652
846.886	21770
847.022	21739
847.158	21720
847.294	21705
847.429	21797
847.565	21606
847.701	21975
847.837	21431
847.972	21443
848.108	21481
848.244	21443
848.379	21397
848.515	21332
848.65	21264
848.786	21359
848.921	21298
849.057	21374
849.192	21401
849.328	21348
849.463	21393
849.598	21214
849.734	21154
849.869	21214
850.004	21074
850.14	21108
850.275	21047
850.41	20952
850.545	21070
850.68	21009
850.815	21085
850.95	20994
851.085	21279
851.22	21214
851.355	21077
851.49	21058
851.625	20895
851.76	21089
851.895	20902
852.03	20967
852.165	21043
852.299	21104
852.434	21108
852.569	21047
852.703	21005
852.838	21123
852.973	21131
853.107	21135
853.242	21055
853.376	20960
853.511	20864
853.645	20823
853.78	20963
853.914	20967
854.048	20933
854.183	20971
854.317	20956
854.451	21039
854.585	20895
854.72	20838
854.854	20998
854.988	20918
855.122	20823
855.256	20724
855.39	20796
855.524	20986
855.658	20895
855.792	20861
855.926	20929
856.06	20853
856.194	20982
856.327	20785
856.461	20750
856.595	20872
856.729	20990
856.862	20971
856.996	20872
857.13	20975
857.263	21039
857.397	20982
857.53	20800
857.664	20963
857.797	20921
857.931	20967
858.064	20868
858.197	21013
858.331	20918
858.464	20689
858.597	20651
858.731	20834
858.864	20902
858.997	20804
859.13	20982
859.263	20937
859.396	20899
859.529	20857
859.662	20834
859.795	20804
859.928	20823
860.061	21058
860.194	21043
860.327	20948
860.46	20910
860.592	20937
860.725	21039
860.858	21066
860.99	20853
861.123	20864
861.256	20861
861.388	20937
861.521	21713
861.653	20686
861.786	20560
861.918	20609
862.05	20746
862.183	20800
862.315	20826
862.447	20853
862.58	20762
862.712	20579
862.844	20499
862.976	20678
863.108	20731
863.24	20921
863.372	20564
863.504	20655
863.636	20556
863.768	20667
863.9	20632
864.032	20499
864.164	20564
864.296	20648
864.428	20735
864.559	20659
864.691	20670
864.823	20674
864.954	20587
865.086	20606
865.217	20560
865.349	20488
865.48	20522
865.612	20537
865.743	20659
865.875	20476
866.006	20560
866.137	20492
866.269	20537
866.4	20442
866.531	20396
866.662	20343
866.793	20438
866.924	20465
867.055	20396
867.186	20336
867.317	20415
867.448	20343
867.579	20396
867.71	20332
867.841	20275
867.972	20480
868.103	20400
868.233	20393
868.364	20469
868.495	20461
868.625	20545
868.756	20705
868.886	20609
869.017	20644
869.147	20861
869.278	20781
869.408	20674
869.539	20697
869.669	20762
869.799	20777
869.929	20800
870.06	20819
870.19	20941
870.32	21036
870.45	20963
870.58	21074
870.71	21176
870.84	21131
870.97	21173
871.1	21070
871.23	21138
871.36	21249
871.489	21169
871.619	21302
871.749	21233
871.879	21218
872.008	21359
872.138	21211
872.267	21310
872.397	21104
872.526	20971
872.656	21116
872.785	21142
872.915	21332
873.044	21389
873.173	21329
873.303	21336
873.432	21351
873.561	21492
873.69	21287
873.819	21222
873.948	21485
874.077	21344
874.206	21138
874.335	21359
874.464	21466
874.593	21572
874.722	21477
874.851	21549
874.979	21477
875.108	21641
875.237	21492
875.365	21492
875.494	21466
875.623	21587
875.751	21481
875.88	21583
876.008	21720
876.136	21690
876.265	21930
876.393	21964
876.521	21846
876.65	22101
876.778	21797
876.906	21857
877.034	21953
877.162	21804
877.29	21884
877.418	21994
877.546	21854
877.674	21968
877.802	21926
877.93	21816
878.058	21812
878.185	21778
878.313	21865
878.441	21842
878.568	21663
878.696	21861
878.824	21918
878.951	22051
879.079	22025
879.206	22276
879.333	21991
879.461	21888
879.588	22116
879.715	22025
879.842	22261
879.97	21979
880.097	21705
880.224	21622
880.351	21793
880.478	21747
880.605	21671
880.732	21599
880.859	21892
880.986	21709
881.112	21694
881.239	21603
881.366	21492
881.493	21424
881.619	21351
881.746	21321
881.872	21275
881.999	21192
882.125	21169
882.252	21241
882.378	21252
882.505	21313
882.631	21173
882.757	21036
882.883	21036
883.01	20963
883.136	20963
883.262	20941
883.388	20853
883.514	21039
883.64	21104
883.766	20944
883.892	20716
884.018	20773
884.143	20963
884.269	20971
884.395	20678
884.52	20621
884.646	20587
884.772	20640
884.897	20545
885.023	20651
885.148	20746
885.274	20735
885.399	20727
885.524	20640
885.65	20659
885.775	20583
885.9	20697
886.025	20678
886.15	20693
886.275	20632
886.4	20602
886.525	20556
886.65	20560
886.775	20556
886.9	20720
887.025	20876
887.149	20727
887.274	20568
887.399	20412
887.523	20423
887.648	20423
887.773	20278
887.897	20446
888.021	20454
888.146	20450
888.27	20476
888.395	20408
888.519	20385
888.643	20484
888.767	20454
888.891	20358
889.015	20202
889.139	20263
889.263	20237
889.387	20404
889.511	20396
889.635	20313
889.759	20172
889.883	20153
890.006	20202
890.13	20267
890.254	20088
890.377	20225
890.501	20039
890.624	19925
890.748	20069
890.871	19936
890.995	19826
891.118	19727
891.241	19776
891.364	19856
891.488	19925
891.611	19826
891.734	19788
891.857	19780
891.98	19769
892.103	19814
892.226	19799
892.349	19784
892.471	19556
892.594	19788
892.717	19795
892.839	19696
892.962	19765
893.085	19689
893.207	19765
893.33	19571
893.452	19597
893.575	19803
893.697	19601
893.819	19921
893.941	19898
894.064	19894
894.186	19666
894.308	19742
894.43	19803
894.552	19879
894.674	19784
894.796	19712
894.918	19590
895.04	19624
895.161	19784
895.283	19635
895.405	19628
895.526	19635
895.648	19738
895.769	19658
895.891	19715
896.012	19780
896.134	19708
896.255	19681
896.376	19723
896.498	19772
896.619	19837
896.74	19677
896.861	19765
896.982	19967
897.103	20199
897.224	20005
897.345	19963
897.466	19738
897.587	19936
897.708	19932
897.828	19928
897.949	19791
898.07	19849
898.19	19970
898.311	20008
898.431	19856
898.552	19921
898.672	19967
898.792	19970
898.913	20024
899.033	19788
899.153	19700
899.273	19647
899.393	19738
899.513	19746
899.633	19708
899.753	19712
899.873	19597
899.993	19734
900.113	19712
900.232	19647
900.352	19651
900.472	19480
900.591	19419
900.711	19499
900.83	19426
900.95	19597
901.069	19575
901.189	19304
901.308	19152
901.427	19065
901.546	19206
901.665	19069
901.784	18943
901.904	19050
902.023	18825
902.141	18703
902.26	18612
902.379	18692
902.498	18601
902.617	18631
902.735	18620
902.854	18589
902.973	18460
903.091	18296
903.21	18205
903.328	18251
903.446	18060
903.565	18197
903.683	18114
903.801	18015
903.919	18049
904.038	18041
904.156	17817
904.274	17870
904.392	17859
904.51	17741
904.627	17824
904.745	17931
904.863	17840
904.981	17581
905.098	17440
905.216	17573
905.334	17592
905.451	17463
905.569	17395
905.686	17467
905.803	17539
905.921	17303
906.038	17376
906.155	17334
906.272	17235
906.389	17200
906.506	17143
906.623	17014
906.74	16942
906.857	16896
906.974	16991
907.091	17151
907.208	17178
907.324	17041
907.441	16965
907.557	16900
907.674	16828
907.79	16717
907.907	16771
908.023	16816
908.139	16778
908.256	16679
908.372	16577
908.488	16588
908.604	16523
908.72	16443
908.836	16512
908.952	16512
909.068	16493
909.184	16580
909.3	16599
909.415	16546
909.531	16474
909.647	16280
909.762	16173
909.878	16147
909.993	16173
910.108	16215
910.224	16166
910.339	16200
910.454	16074
910.57	15945
910.685	15930
910.8	16211
910.915	16082
911.03	16032
911.145	15895
911.259	15770
911.374	15831
911.489	15797
911.604	15637
911.718	15557
911.833	15564
911.947	15500
912.062	15336
912.176	15511
912.291	15584
912.405	15435
912.519	15709
912.633	15736
912.748	15526
912.862	15519
912.976	15370
913.09	15199
913.204	15207
913.318	15317
913.431	15492
913.545	15424
913.659	15393
913.772	15344
913.886	15195
914	15195
914.113	15306
914.226	15203
914.34	15310
914.453	15100
914.566	15226
914.68	15104
914.793	15020
914.906	14773
915.019	14758
915.132	14746
915.245	14845
915.358	14826
915.47	14815
915.583	14838
915.696	14861
915.809	14918
915.921	15028
916.034	14705
916.146	14636
916.259	14613
916.371	14792
916.483	14640
916.595	14678
916.708	14613
916.82	14636
916.932	14629
917.044	14583
917.156	14549
917.268	14530
917.38	14484
917.491	14385
917.603	14598
917.715	14564
917.826	14541
917.938	14396
918.049	14305
918.161	14476
918.272	14571
918.384	14499
918.495	14454
918.606	14317
918.717	14199
918.828	14237
918.939	14317
919.05	14126
919.161	14221
919.272	14020
919.383	14081
919.494	14240
919.604	14507
919.715	14248
919.826	14119
919.936	14210
920.047	14199
920.157	14252
920.267	14317
920.378	14259
920.488	14123
920.598	14408
920.708	14442
920.818	14320
920.928	14290
921.038	14545
921.148	14454
921.258	14073
921.368	14065
921.477	13860
921.587	13947
921.697	13856
921.806	13970
921.916	13769
922.025	13693
922.134	13559
922.244	13521
922.353	13586
922.462	13476
922.571	13403
922.68	13244
922.789	13228
922.898	13293
923.007	13198
923.116	13285
923.224	13171
923.333	13244
923.442	13126
923.55	13057
923.659	13095
923.767	13133
923.876	13114
923.984	13038
924.092	12935
924.201	13012
924.309	12993
924.417	13031
924.525	12867
924.633	12886
924.741	13636
924.849	12749
924.956	12848
925.064	12730
925.172	12620
925.279	12612
925.387	12749
925.494	12650
925.602	12787
925.709	12795
925.816	12578
925.924	12635
926.031	12639
926.138	12540
926.245	12715
926.352	12559
926.459	12646
926.566	12764
926.673	12620
926.779	12372
926.886	12369
926.993	12289
927.099	12220
927.206	12186
927.312	12163
927.419	12273
927.525	12152
927.631	12285
927.737	12102
927.843	12087
927.95	11950
928.056	12110
928.162	12079
928.267	12213
928.373	12669
928.479	12106
928.585	11973
928.69	11942
928.796	12072
928.901	11969
929.007	11771
929.112	11889
929.218	11878
929.323	11836
929.428	11718
929.533	11878
929.638	11760
929.743	11794
929.848	11855
929.953	11748
930.058	11729
930.163	11505
930.267	11501
930.372	11608
930.477	11474
930.581	11786
930.685	11558
930.79	11383
930.894	11467
930.998	11261
931.103	11482
931.207	11071
931.311	11094
931.415	10995
931.519	10771
931.623	10710
