Data from test_V78500241_1900.txt Node
Date: Fri Mar 25 15:23:05 CST 2022
User: usil
Spectrometer: V785-0024
Trigger mode: 0
Integration Time (sec): 4.000000E-1
Scans to average: 1
Nonlinearity correction enabled: false
Boxcar width: 0
Storing dark spectrum: false
XAxis mode: Wavelengths
Number of Pixels in Spectrum: 1024
>>>>>Begin Spectral Data<<<<<
801.071	27854
801.214	27629
801.356	27530
801.499	27492
801.641	27329
801.783	27287
801.926	27355
802.068	27367
802.211	27382
802.353	27173
802.496	27039
802.638	27055
802.78	26967
802.923	26940
803.065	26921
803.208	26918
803.35	26998
803.492	27157
803.635	27142
803.777	27104
803.919	27195
804.061	27523
804.204	27214
804.346	27017
804.488	27055
804.63	27237
804.773	26948
804.915	27389
805.057	27241
805.199	27142
805.341	27180
805.483	27268
805.626	27264
805.768	27119
805.91	27393
806.052	27397
806.194	27313
806.336	27397
806.478	27260
806.62	27272
806.762	27374
806.904	27599
807.046	27747
807.188	27732
807.33	27705
807.472	27667
807.614	27641
807.756	27682
807.898	27618
808.04	27580
808.182	27576
808.324	27644
808.465	27656
808.607	27808
808.749	27899
808.891	27911
809.033	28093
809.174	27892
809.316	28051
809.458	27873
809.6	27972
809.741	28139
809.883	28086
810.025	28223
810.166	28253
810.308	28234
810.45	28067
810.591	28090
810.733	28086
810.875	27934
811.016	27888
811.158	27918
811.299	27941
811.441	28025
811.582	28158
811.724	27991
811.865	27907
812.007	27804
812.148	27888
812.29	27831
812.431	28051
812.573	28207
812.714	28398
812.855	28386
812.997	28443
813.138	28550
813.279	28455
813.421	28432
813.562	28459
813.703	28192
813.845	28116
813.986	27857
814.127	27762
814.268	27743
814.41	27732
814.551	27553
814.692	27610
814.833	27561
814.974	27561
815.115	27485
815.256	27526
815.397	27469
815.539	27393
815.68	27504
815.821	27332
815.962	27412
816.103	27351
816.244	27264
816.385	27279
816.526	27192
816.666	27001
816.807	26800
816.948	26876
817.089	27013
817.23	26872
817.371	26891
817.512	26990
817.653	26921
817.793	26861
817.934	26956
818.075	26834
818.216	26971
818.356	26914
818.497	26804
818.638	26598
818.778	26560
818.919	26594
819.06	26804
819.2	26758
819.341	26842
819.481	26944
819.622	27024
819.762	27184
819.903	27230
820.043	27138
820.184	27089
820.324	27043
820.465	27032
820.605	27051
820.746	27047
820.886	26880
821.026	26967
821.167	26902
821.307	26929
821.447	26902
821.588	26811
821.728	26758
821.868	26579
822.008	26412
822.149	26229
822.289	26328
822.429	25963
822.569	26122
822.709	26081
822.849	26001
822.99	25712
823.13	25864
823.27	25746
823.41	25742
823.55	25590
823.69	25799
823.83	25704
823.97	25715
824.11	25388
824.25	25590
824.389	25499
824.529	25567
824.669	25415
824.809	25616
824.949	25731
825.089	25639
825.228	25578
825.368	25354
825.508	25400
825.648	25358
825.787	25468
825.927	25529
826.067	25278
826.206	25240
826.346	25403
826.485	25400
826.625	25495
826.765	25445
826.904	25377
827.044	25027
827.183	25164
827.323	25065
827.462	25236
827.601	25141
827.741	25038
827.88	25148
828.02	25031
828.159	25129
828.298	25034
828.437	25133
828.577	25046
828.716	25122
828.855	24970
828.994	24852
829.134	24715
829.273	24973
829.412	24749
829.551	24749
829.69	24798
829.829	24825
829.968	24787
830.107	24886
830.246	24810
830.385	24738
830.524	24593
830.663	24654
830.802	24692
830.941	24521
831.08	24372
831.219	24380
831.357	24528
831.496	24707
831.635	24467
831.774	24353
831.913	24285
832.051	24136
832.19	24270
832.329	24277
832.467	24209
832.606	24053
832.744	23999
832.883	24091
833.022	24030
833.16	24110
833.299	24057
833.437	24174
833.576	24174
833.714	24034
833.852	24197
833.991	24209
834.129	24391
834.267	24091
834.406	24171
834.544	24258
834.682	24072
834.821	24003
834.959	24292
835.097	24045
835.235	24251
835.373	24167
835.511	24266
835.65	24003
835.788	23999
835.926	23901
836.064	23866
836.202	23752
836.34	24076
836.478	24034
836.615	23927
836.753	23958
836.891	23973
837.029	23961
837.167	23950
837.305	23961
837.443	23897
837.58	23790
837.718	24038
837.856	23901
837.993	23908
838.131	23885
838.269	23687
838.406	23676
838.544	23668
838.681	23661
838.819	23562
838.956	23345
839.094	23425
839.231	23334
839.369	23402
839.506	23809
839.643	23505
839.781	23372
839.918	23303
840.055	23299
840.193	23315
840.33	23235
840.467	23307
840.604	23398
840.742	23558
840.879	23105
841.016	23083
841.153	23102
841.29	23387
841.427	23341
841.564	23246
841.701	23185
841.838	23212
841.975	23117
842.112	23166
842.249	23044
842.385	23006
842.522	23231
842.659	23258
842.796	22927
842.933	22942
843.069	22965
843.206	22934
843.343	23064
843.479	23083
843.616	23147
843.752	22736
843.889	22782
844.025	22915
844.162	22698
844.298	22946
844.435	22744
844.571	22771
844.708	22702
844.844	22965
844.98	22946
845.117	22953
845.253	22691
845.389	22557
845.525	22641
845.661	22557
845.798	22512
845.934	22588
846.07	22599
846.206	22497
846.342	22588
846.478	22421
846.614	22295
846.75	22112
846.886	22154
847.022	22257
847.158	22150
847.294	22257
847.429	22238
847.565	22249
847.701	22382
847.837	22074
847.972	21956
848.108	22162
848.244	22025
848.379	21903
848.515	21918
848.65	21781
848.786	21800
848.921	21827
849.057	21888
849.192	21960
849.328	21755
849.463	21907
849.598	21850
849.734	21759
849.869	21557
850.004	21663
850.14	21682
850.275	21622
850.41	21599
850.545	21652
850.68	21603
850.815	21580
850.95	21625
851.085	21808
851.22	21656
851.355	21557
851.49	21603
851.625	21580
851.76	21633
851.895	21542
852.03	21545
852.165	21625
852.299	21610
852.434	21625
852.569	21675
852.703	21629
852.838	21652
852.973	21652
853.107	21603
853.242	21667
853.376	21428
853.511	21298
853.645	21374
853.78	21526
853.914	21492
854.048	21302
854.183	21351
854.317	21439
854.451	21549
854.585	21488
854.72	21435
854.854	21504
854.988	21454
855.122	21469
855.256	21268
855.39	21302
855.524	21431
855.658	21481
855.792	21447
855.926	21462
856.06	21420
856.194	21599
856.327	21336
856.461	21351
856.595	21370
856.729	21332
856.862	21485
856.996	21515
857.13	21580
857.263	21530
857.397	21473
857.53	21393
857.664	21469
857.797	21477
857.931	21583
858.064	21344
858.197	21526
858.331	21469
858.464	21378
858.597	21233
858.731	21504
858.864	21340
858.997	21355
859.13	21435
859.263	21576
859.396	21454
859.529	21378
859.662	21405
859.795	21363
859.928	21477
860.061	21583
860.194	21580
860.327	21439
860.46	21382
860.592	21526
860.725	21481
860.858	21568
860.99	21325
861.123	21374
861.256	21317
861.388	21397
861.521	22002
861.653	21260
861.786	21214
861.918	21287
862.05	21252
862.183	21344
862.315	21359
862.447	21344
862.58	21260
862.712	21252
862.844	21127
862.976	21241
863.108	21085
863.24	21473
863.372	21032
863.504	21131
863.636	21112
863.768	21287
863.9	21199
864.032	21096
864.164	21100
864.296	21161
864.428	21249
864.559	21203
864.691	21154
864.823	21138
864.954	21135
865.086	20963
865.217	21211
865.349	21077
865.48	20975
865.612	21055
865.743	21218
865.875	21131
866.006	20960
866.137	21093
866.269	21089
866.4	20979
866.531	20975
866.662	20902
866.793	20994
866.924	20868
867.055	20864
867.186	20906
867.317	21001
867.448	20777
867.579	20872
867.71	20864
867.841	20887
867.972	20921
868.103	20899
868.233	21017
868.364	20948
868.495	21039
868.625	21165
868.756	21340
868.886	20998
869.017	21256
869.147	21393
869.278	21264
869.408	21188
869.539	21268
869.669	21230
869.799	21233
869.929	21344
870.06	21332
870.19	21462
870.32	21492
870.45	21504
870.58	21523
870.71	21618
870.84	21595
870.97	21523
871.1	21652
871.23	21827
871.36	21835
871.489	21724
871.619	21857
871.749	21781
871.879	21911
872.008	21949
872.138	21785
872.267	21781
872.397	21656
872.526	21587
872.656	21648
872.785	21564
872.915	21892
873.044	21759
873.173	21724
873.303	21991
873.432	21907
873.561	21846
873.69	21873
873.819	21873
873.948	21888
874.077	21835
874.206	21732
874.335	21739
874.464	21941
874.593	21953
874.722	22040
874.851	21994
874.979	22074
875.108	22017
875.237	21960
875.365	21918
875.494	22128
875.623	22128
875.751	22040
875.88	22101
876.008	22223
876.136	22284
876.265	22512
876.393	22691
876.521	22432
876.65	22478
876.778	22535
876.906	22421
877.034	22352
877.162	22451
877.29	22443
877.418	22424
877.546	22417
877.674	22363
877.802	22421
877.93	22325
878.058	22398
878.185	22344
878.313	22287
878.441	22405
878.568	22139
878.696	22265
878.824	22428
878.951	22504
879.079	22660
879.206	22668
879.333	22443
879.461	22344
879.588	22500
879.715	22607
879.842	22702
879.97	22504
880.097	22371
880.224	22219
880.351	22329
880.478	22253
880.605	22265
880.732	22226
880.859	22360
880.986	22287
881.112	22299
881.239	22143
881.366	21911
881.493	21930
881.619	21846
881.746	21850
881.872	21797
881.999	21694
882.125	21698
882.252	21755
882.378	21709
882.505	21816
882.631	21637
882.757	21450
882.883	21629
883.01	21500
883.136	21447
883.262	21298
883.388	21317
883.514	21405
883.64	21496
883.766	21500
883.892	21214
884.018	21199
884.143	21549
884.269	21561
884.395	21241
884.52	21074
884.646	21085
884.772	21173
884.897	20960
885.023	21127
885.148	21237
885.274	21283
885.399	21348
885.524	21241
885.65	21165
885.775	21184
885.9	21055
886.025	21176
886.15	21127
886.275	21032
886.4	21081
886.525	21051
886.65	21100
886.775	20975
886.9	21192
887.025	21298
887.149	21112
887.274	20792
887.399	20868
887.523	20891
887.648	20815
887.773	20815
887.897	21081
888.021	21005
888.146	20807
888.27	20830
888.395	21039
888.519	20960
888.643	20902
888.767	20948
888.891	20640
889.015	20731
889.139	20765
889.263	20807
889.387	20765
889.511	20921
889.635	20849
889.759	20617
889.883	20716
890.006	20777
890.13	20678
890.254	20716
890.377	20655
890.501	20446
890.624	20385
890.748	20450
890.871	20320
890.995	20320
891.118	20187
891.241	20202
891.364	20195
891.488	20465
891.611	20313
891.734	20149
891.857	20396
891.98	20336
892.103	20263
892.226	20180
892.349	20195
892.471	20058
892.594	20096
892.717	20092
892.839	20069
892.962	20225
893.085	20221
893.207	20294
893.33	20096
893.452	20065
893.575	20305
893.697	20233
893.819	20252
893.941	20347
894.064	20282
894.186	20267
894.308	20168
894.43	20229
894.552	20263
894.674	20229
894.796	19963
894.918	20145
895.04	20183
895.161	20134
895.283	20142
895.405	20039
895.526	20046
895.648	20119
895.769	20210
895.891	20134
896.012	20282
896.134	20157
896.255	20073
896.376	20126
896.498	20172
896.619	20115
896.74	20058
896.861	20313
896.982	20427
897.103	20663
897.224	20396
897.345	20362
897.466	20343
897.587	20282
897.708	20556
897.828	20355
897.949	20206
898.07	20119
898.19	20237
898.311	20423
898.431	20324
898.552	20317
898.672	20541
898.792	20442
898.913	20320
899.033	20240
899.153	20161
899.273	19997
899.393	20157
899.513	20103
899.633	20225
899.753	20149
899.873	20084
899.993	20096
900.113	20046
900.232	20069
900.352	20073
900.472	19967
900.591	19944
900.711	19951
900.83	19902
900.95	19978
901.069	19921
901.189	19822
901.308	19586
901.427	19457
901.546	19476
901.665	19544
901.784	19460
901.904	19312
902.023	19206
902.141	19038
902.26	19031
902.379	19072
902.498	18970
902.617	18951
902.735	18996
902.854	18924
902.973	18806
903.091	18715
903.21	18623
903.328	18555
903.446	18597
903.565	18566
903.683	18376
903.801	18384
903.919	18445
904.038	18384
904.156	18334
904.274	18258
904.392	18308
904.51	18201
904.627	18155
904.745	18232
904.863	18270
904.981	18072
905.098	17893
905.216	17912
905.334	17931
905.451	17946
905.569	17840
905.686	17942
905.803	17954
905.921	17661
906.038	17805
906.155	17760
906.272	17634
906.389	17543
906.506	17421
906.623	17467
906.74	17448
906.857	17341
906.974	17360
907.091	17509
907.208	17524
907.324	17334
907.441	17368
907.557	17204
907.674	17075
907.79	17075
907.907	17128
908.023	17193
908.139	17128
908.256	17124
908.372	16999
908.488	16881
908.604	16984
908.72	16900
908.836	16858
908.952	16911
909.068	16930
909.184	17041
909.3	16892
909.415	16820
909.531	16858
909.647	16630
909.762	16710
909.878	16577
909.993	16618
910.108	16542
910.224	16527
910.339	16466
910.454	16500
910.57	16466
910.685	16344
910.8	16592
910.915	16508
911.03	16375
911.145	16272
911.259	16162
911.374	16223
911.489	16059
911.604	16017
911.718	15953
911.833	15907
911.947	15835
912.062	15679
912.176	15945
912.291	15895
912.405	15899
912.519	16128
912.633	16048
912.748	16017
912.862	15888
912.976	15797
913.09	15500
913.204	15762
913.318	15751
913.431	15911
913.545	15842
913.659	15747
913.772	15686
913.886	15549
914	15496
914.113	15591
914.226	15724
914.34	15500
914.453	15462
914.566	15595
914.68	15450
914.793	15332
914.906	15279
915.019	15165
915.132	15180
915.245	15100
915.358	15089
915.47	15119
915.583	15161
915.696	15123
915.809	15222
915.921	15249
916.034	15009
916.146	15039
916.259	15055
916.371	14994
916.483	15070
916.595	14979
916.708	15036
916.82	14895
916.932	14925
917.044	14838
917.156	14796
917.268	14743
917.38	14845
917.491	14743
917.603	14834
917.715	14895
917.826	14895
917.938	14800
918.049	14598
918.161	14731
918.272	14830
918.384	14921
918.495	14655
918.606	14625
918.717	14499
918.828	14606
918.939	14518
919.05	14423
919.161	14541
919.272	14358
919.383	14385
919.494	14598
919.604	14754
919.715	14442
919.826	14465
919.936	14495
920.047	14686
920.157	14488
920.267	14777
920.378	14503
920.488	14488
920.598	14697
920.708	14819
920.818	14617
920.928	14621
921.038	14670
921.148	14758
921.258	14389
921.368	14400
921.477	14278
921.587	14309
921.697	14069
921.806	14180
921.916	14058
922.025	13936
922.134	13887
922.244	13761
922.353	13959
922.462	13837
922.571	13666
922.68	13537
922.789	13506
922.898	13495
923.007	13377
923.116	13559
923.224	13567
923.333	13521
923.442	13381
923.55	13365
923.659	13445
923.767	13468
923.876	13168
923.984	13453
924.092	13194
924.201	13263
924.309	13285
924.417	13263
924.525	13198
924.633	13202
924.741	14092
924.849	12977
924.956	13133
925.064	12958
925.172	12840
925.279	12958
925.387	13023
925.494	12973
925.602	13069
925.709	12897
925.816	12810
925.924	12894
926.031	12996
926.138	12863
926.245	12859
926.352	12753
926.459	12966
926.566	12928
926.673	12802
926.779	12658
926.886	12719
926.993	12521
927.099	12563
927.206	12467
927.312	12365
927.419	12563
927.525	12464
927.631	12502
927.737	12365
927.843	12350
927.95	12308
928.056	12304
928.162	12346
928.267	12380
928.373	12837
928.479	12380
928.585	12175
928.69	12254
928.796	12338
928.901	12205
929.007	12117
929.112	12155
929.218	12091
929.323	12076
929.428	12133
929.533	12224
929.638	11992
929.743	12011
929.848	12121
929.953	12057
930.058	11863
930.163	11684
930.267	11786
930.372	11863
930.477	11752
930.581	11961
930.685	11771
930.79	11680
930.894	11718
930.998	11566
931.103	11680
931.207	11455
931.311	11216
931.415	11265
931.519	11090
931.623	10968
