Data from test_V78500241_393.txt Node
Date: Fri Mar 25 15:12:35 CST 2022
User: usil
Spectrometer: V785-0024
Trigger mode: 0
Integration Time (sec): 4.000000E-1
Scans to average: 1
Nonlinearity correction enabled: false
Boxcar width: 0
Storing dark spectrum: false
XAxis mode: Wavelengths
Number of Pixels in Spectrum: 1024
>>>>>Begin Spectral Data<<<<<
801.071	27001
801.214	26876
801.356	26667
801.499	26777
801.641	26507
801.783	26465
801.926	26507
802.068	26495
802.211	26347
802.353	26305
802.496	26122
802.638	26088
802.78	26122
802.923	26122
803.065	26138
803.208	26115
803.35	26062
803.492	26176
803.635	26240
803.777	26020
803.919	26282
804.061	26621
804.204	26263
804.346	26267
804.488	26134
804.63	26263
804.773	26081
804.915	26221
805.057	26358
805.199	26210
805.341	26362
805.483	26240
805.626	26355
805.768	26233
805.91	26290
806.052	26191
806.194	26263
806.336	26396
806.478	26320
806.62	26412
806.762	26393
806.904	26682
807.046	26785
807.188	26663
807.33	26758
807.472	26750
807.614	26602
807.756	26636
807.898	26556
808.04	26549
808.182	26530
808.324	26617
808.465	26530
808.607	26743
808.749	26982
808.891	27085
809.033	27081
809.174	26940
809.316	26895
809.458	26868
809.6	26845
809.741	27039
809.883	26994
810.025	27131
810.166	27268
810.308	27165
810.45	27089
810.591	27154
810.733	26838
810.875	26910
811.016	26823
811.158	26857
811.299	26887
811.441	27104
811.582	26982
811.724	26971
811.865	26845
812.007	26899
812.148	26857
812.29	26906
812.431	27123
812.573	27192
812.714	27260
812.855	27408
812.997	27564
813.138	27629
813.279	27545
813.421	27359
813.562	27306
813.703	27275
813.845	27104
813.986	26849
814.127	26613
814.268	26499
814.41	26625
814.551	26545
814.692	26613
814.833	26480
814.974	26480
815.115	26571
815.256	26450
815.397	26294
815.539	26366
815.68	26313
815.821	26366
815.962	26355
816.103	26210
816.244	26199
816.385	26149
816.526	26012
816.666	25864
816.807	25811
816.948	25955
817.089	25978
817.23	25875
817.371	25837
817.512	25818
817.653	25856
817.793	25685
817.934	25898
818.075	25898
818.216	25883
818.356	25856
818.497	25647
818.638	25502
818.778	25449
818.919	25578
819.06	25628
819.2	25628
819.341	25670
819.481	25830
819.622	26008
819.762	26161
819.903	25989
820.043	26073
820.184	26005
820.324	25959
820.465	25955
820.605	25928
820.746	25830
820.886	25731
821.026	25856
821.167	25841
821.307	26005
821.447	25715
821.588	25784
821.728	25449
821.868	25514
822.008	25301
822.149	25339
822.289	25141
822.429	25129
822.569	24996
822.709	25050
822.849	24817
822.99	24753
823.13	24791
823.27	24768
823.41	24566
823.55	24494
823.69	24627
823.83	24540
823.97	24585
824.11	24433
824.25	24376
824.389	24361
824.529	24467
824.669	24338
824.809	24479
824.949	24681
825.089	24448
825.228	24471
825.368	24330
825.508	24254
825.648	24194
825.787	24464
825.927	24327
826.067	24251
826.206	24323
826.346	24327
826.485	24186
826.625	24289
826.765	24308
826.904	24285
827.044	24087
827.183	24053
827.323	24007
827.462	23977
827.601	24174
827.741	23927
827.88	24072
828.02	23851
828.159	24079
828.298	24053
828.437	24068
828.577	23996
828.716	24251
828.855	23836
828.994	23703
829.134	23722
829.273	23646
829.412	23737
829.551	23668
829.69	23722
829.829	23737
829.968	23707
830.107	23790
830.246	23718
830.385	23680
830.524	23585
830.663	23646
830.802	23558
830.941	23315
831.08	23311
831.219	23516
831.357	23402
831.496	23570
831.635	23353
831.774	23341
831.913	23261
832.051	23143
832.19	23143
832.329	23140
832.467	23033
832.606	22942
832.744	23044
832.883	23029
833.022	23044
833.16	23044
833.299	23014
833.437	23140
833.576	23174
833.714	23044
833.852	23227
833.991	23216
834.129	23193
834.267	23128
834.406	23094
834.544	23147
834.682	23132
834.821	23105
834.959	23216
835.097	22961
835.235	23098
835.373	23052
835.511	23105
835.65	22995
835.788	22980
835.926	22885
836.064	22733
836.202	22847
836.34	23025
836.478	23003
836.615	22965
836.753	22965
836.891	22968
837.029	22968
837.167	22919
837.305	22877
837.443	22930
837.58	22771
837.718	22911
837.856	22873
837.993	22687
838.131	22702
838.269	22721
838.406	22733
838.544	22675
838.681	22432
838.819	22523
838.956	22299
839.094	22299
839.231	22306
839.369	22542
839.506	22805
839.643	22550
839.781	22306
839.918	22280
840.055	22215
840.193	22253
840.33	22265
840.467	22188
840.604	22299
840.742	22497
840.879	22059
841.016	22029
841.153	22169
841.29	22371
841.427	22177
841.564	22215
841.701	22181
841.838	22166
841.975	22154
842.112	22128
842.249	22044
842.385	21930
842.522	22139
842.659	21998
842.796	21941
842.933	21991
843.069	21991
843.206	21888
843.343	21998
843.479	22029
843.616	21937
843.752	21667
843.889	21911
844.025	21876
844.162	21816
844.298	21854
844.435	21686
844.571	21618
844.708	21778
844.844	21759
844.98	21808
845.117	21854
845.253	21789
845.389	21720
845.525	21644
845.661	21660
845.798	21511
845.934	21561
846.07	21393
846.206	21530
846.342	21603
846.478	21500
846.614	21317
846.75	21245
846.886	21157
847.022	21264
847.158	21298
847.294	21264
847.429	21310
847.565	21207
847.701	21450
847.837	20929
847.972	20956
848.108	21116
848.244	21001
848.379	20956
848.515	20807
848.65	20868
848.786	20845
848.921	20891
849.057	20845
849.192	20933
849.328	20929
849.463	20842
849.598	20765
849.734	20712
849.869	20735
850.004	20648
850.14	20583
850.275	20640
850.41	20503
850.545	20632
850.68	20465
850.815	20560
850.95	20514
851.085	20697
851.22	20739
851.355	20545
851.49	20632
851.625	20541
851.76	20526
851.895	20598
852.03	20575
852.165	20571
852.299	20594
852.434	20811
852.569	20537
852.703	20609
852.838	20788
852.973	20807
853.107	20735
853.242	20495
853.376	20446
853.511	20290
853.645	20415
853.78	20465
853.914	20549
854.048	20339
854.183	20358
854.317	20503
854.451	20587
854.585	20438
854.72	20358
854.854	20488
854.988	20358
855.122	20541
855.256	20195
855.39	20480
855.524	20427
855.658	20362
855.792	20415
855.926	20495
856.06	20434
856.194	20560
856.327	20396
856.461	20438
856.595	20473
856.729	20450
856.862	20488
856.996	20400
857.13	20549
857.263	20602
857.397	20522
857.53	20442
857.664	20404
857.797	20564
857.931	20488
858.064	20438
858.197	20404
858.331	20503
858.464	20415
858.597	20301
858.731	20290
858.864	20393
858.997	20358
859.13	20438
859.263	20393
859.396	20564
859.529	20461
859.662	20374
859.795	20374
859.928	20442
860.061	20461
860.194	20678
860.327	20454
860.46	20381
860.592	20530
860.725	20632
860.858	20549
860.99	20408
861.123	20381
861.256	20328
861.388	20370
861.521	21096
861.653	20396
861.786	20240
861.918	20229
862.05	20385
862.183	20419
862.315	20351
862.447	20476
862.58	20499
862.712	20138
862.844	20161
862.976	20229
863.108	20248
863.24	20583
863.372	20062
863.504	20024
863.636	20115
863.768	20092
863.9	20130
864.032	20005
864.164	20122
864.296	20130
864.428	20172
864.559	20176
864.691	20153
864.823	20206
864.954	20271
865.086	20145
865.217	20225
865.349	19986
865.48	20134
865.612	20062
865.743	20210
865.875	20043
866.006	19970
866.137	20024
866.269	20008
866.4	19993
866.531	20016
866.662	19959
866.793	20077
866.924	19921
867.055	20031
867.186	19913
867.317	19917
867.448	19925
867.579	19963
867.71	19970
867.841	19852
867.972	19974
868.103	19978
868.233	19993
868.364	19944
868.495	20001
868.625	20271
868.756	20438
868.886	20176
869.017	20275
869.147	20278
869.278	20298
869.408	20161
869.539	20309
869.669	20275
869.799	20218
869.929	20381
870.06	20343
870.19	20606
870.32	20526
870.45	20556
870.58	20560
870.71	20743
870.84	20826
870.97	20530
871.1	20587
871.23	20861
871.36	20864
871.489	20720
871.619	20785
871.749	20678
871.879	20986
872.008	20918
872.138	20880
872.267	20743
872.397	20606
872.526	20659
872.656	20621
872.785	20727
872.915	20819
873.044	20826
873.173	20864
873.303	20925
873.432	21024
873.561	20933
873.69	20967
873.819	20960
873.948	20994
874.077	20895
874.206	20849
874.335	20929
874.464	21077
874.593	21123
874.722	20971
874.851	21135
874.979	21085
875.108	21081
875.237	21096
875.365	20902
875.494	21024
875.623	21108
875.751	21157
875.88	21256
876.008	21214
876.136	21264
876.265	21618
876.393	21629
876.521	21492
876.65	21648
876.778	21416
876.906	21473
877.034	21420
877.162	21416
877.29	21279
877.418	21511
877.546	21424
877.674	21431
877.802	21564
877.93	21435
878.058	21549
878.185	21355
878.313	21507
878.441	21408
878.568	21233
878.696	21313
878.824	21386
878.951	21553
879.079	21679
879.206	21743
879.333	21538
879.461	21294
879.588	21561
879.715	21553
879.842	21682
879.97	21591
880.097	21359
880.224	21260
880.351	21329
880.478	21154
880.605	21245
880.732	21298
880.859	21458
880.986	21279
881.112	21272
881.239	21070
881.366	21043
881.493	20914
881.619	20861
881.746	20941
881.872	20876
881.999	20811
882.125	20880
882.252	20925
882.378	20773
882.505	20937
882.631	20705
882.757	20613
882.883	20598
883.01	20648
883.136	20556
883.262	20355
883.388	20385
883.514	20594
883.64	20674
883.766	20450
883.892	20450
884.018	20442
884.143	20476
884.269	20579
884.395	20305
884.52	20134
884.646	20244
884.772	20115
884.897	20157
885.023	20164
885.148	20343
885.274	20339
885.399	20259
885.524	20267
885.65	20176
885.775	20237
885.9	20263
886.025	20309
886.15	20336
886.275	20259
886.4	20100
886.525	20256
886.65	20046
886.775	20229
886.9	20320
887.025	20412
887.149	20187
887.274	20088
887.399	20031
887.523	20081
887.648	19868
887.773	19898
887.897	20183
888.021	20058
888.146	19944
888.27	20062
888.395	19970
888.519	19940
888.643	19978
888.767	20054
888.891	19951
889.015	19776
889.139	19841
889.263	19879
889.387	19906
889.511	20008
889.635	19963
889.759	19769
889.883	19765
890.006	19723
890.13	19921
890.254	19696
890.377	19700
890.501	19537
890.624	19548
890.748	19628
890.871	19510
890.995	19362
891.118	19373
891.241	19491
891.364	19441
891.488	19567
891.611	19434
891.734	19430
891.857	19468
891.98	19449
892.103	19476
892.226	19411
892.349	19297
892.471	19187
892.594	19285
892.717	19312
892.839	19304
892.962	19266
893.085	19407
893.207	19343
893.33	19107
893.452	19221
893.575	19362
893.697	19266
893.819	19407
893.941	19460
894.064	19464
894.186	19282
894.308	19187
894.43	19388
894.552	19483
894.674	19403
894.796	19247
894.918	19339
895.04	19259
895.161	19396
895.283	19381
895.405	19301
895.526	19362
895.648	19304
895.769	19346
895.891	19457
896.012	19438
896.134	19400
896.255	19392
896.376	19209
896.498	19308
896.619	19426
896.74	19236
896.861	19278
896.982	19597
897.103	19788
897.224	19518
897.345	19521
897.466	19567
897.587	19571
897.708	19677
897.828	19655
897.949	19464
898.07	19312
898.19	19449
898.311	19658
898.431	19521
898.552	19552
898.672	19647
898.792	19666
898.913	19575
899.033	19521
899.153	19411
899.273	19384
899.393	19464
899.513	19289
899.633	19354
899.753	19278
899.873	19278
899.993	19278
900.113	19209
900.232	19312
900.352	19183
900.472	19091
900.591	19103
900.711	19080
900.83	19034
900.95	19137
901.069	19213
901.189	18920
901.308	18844
901.427	18589
901.546	18654
901.665	18616
901.784	18783
901.904	18483
902.023	18498
902.141	18197
902.26	18148
902.379	18270
902.498	18285
902.617	18209
902.735	18323
902.854	18152
902.973	18133
903.091	17935
903.21	17901
903.328	17783
903.446	17813
903.565	17707
903.683	17672
903.801	17554
903.919	17665
904.038	17741
904.156	17379
904.274	17497
904.392	17440
904.51	17433
904.627	17501
904.745	17448
904.863	17486
904.981	17239
905.098	17121
905.216	17151
905.334	17223
905.451	17246
905.569	17204
905.686	17292
905.803	17155
905.921	16877
906.038	17025
906.155	17029
906.272	16816
906.389	16831
906.506	16721
906.623	16660
906.74	16702
906.857	16603
906.974	16573
907.091	16752
907.208	16793
907.324	16752
907.441	16683
907.557	16371
907.674	16402
907.79	16341
907.907	16386
908.023	16344
908.139	16398
908.256	16341
908.372	16322
908.488	16306
908.604	16196
908.72	16090
908.836	16219
908.952	16120
909.068	16139
909.184	16185
909.3	16150
909.415	16162
909.531	16120
909.647	15968
909.762	15930
909.878	15880
909.993	15884
910.108	15926
910.224	15915
910.339	15880
910.454	15705
910.57	15774
910.685	15576
910.8	15861
910.915	15797
911.03	15739
911.145	15561
911.259	15443
911.374	15454
911.489	15351
911.604	15355
911.718	15226
911.833	15097
911.947	15142
912.062	15161
912.176	15085
912.291	15249
912.405	15199
912.519	15424
912.633	15378
912.748	15226
912.862	15230
912.976	14975
913.09	14925
913.204	15062
913.318	14929
913.431	15100
913.545	15093
913.659	15108
913.772	15150
913.886	14857
914	14849
914.113	14952
914.226	14948
914.34	14861
914.453	14693
914.566	14842
914.68	14765
914.793	14708
914.906	14533
915.019	14476
915.132	14389
915.245	14438
915.358	14488
915.47	14507
915.583	14549
915.696	14488
915.809	14697
915.921	14701
916.034	14374
916.146	14393
916.259	14442
916.371	14476
916.483	14473
916.595	14393
916.708	14355
916.82	14358
916.932	14313
917.044	14286
917.156	14195
917.268	14157
917.38	14134
917.491	14271
917.603	14073
917.715	14199
917.826	14351
917.938	14142
918.049	14062
918.161	14100
918.272	14237
918.384	14313
918.495	14062
918.606	13947
918.717	13902
918.828	13928
918.939	13925
919.05	13738
919.161	13883
919.272	13662
919.383	13822
919.494	14054
919.604	14092
919.715	13864
919.826	13879
919.936	13940
920.047	14031
920.157	13871
920.267	14084
920.378	13883
920.488	13890
920.598	14054
920.708	14168
920.818	14035
920.928	13982
921.038	14237
921.148	14183
921.258	13795
921.368	13776
921.477	13761
921.587	13540
921.697	13552
921.806	13674
921.916	13487
922.025	13259
922.134	13362
922.244	13308
922.353	13354
922.462	13137
922.571	13160
922.68	13015
922.789	12890
922.898	12970
923.007	12962
923.116	13004
923.224	12901
923.333	12970
923.442	12840
923.55	12798
923.659	12783
923.767	12848
923.876	12749
923.984	12791
924.092	12688
924.201	12757
924.309	12753
924.417	12673
924.525	12601
924.633	12642
924.741	13597
924.849	12452
924.956	12563
925.064	12471
925.172	12350
925.279	12414
925.387	12456
925.494	12422
925.602	12559
925.709	12414
925.816	12273
925.924	12346
926.031	12498
926.138	12460
926.245	12399
926.352	12292
926.459	12369
926.566	12441
926.673	12338
926.779	12262
926.886	12121
926.993	12076
927.099	12030
927.206	11961
927.312	12041
927.419	12102
927.525	11996
927.631	11977
927.737	11897
927.843	11870
927.95	11752
928.056	11821
928.162	11843
928.267	11897
928.373	12525
928.479	11912
928.585	11676
928.69	11729
928.796	11836
928.901	11676
929.007	11608
929.112	11665
929.218	11634
929.323	11520
929.428	11589
929.533	11634
929.638	11440
929.743	11501
929.848	11676
929.953	11532
930.058	11433
930.163	11284
930.267	11337
930.372	11372
930.477	11330
930.581	11444
930.685	11341
930.79	11178
930.894	11208
930.998	11124
931.103	11185
931.207	10858
931.311	10809
931.415	10759
931.519	10603
931.623	10527
