Data from test_V78500241_661.txt Node
Date: Fri Mar 25 15:14:27 CST 2022
User: usil
Spectrometer: V785-0024
Trigger mode: 0
Integration Time (sec): 4.000000E-1
Scans to average: 1
Nonlinearity correction enabled: false
Boxcar width: 0
Storing dark spectrum: false
XAxis mode: Wavelengths
Number of Pixels in Spectrum: 1024
>>>>>Begin Spectral Data<<<<<
801.071	27618
801.214	27797
801.356	27515
801.499	27454
801.641	27420
801.783	27424
801.926	27397
802.068	27203
802.211	27256
802.353	27157
802.496	27093
802.638	27020
802.78	26982
802.923	27005
803.065	26918
803.208	26952
803.35	26990
803.492	27036
803.635	27089
803.777	27036
803.919	27066
804.061	27401
804.204	26998
804.346	27009
804.488	26963
804.63	27150
804.773	26925
804.915	26990
805.057	27256
805.199	27039
805.341	27116
805.483	27348
805.626	27283
805.768	27032
805.91	27222
806.052	27306
806.194	27321
806.336	27287
806.478	27203
806.62	27298
806.762	27306
806.904	27629
807.046	27652
807.188	27759
807.33	27690
807.472	27663
807.614	27557
807.756	27603
807.898	27523
808.04	27412
808.182	27412
808.324	27542
808.465	27488
808.607	27694
808.749	27888
808.891	27998
809.033	28010
809.174	28059
809.316	27880
809.458	27926
809.6	27964
809.741	28154
809.883	28109
810.025	28207
810.166	28257
810.308	28207
810.45	28147
810.591	28230
810.733	27926
810.875	28029
811.016	27759
811.158	27861
811.299	27998
811.441	28097
811.582	27987
811.724	27922
811.865	27831
812.007	27884
812.148	27865
812.29	27934
812.431	28124
812.573	28139
812.714	28337
812.855	28447
812.997	28493
813.138	28694
813.279	28538
813.421	28599
813.562	28561
813.703	28257
813.845	28051
813.986	27941
814.127	27743
814.268	27610
814.41	27614
814.551	27542
814.692	27641
814.833	27622
814.974	27507
815.115	27488
815.256	27526
815.397	27610
815.539	27488
815.68	27507
815.821	27272
815.962	27401
816.103	27389
816.244	27245
816.385	27150
816.526	27104
816.666	26986
816.807	26952
816.948	26914
817.089	27039
817.23	26990
817.371	26948
817.512	26902
817.653	26979
817.793	26800
817.934	26868
818.075	26960
818.216	26876
818.356	26781
818.497	26735
818.638	26659
818.778	26708
818.919	26651
819.06	26762
819.2	26651
819.341	26864
819.481	26842
819.622	26998
819.762	27222
819.903	27188
820.043	27009
820.184	26880
820.324	27028
820.465	27074
820.605	27104
820.746	27020
820.886	26857
821.026	26906
821.167	27009
821.307	26975
821.447	26868
821.588	26842
821.728	26617
821.868	26537
822.008	26427
822.149	26328
822.289	26225
822.429	26164
822.569	26027
822.709	25955
822.849	25852
822.99	25928
823.13	25795
823.27	25788
823.41	25597
823.55	25544
823.69	25681
823.83	25639
823.97	25605
824.11	25411
824.25	25388
824.389	25525
824.529	25632
824.669	25476
824.809	25582
824.949	25533
825.089	25632
825.228	25544
825.368	25422
825.508	25240
825.648	25441
825.787	25365
825.927	25460
826.067	25217
826.206	25308
826.346	25365
826.485	25426
826.625	25316
826.765	25499
826.904	25415
827.044	25126
827.183	25251
827.323	25053
827.462	25148
827.601	25110
827.741	25057
827.88	25187
828.02	24863
828.159	25012
828.298	25110
828.437	25141
828.577	24924
828.716	25179
828.855	24901
828.994	24795
829.134	24673
829.273	24821
829.412	24890
829.551	24783
829.69	24673
829.829	24833
829.968	24749
830.107	24810
830.246	24791
830.385	24544
830.524	24688
830.663	24597
830.802	24555
830.941	24334
831.08	24471
831.219	24479
831.357	24369
831.496	24528
831.635	24494
831.774	24350
831.913	24144
832.051	24163
832.19	24140
832.329	24311
832.467	24114
832.606	24129
832.744	24030
832.883	24091
833.022	23882
833.16	24015
833.299	24114
833.437	24057
833.576	24057
833.714	24140
833.852	24182
833.991	24281
834.129	24308
834.267	24213
834.406	24194
834.544	24171
834.682	24213
834.821	24110
834.959	24384
835.097	24038
835.235	24224
835.373	24110
835.511	24251
835.65	24064
835.788	23977
835.926	23866
836.064	23771
836.202	23874
836.34	23939
836.478	23980
836.615	23882
836.753	23828
836.891	24114
837.029	23988
837.167	23920
837.305	23908
837.443	23870
837.58	23817
837.718	23882
837.856	23790
837.993	23615
838.131	23809
838.269	23726
838.406	23638
838.544	23619
838.681	23543
838.819	23455
838.956	23261
839.094	23334
839.231	23307
839.369	23421
839.506	23646
839.643	23455
839.781	23311
839.918	23235
840.055	23197
840.193	23208
840.33	23280
840.467	23307
840.604	23284
840.742	23421
840.879	23048
841.016	23010
841.153	23166
841.29	23345
841.427	23216
841.564	23098
841.701	23185
841.838	23052
841.975	23067
842.112	23018
842.249	22934
842.385	22908
842.522	23052
842.659	23022
842.796	22949
842.933	23029
843.069	22896
843.206	22847
843.343	23022
843.479	23067
843.616	22885
843.752	22656
843.889	22713
844.025	22984
844.162	22752
844.298	22618
844.435	22679
844.571	22634
844.708	22706
844.844	22774
844.98	22774
845.117	22717
845.253	22744
845.389	22596
845.525	22649
845.661	22618
845.798	22508
845.934	22603
846.07	22348
846.206	22451
846.342	22523
846.478	22417
846.614	22291
846.75	22147
846.886	22128
847.022	22200
847.158	22223
847.294	22082
847.429	22207
847.565	22185
847.701	22428
847.837	22010
847.972	21888
848.108	21968
848.244	21972
848.379	21857
848.515	21804
848.65	21785
848.786	21850
848.921	21778
849.057	21865
849.192	21876
849.328	21774
849.463	21694
849.598	21660
849.734	21610
849.869	21606
850.004	21561
850.14	21686
850.275	21583
850.41	21553
850.545	21485
850.68	21530
850.815	21625
850.95	21568
851.085	21770
851.22	21553
851.355	21500
851.49	21606
851.625	21435
851.76	21564
851.895	21405
852.03	21473
852.165	21408
852.299	21614
852.434	21599
852.569	21663
852.703	21538
852.838	21606
852.973	21633
853.107	21576
853.242	21462
853.376	21428
853.511	21260
853.645	21291
853.78	21561
853.914	21408
854.048	21393
854.183	21184
854.317	21355
854.451	21591
854.585	21351
854.72	21321
854.854	21450
854.988	21287
855.122	21275
855.256	21199
855.39	21386
855.524	21561
855.658	21485
855.792	21291
855.926	21260
856.06	21382
856.194	21420
856.327	21317
856.461	21340
856.595	21287
856.729	21313
856.862	21466
856.996	21378
857.13	21462
857.263	21435
857.397	21443
857.53	21294
857.664	21287
857.797	21526
857.931	21504
858.064	21340
858.197	21428
858.331	21416
858.464	21287
858.597	21294
858.731	21340
858.864	21291
858.997	21237
859.13	21256
859.263	21370
859.396	21462
859.529	21492
859.662	21245
859.795	21298
859.928	21302
860.061	21587
860.194	21519
860.327	21542
860.46	21447
860.592	21504
860.725	21523
860.858	21526
860.99	21325
861.123	21412
861.256	21340
861.388	21348
861.521	22166
861.653	21260
861.786	21173
861.918	21180
862.05	21260
862.183	21393
862.315	21302
862.447	21306
862.58	21317
862.712	21135
862.844	21070
862.976	21199
863.108	21173
863.24	21599
863.372	20982
863.504	20979
863.636	21081
863.768	21161
863.9	21226
864.032	21055
864.164	20971
864.296	21051
864.428	21146
864.559	21188
864.691	21135
864.823	21093
864.954	21119
865.086	21043
865.217	21066
865.349	20937
865.48	21085
865.612	21024
865.743	21188
865.875	20880
866.006	20902
866.137	20944
866.269	21020
866.4	21093
866.531	20944
866.662	20823
866.793	20925
866.924	20842
867.055	21005
867.186	21013
867.317	20842
867.448	20811
867.579	20868
867.71	20826
867.841	20781
867.972	20826
868.103	20872
868.233	20990
868.364	20952
868.495	20975
868.625	21104
868.756	21222
868.886	21154
869.017	21161
869.147	21226
869.278	21176
869.408	21146
869.539	21146
869.669	21272
869.799	21066
869.929	21332
870.06	21298
870.19	21378
870.32	21450
870.45	21412
870.58	21473
870.71	21728
870.84	21644
870.97	21564
871.1	21454
871.23	21713
871.36	21701
871.489	21663
871.619	21717
871.749	21720
871.879	21762
872.008	21835
872.138	21717
872.267	21686
872.397	21648
872.526	21507
872.656	21637
872.785	21637
872.915	21713
873.044	21880
873.173	21770
873.303	21907
873.432	21865
873.561	21835
873.69	21816
873.819	21720
873.948	21785
874.077	21816
874.206	21679
874.335	21652
874.464	21903
874.593	22055
874.722	22017
874.851	22021
874.979	21994
875.108	22067
875.237	21899
875.365	21842
875.494	21949
875.623	21983
875.751	21991
875.88	22021
876.008	22158
876.136	22257
876.265	22348
876.393	22428
876.521	22538
876.65	22325
876.778	22565
876.906	22261
877.034	22428
877.162	22375
877.29	22325
877.418	22432
877.546	22272
877.674	22329
877.802	22284
877.93	22367
878.058	22295
878.185	22204
878.313	22322
878.441	22318
878.568	22093
878.696	22257
878.824	22394
878.951	22443
879.079	22497
879.206	22645
879.333	22470
879.461	22363
879.588	22459
879.715	22542
879.842	22729
879.97	22402
880.097	22154
880.224	22314
880.351	22188
880.478	22253
880.605	22040
880.732	22181
880.859	22424
880.986	22196
881.112	22112
881.239	21991
881.366	22032
881.493	21812
881.619	21819
881.746	21838
881.872	21660
881.999	21823
882.125	21587
882.252	21732
882.378	21701
882.505	21736
882.631	21618
882.757	21416
882.883	21561
883.01	21466
883.136	21408
883.262	21211
883.388	21294
883.514	21435
883.64	21526
883.766	21329
883.892	21306
884.018	21218
884.143	21412
884.269	21450
884.395	21173
884.52	21028
884.646	21138
884.772	21024
884.897	20990
885.023	21104
885.148	21116
885.274	21146
885.399	21188
885.524	21081
885.65	21089
885.775	21161
885.9	20994
886.025	21154
886.15	21264
886.275	20982
886.4	20971
886.525	21005
886.65	20933
886.775	21028
886.9	21199
887.025	21272
887.149	20956
887.274	20880
887.399	20929
887.523	20944
887.648	20674
887.773	20686
887.897	20883
888.021	20933
888.146	20716
888.27	20902
888.395	20925
888.519	20891
888.643	20883
888.767	20838
888.891	20781
889.015	20724
889.139	20667
889.263	20621
889.387	20689
889.511	20925
889.635	20800
889.759	20609
889.883	20499
890.006	20629
890.13	20739
890.254	20549
890.377	20492
890.501	20476
890.624	20393
890.748	20339
890.871	20320
890.995	20122
891.118	20122
891.241	20240
891.364	20119
891.488	20301
891.611	20206
891.734	20168
891.857	20267
891.98	20218
892.103	20233
892.226	20244
892.349	20225
892.471	20016
892.594	20058
892.717	20256
892.839	20126
892.962	20180
893.085	20096
893.207	20126
893.33	19986
893.452	20065
893.575	20282
893.697	19978
893.819	20271
893.941	20240
894.064	20237
894.186	20024
894.308	19947
894.43	20142
894.552	20214
894.674	20218
894.796	20107
894.918	20005
895.04	20107
895.161	20103
895.283	20145
895.405	19997
895.526	20096
895.648	20077
895.769	20111
895.891	20206
896.012	20122
896.134	20088
896.255	20176
896.376	20103
896.498	20062
896.619	20122
896.74	20081
896.861	20115
896.982	20484
897.103	20629
897.224	20278
897.345	20275
897.466	20290
897.587	20271
897.708	20476
897.828	20347
897.949	20256
898.07	20119
898.19	20218
898.311	20336
898.431	20248
898.552	20301
898.672	20225
898.792	20381
898.913	20317
899.033	20157
899.153	20092
899.273	20050
899.393	20035
899.513	20111
899.633	20218
899.753	20115
899.873	19921
899.993	20122
900.113	20103
900.232	20043
900.352	19986
900.472	19944
900.591	19734
900.711	19940
900.83	19769
900.95	20016
901.069	19845
901.189	19723
901.308	19472
901.427	19457
901.546	19445
901.665	19396
901.784	19472
901.904	19297
902.023	19270
902.141	19000
902.26	19088
902.379	19076
902.498	18943
902.617	18935
902.735	19080
902.854	18863
902.973	18905
903.091	18559
903.21	18646
903.328	18555
903.446	18536
903.565	18319
903.683	18391
903.801	18353
903.919	18418
904.038	18311
904.156	18209
904.274	18251
904.392	18292
904.51	18216
904.627	18087
904.745	18129
904.863	18262
904.981	18022
905.098	17802
905.216	17992
905.334	17916
905.451	17904
905.569	17866
905.686	17870
905.803	17851
905.921	17623
906.038	17729
906.155	17707
906.272	17455
906.389	17554
906.506	17288
906.623	17376
906.74	17444
906.857	17303
906.974	17402
907.091	17406
907.208	17398
907.324	17482
907.441	17311
907.557	17052
907.674	17166
907.79	17124
907.907	17083
908.023	17117
908.139	17204
908.256	17075
908.372	17018
908.488	16946
908.604	16881
908.72	16790
908.836	16805
908.952	16828
909.068	16835
909.184	16949
909.3	16854
909.415	16923
909.531	16805
909.647	16508
909.762	16584
909.878	16542
909.993	16603
910.108	16531
910.224	16466
910.339	16599
910.454	16291
910.57	16360
910.685	16249
910.8	16538
910.915	16424
911.03	16333
911.145	16246
911.259	16074
911.374	16120
911.489	16029
911.604	16021
911.718	15968
911.833	15880
911.947	15835
912.062	15656
912.176	15762
912.291	15736
912.405	15888
912.519	16063
912.633	16013
912.748	15892
912.862	15850
912.976	15694
913.09	15507
913.204	15614
913.318	15705
913.431	15842
913.545	15728
913.659	15755
913.772	15648
913.886	15523
914	15466
914.113	15496
914.226	15599
914.34	15553
914.453	15401
914.566	15485
914.68	15458
914.793	15420
914.906	15207
915.019	15138
915.132	15043
915.245	15039
915.358	15142
915.47	15123
915.583	15127
915.696	15154
915.809	15237
915.921	15222
916.034	15112
916.146	15081
916.259	14963
916.371	15062
916.483	15062
916.595	14914
916.708	14967
916.82	14891
916.932	14819
917.044	14815
917.156	14941
917.268	14746
917.38	14781
917.491	14640
917.603	14777
917.715	14819
917.826	14861
917.938	14724
918.049	14632
918.161	14678
918.272	14960
918.384	14891
918.495	14617
918.606	14602
918.717	14450
918.828	14526
918.939	14537
919.05	14427
919.161	14533
919.272	14252
919.383	14450
919.494	14556
919.604	14731
919.715	14511
919.826	14438
919.936	14522
920.047	14484
920.157	14461
920.267	14575
920.378	14568
920.488	14457
920.598	14724
920.708	14765
920.818	14541
920.928	14560
921.038	14735
921.148	14689
921.258	14408
921.368	14434
921.477	14225
921.587	14180
921.697	14142
921.806	14206
921.916	14031
922.025	13921
922.134	13807
922.244	13883
922.353	13890
922.462	13738
922.571	13586
922.68	13548
922.789	13506
922.898	13586
923.007	13487
923.116	13571
923.224	13480
923.333	13544
923.442	13335
923.55	13312
923.659	13441
923.767	13373
923.876	13206
923.984	13304
924.092	13209
924.201	13274
924.309	13194
924.417	13244
924.525	13129
924.633	13183
924.741	13902
924.849	12939
924.956	13088
925.064	12913
925.172	12859
925.279	12894
925.387	12973
925.494	12863
925.602	12890
925.709	12962
925.816	12783
925.924	12890
926.031	12954
926.138	12791
926.245	12920
926.352	12772
926.459	12924
926.566	12932
926.673	12856
926.779	12696
926.886	12654
926.993	12460
927.099	12391
927.206	12372
927.312	12452
927.419	12456
927.525	12509
927.631	12452
927.737	12380
927.843	12361
927.95	12167
928.056	12304
928.162	12365
928.267	12334
928.373	12970
928.479	12384
928.585	12106
928.69	12254
928.796	12209
928.901	12136
929.007	12038
929.112	12064
929.218	12201
929.323	12053
929.428	11942
929.533	12228
929.638	11954
929.743	11939
929.848	12060
929.953	12060
930.058	11912
930.163	11775
930.267	11741
930.372	11809
930.477	11646
930.581	11897
930.685	11824
930.79	11684
930.894	11680
930.998	11638
931.103	11767
931.207	11395
931.311	11311
931.415	11181
931.519	10965
931.623	11022
