Data from test_V78500241_787.txt Node
Date: Fri Mar 25 15:15:20 CST 2022
User: usil
Spectrometer: V785-0024
Trigger mode: 0
Integration Time (sec): 4.000000E-1
Scans to average: 1
Nonlinearity correction enabled: false
Boxcar width: 0
Storing dark spectrum: false
XAxis mode: Wavelengths
Number of Pixels in Spectrum: 1024
>>>>>Begin Spectral Data<<<<<
801.071	28306
801.214	28215
801.356	28013
801.499	28002
801.641	27953
801.783	27968
801.926	27998
802.068	27793
802.211	27728
802.353	27823
802.496	27511
802.638	27523
802.78	27557
802.923	27572
803.065	27496
803.208	27424
803.35	27538
803.492	27667
803.635	27732
803.777	27576
803.919	27701
804.061	28040
804.204	27797
804.346	27698
804.488	27774
804.63	27568
804.773	27656
804.915	27785
805.057	27884
805.199	27785
805.341	27762
805.483	28032
805.626	27895
805.768	27759
805.91	27804
806.052	27865
806.194	27960
806.336	28082
806.478	27884
806.62	27975
806.762	27880
806.904	28158
807.046	28348
807.188	28246
807.33	28246
807.472	28390
807.614	28219
807.756	28234
807.898	28215
808.04	28246
808.182	28154
808.324	28139
808.465	28276
808.607	28352
808.749	28565
808.891	28527
809.033	28710
809.174	28527
809.316	28504
809.458	28596
809.6	28584
809.741	28599
809.883	28752
810.025	28968
810.166	28953
810.308	28866
810.45	28816
810.591	28843
810.733	28656
810.875	28599
811.016	28459
811.158	28538
811.299	28649
811.441	28626
811.582	28710
811.724	28542
811.865	28424
812.007	28516
812.148	28565
812.29	28622
812.431	28618
812.573	29003
812.714	29018
812.855	29033
812.997	29326
813.138	29353
813.279	29322
813.421	29052
813.562	29067
813.703	28953
813.845	28961
813.986	28356
814.127	28440
814.268	28272
814.41	28276
814.551	28223
814.692	28348
814.833	28162
814.974	28257
815.115	28481
815.256	28215
815.397	28177
815.539	28200
815.68	28116
815.821	28131
815.962	28139
816.103	28059
816.244	27956
816.385	27698
816.526	27842
816.666	27667
816.807	27542
816.948	27523
817.089	27770
817.23	27583
817.371	27751
817.512	27633
817.653	27583
817.793	27511
817.934	27629
818.075	27656
818.216	27603
818.356	27568
818.497	27534
818.638	27382
818.778	27397
818.919	27332
819.06	27321
819.2	27523
819.341	27542
819.481	27606
819.622	27701
819.762	27854
819.903	27911
820.043	27831
820.184	27698
820.324	27660
820.465	27762
820.605	27713
820.746	27698
820.886	27625
821.026	27701
821.167	27595
821.307	27838
821.447	27717
821.588	27492
821.728	27329
821.868	27157
822.008	27058
822.149	26979
822.289	27062
822.429	26853
822.569	26826
822.709	26777
822.849	26609
822.99	26503
823.13	26488
823.27	26530
823.41	26450
823.55	26240
823.69	26427
823.83	26507
823.97	26412
824.11	26126
824.25	26317
824.389	26259
824.529	26180
824.669	26275
824.809	26317
824.949	26358
825.089	26400
825.228	26298
825.368	26065
825.508	26088
825.648	26111
825.787	26130
825.927	26157
826.067	25989
826.206	26039
826.346	26153
826.485	26111
826.625	26142
826.765	26138
826.904	26161
827.044	25966
827.183	25719
827.323	25849
827.462	25708
827.601	25887
827.741	25898
827.88	25837
828.02	25685
828.159	25807
828.298	25822
828.437	25852
828.577	25731
828.716	25989
828.855	25780
828.994	25613
829.134	25620
829.273	25582
829.412	25635
829.551	25533
829.69	25540
829.829	25571
829.968	25613
830.107	25590
830.246	25544
830.385	25426
830.524	25270
830.663	25327
830.802	25320
830.941	25236
831.08	24985
831.219	25129
831.357	25316
831.496	25320
831.635	25103
831.774	25076
831.913	25042
832.051	24943
832.19	24985
832.329	24916
832.467	24749
832.606	24726
832.744	24810
832.883	24840
833.022	24707
833.16	24795
833.299	24764
833.437	24882
833.576	24985
833.714	24791
833.852	24932
833.991	24840
834.129	24966
834.267	24913
834.406	24875
834.544	24928
834.682	24951
834.821	24859
834.959	25034
835.097	24753
835.235	24806
835.373	24833
835.511	24749
835.65	24726
835.788	24734
835.926	24707
836.064	24536
836.202	24452
836.34	24631
836.478	24753
836.615	24585
836.753	24696
836.891	24776
837.029	24726
837.167	24612
837.305	24460
837.443	24540
837.58	24490
837.718	24513
837.856	24445
837.993	24490
838.131	24555
838.269	24429
838.406	24502
838.544	24258
838.681	24174
838.819	24110
838.956	23863
839.094	24026
839.231	23912
839.369	24026
839.506	24311
839.643	24216
839.781	23927
839.918	23767
840.055	24003
840.193	24026
840.33	23870
840.467	23813
840.604	23935
840.742	24266
840.879	23710
841.016	23737
841.153	23752
841.29	23802
841.427	23840
841.564	23798
841.701	23855
841.838	23733
841.975	23760
842.112	23847
842.249	23589
842.385	23604
842.522	23771
842.659	23699
842.796	23581
842.933	23535
843.069	23699
843.206	23543
843.343	23828
843.479	23585
843.616	23604
843.752	23406
843.889	23303
844.025	23562
844.162	23440
844.298	23505
844.435	23326
844.571	23398
844.708	23455
844.844	23615
844.98	23444
845.117	23520
845.253	23322
845.389	23246
845.525	23269
845.661	23261
845.798	23113
845.934	23193
846.07	23235
846.206	23159
846.342	23292
846.478	23216
846.614	22831
846.75	22850
846.886	22843
847.022	22968
847.158	22809
847.294	22923
847.429	22923
847.565	22839
847.701	22976
847.837	22569
847.972	22645
848.108	22683
848.244	22702
848.379	22436
848.515	22478
848.65	22459
848.786	22428
848.921	22413
849.057	22584
849.192	22527
849.328	22592
849.463	22424
849.598	22341
849.734	22375
849.869	22322
850.004	22226
850.14	22223
850.275	22295
850.41	22181
850.545	22063
850.68	22204
850.815	22200
850.95	22188
851.085	22424
851.22	22405
851.355	22272
851.49	22310
851.625	22257
851.76	22261
851.895	22017
852.03	22120
852.165	22265
852.299	22280
852.434	22325
852.569	22162
852.703	22276
852.838	22265
852.973	22417
853.107	22303
853.242	22200
853.376	22135
853.511	21991
853.645	21975
853.78	22166
853.914	22109
854.048	21998
854.183	21998
854.317	22086
854.451	22287
854.585	21937
854.72	21941
854.854	22150
854.988	21953
855.122	22051
855.256	21945
855.39	22067
855.524	22086
855.658	22196
855.792	22032
855.926	22109
856.06	21972
856.194	22246
856.327	22002
856.461	22017
856.595	21964
856.729	21956
856.862	22131
856.996	21930
857.13	22078
857.263	22124
857.397	22120
857.53	22025
857.664	22143
857.797	22166
857.931	22158
858.064	22181
858.197	22196
858.331	21975
858.464	22006
858.597	21846
858.731	22021
858.864	21949
858.997	22025
859.13	22036
859.263	22029
859.396	21994
859.529	22017
859.662	21956
859.795	21956
859.928	22093
860.061	22177
860.194	22238
860.327	21960
860.46	22078
860.592	22147
860.725	22143
860.858	22124
860.99	22036
861.123	21979
861.256	21987
861.388	21930
861.521	22641
861.653	22013
861.786	21838
861.918	21876
862.05	21823
862.183	21979
862.315	22006
862.447	22074
862.58	21949
862.712	21789
862.844	21724
862.976	21876
863.108	21789
863.24	22131
863.372	21781
863.504	21823
863.636	21705
863.768	21747
863.9	21644
864.032	21759
864.164	21648
864.296	21800
864.428	21884
864.559	21835
864.691	21823
864.823	21629
864.954	21705
865.086	21610
865.217	21625
865.349	21622
865.48	21526
865.612	21663
865.743	21747
865.875	21641
866.006	21618
866.137	21679
866.269	21538
866.4	21580
866.531	21564
866.662	21507
866.793	21595
866.924	21519
867.055	21622
867.186	21606
867.317	21633
867.448	21439
867.579	21496
867.71	21545
867.841	21500
867.972	21500
868.103	21523
868.233	21542
868.364	21473
868.495	21682
868.625	21720
868.756	21968
868.886	21625
869.017	21812
869.147	21865
869.278	21907
869.408	21816
869.539	21800
869.669	21774
869.799	21698
869.929	21895
870.06	21865
870.19	22029
870.32	22021
870.45	22135
870.58	22333
870.71	22295
870.84	22268
870.97	22124
871.1	22215
871.23	22352
871.36	22440
871.489	22310
871.619	22310
871.749	22291
871.879	22424
872.008	22485
872.138	22390
872.267	22272
872.397	22238
872.526	22154
872.656	22268
872.785	22131
872.915	22310
873.044	22592
873.173	22291
873.303	22462
873.432	22432
873.561	22474
873.69	22371
873.819	22363
873.948	22440
874.077	22344
874.206	22325
874.335	22329
874.464	22398
874.593	22538
874.722	22645
874.851	22698
874.979	22607
875.108	22710
875.237	22592
875.365	22531
875.494	22546
875.623	22725
875.751	22550
875.88	22626
876.008	22763
876.136	22744
876.265	23037
876.393	23159
876.521	23033
876.65	23083
876.778	22984
876.906	22885
877.034	22938
877.162	23037
877.29	22824
877.418	22946
877.546	22927
877.674	22923
877.802	22968
877.93	22953
878.058	22881
878.185	22858
878.313	22904
878.441	22934
878.568	22725
878.696	22949
878.824	22976
878.951	23022
879.079	23159
879.206	23197
879.333	23162
879.461	22892
879.588	23041
879.715	23067
879.842	23136
879.97	23056
880.097	22793
880.224	22740
880.351	22683
880.478	22809
880.605	22694
880.732	22763
880.859	22892
880.986	22801
881.112	22771
881.239	22679
881.366	22470
881.493	22363
881.619	22451
881.746	22253
881.872	22272
881.999	22402
882.125	22363
882.252	22379
882.378	22238
882.505	22474
882.631	22200
882.757	21991
882.883	22120
883.01	22204
883.136	22021
883.262	21812
883.388	22002
883.514	22036
883.64	21899
883.766	21945
883.892	21827
884.018	21789
884.143	21899
884.269	22116
884.395	21751
884.52	21736
884.646	21637
884.772	21549
884.897	21587
885.023	21629
885.148	21736
885.274	21884
885.399	21789
885.524	21656
885.65	21629
885.775	21648
885.9	21682
886.025	21759
886.15	21694
886.275	21610
886.4	21443
886.525	21713
886.65	21663
886.775	21553
886.9	21720
887.025	21857
887.149	21622
887.274	21443
887.399	21397
887.523	21428
887.648	21405
887.773	21256
887.897	21443
888.021	21466
888.146	21325
888.27	21469
888.395	21515
888.519	21405
888.643	21454
888.767	21526
888.891	21222
889.015	21211
889.139	21252
889.263	21146
889.387	21359
889.511	21374
889.635	21393
889.759	21211
889.883	21165
890.006	21199
890.13	21325
890.254	21222
890.377	21119
890.501	21013
890.624	20781
890.748	21032
890.871	20899
890.995	20804
891.118	20769
891.241	20708
891.364	20792
891.488	20948
891.611	20819
891.734	20693
891.857	20765
891.98	20769
892.103	20765
892.226	20773
892.349	20724
892.471	20587
892.594	20773
892.717	20693
892.839	20689
892.962	20689
893.085	20731
893.207	20613
893.33	20514
893.452	20537
893.575	20838
893.697	20629
893.819	20777
893.941	20849
894.064	20785
894.186	20609
894.308	20541
894.43	20701
894.552	20792
894.674	20644
894.796	20450
894.918	20602
895.04	20495
895.161	20788
895.283	20735
895.405	20682
895.526	20648
895.648	20571
895.769	20682
895.891	20720
896.012	20674
896.134	20651
896.255	20609
896.376	20655
896.498	20648
896.619	20640
896.74	20667
896.861	20708
896.982	20960
897.103	20960
897.224	20891
897.345	20876
897.466	20773
897.587	20944
897.708	20967
897.828	20941
897.949	20773
898.07	20758
898.19	20750
898.311	20891
898.431	20830
898.552	20758
898.672	20914
898.792	20914
898.913	20804
899.033	20785
899.153	20575
899.273	20518
899.393	20629
899.513	20655
899.633	20636
899.753	20617
899.873	20522
899.993	20583
900.113	20575
900.232	20594
900.352	20495
900.472	20434
900.591	20309
900.711	20461
900.83	20286
900.95	20431
901.069	20408
901.189	20301
901.308	20020
901.427	19921
901.546	19879
901.665	19974
901.784	19925
901.904	19765
902.023	19734
902.141	19563
902.26	19487
902.379	19559
902.498	19449
902.617	19430
902.735	19457
902.854	19320
902.973	19312
903.091	19213
903.21	19065
903.328	19145
903.446	18901
903.565	19019
903.683	18916
903.801	18856
903.919	18802
904.038	18958
904.156	18734
904.274	18837
904.392	18639
904.51	18684
904.627	18650
904.745	18715
904.863	18631
904.981	18547
905.098	18437
905.216	18376
905.334	18388
905.451	18342
905.569	18330
905.686	18433
905.803	18281
905.921	18136
906.038	18273
906.155	18186
906.272	18079
906.389	18083
906.506	17878
906.623	17847
906.74	17942
906.857	17866
906.974	17783
907.091	17878
907.208	17828
907.324	17950
907.441	17733
907.557	17691
907.674	17528
907.79	17505
907.907	17524
908.023	17611
908.139	17512
908.256	17535
908.372	17501
908.488	17372
908.604	17364
908.72	17166
908.836	17341
908.952	17341
909.068	17349
909.184	17387
909.3	17345
909.415	17315
909.531	17296
909.647	17056
909.762	17075
909.878	17048
909.993	16915
910.108	16934
910.224	16919
910.339	17025
910.454	16790
910.57	16824
910.685	16854
910.8	17052
910.915	16946
911.03	16767
911.145	16675
911.259	16577
911.374	16611
911.489	16493
911.604	16379
911.718	16314
911.833	16219
911.947	16234
912.062	16105
912.176	16295
912.291	16306
912.405	16242
912.519	16493
912.633	16409
912.748	16310
912.862	16344
912.976	16181
913.09	16169
913.204	16124
913.318	16078
913.431	16238
913.545	16147
913.659	16185
913.772	16200
913.886	15945
914	15968
914.113	15964
914.226	16002
914.34	16051
914.453	15778
914.566	15873
914.68	15835
914.793	15770
914.906	15591
915.019	15504
915.132	15443
915.245	15530
915.358	15580
915.47	15553
915.583	15580
915.696	15568
915.809	15648
915.921	15652
916.034	15534
916.146	15382
916.259	15420
916.371	15496
916.483	15492
916.595	15287
916.708	15401
916.82	15393
916.932	15439
917.044	15367
917.156	15192
917.268	15252
917.38	15184
917.491	15138
917.603	15169
917.715	15252
917.826	15233
917.938	15032
918.049	14979
918.161	15230
918.272	15252
918.384	15272
918.495	15062
918.606	14830
918.717	14781
918.828	14914
918.939	14918
919.05	14918
919.161	14895
919.272	14750
919.383	14781
919.494	15039
919.604	15112
919.715	14914
919.826	14762
919.936	14868
920.047	14891
920.157	14880
920.267	15123
920.378	14910
920.488	14796
920.598	15001
920.708	15131
920.818	14944
920.928	14937
921.038	15165
921.148	14929
921.258	14807
921.368	14705
921.477	14724
921.587	14606
921.697	14492
921.806	14587
921.916	14412
922.025	14298
922.134	14252
922.244	14187
922.353	14317
922.462	14126
922.571	14073
922.68	14001
922.789	13883
922.898	13894
923.007	13868
923.116	13856
923.224	13875
923.333	13894
923.442	13803
923.55	13681
923.659	13776
923.767	13734
923.876	13620
923.984	13753
924.092	13647
924.201	13643
924.309	13605
924.417	13670
924.525	13525
924.633	13578
924.741	14294
924.849	13339
924.956	13491
925.064	13396
925.172	13247
925.279	13274
925.387	13244
925.494	13308
925.602	13373
925.709	13331
925.816	13095
925.924	13187
926.031	13335
926.138	13156
926.245	13240
926.352	13194
926.459	13217
926.566	13327
926.673	13156
926.779	12977
926.886	13015
926.993	12875
927.099	12833
927.206	12757
927.312	12802
927.419	12916
927.525	12749
927.631	12810
927.737	12791
927.843	12681
927.95	12616
928.056	12589
928.162	12620
928.267	12703
928.373	13339
928.479	12745
928.585	12429
928.69	12570
928.796	12635
928.901	12521
929.007	12315
929.112	12502
929.218	12410
929.323	12445
929.428	12353
929.533	12471
929.638	12273
929.743	12285
929.848	12353
929.953	12285
930.058	12209
930.163	12053
930.267	12041
930.372	12190
930.477	12079
930.581	12232
930.685	12121
930.79	11904
930.894	12057
930.998	11954
931.103	12011
931.207	11703
931.311	11554
931.415	11547
931.519	11402
931.623	11311
