Data from test_V78500241_407.txt Node
Date: Fri Mar 25 15:12:41 CST 2022
User: usil
Spectrometer: V785-0024
Trigger mode: 0
Integration Time (sec): 4.000000E-1
Scans to average: 1
Nonlinearity correction enabled: false
Boxcar width: 0
Storing dark spectrum: false
XAxis mode: Wavelengths
Number of Pixels in Spectrum: 1024
>>>>>Begin Spectral Data<<<<<
801.071	27138
801.214	26994
801.356	26914
801.499	26590
801.641	26609
801.783	26613
801.926	26724
802.068	26648
802.211	26617
802.353	26602
802.496	26324
802.638	26290
802.78	26282
802.923	26282
803.065	26164
803.208	26096
803.35	26328
803.492	26313
803.635	26423
803.777	26278
803.919	26396
804.061	26537
804.204	26423
804.346	26294
804.488	26286
804.63	26537
804.773	26206
804.915	26366
805.057	26320
805.199	26290
805.341	26457
805.483	26526
805.626	26484
805.768	26393
805.91	26507
806.052	26480
806.194	26526
806.336	26670
806.478	26541
806.62	26514
806.762	26507
806.904	26823
807.046	27104
807.188	26933
807.33	26876
807.472	27005
807.614	26838
807.756	26864
807.898	26617
808.04	26705
808.182	26724
808.324	26727
808.465	26849
808.607	26861
808.749	27039
808.891	27100
809.033	27218
809.174	27230
809.316	27074
809.458	27024
809.6	27077
809.741	27249
809.883	27298
810.025	27348
810.166	27488
810.308	27233
810.45	27256
810.591	27283
810.733	27264
810.875	27036
811.016	27020
811.158	26979
811.299	27123
811.441	27184
811.582	27230
811.724	26902
811.865	27001
812.007	27020
812.148	27146
812.29	27096
812.431	27150
812.573	27466
812.714	27488
812.855	27698
812.997	27694
813.138	27838
813.279	27770
813.421	27728
813.562	27644
813.703	27435
813.845	27329
813.986	26727
814.127	26785
814.268	26743
814.41	26613
814.551	26693
814.692	26819
814.833	26545
814.974	26670
815.115	26800
815.256	26613
815.397	26697
815.539	26552
815.68	26609
815.821	26613
815.962	26533
816.103	26598
816.244	26438
816.385	26278
816.526	26199
816.666	26145
816.807	25963
816.948	26145
817.089	25970
817.23	26008
817.371	26020
817.512	26058
817.653	25966
817.793	25890
817.934	26058
818.075	26039
818.216	26005
818.356	25966
818.497	25940
818.638	25635
818.778	25639
818.919	25769
819.06	25875
819.2	25925
819.341	25890
819.481	25966
819.622	26111
819.762	26400
819.903	26229
820.043	26161
820.184	26130
820.324	26252
820.465	26248
820.605	26130
820.746	26111
820.886	25986
821.026	26111
821.167	26088
821.307	26153
821.447	25959
821.588	25883
821.728	25814
821.868	25632
822.008	25559
822.149	25411
822.289	25407
822.429	25126
822.569	25088
822.709	25129
822.849	24935
822.99	25004
823.13	24882
823.27	24947
823.41	24840
823.55	24612
823.69	24821
823.83	24802
823.97	24776
824.11	24620
824.25	24635
824.389	24635
824.529	24494
824.669	24639
824.809	24757
824.949	24661
825.089	24604
825.228	24711
825.368	24505
825.508	24464
825.648	24384
825.787	24467
825.927	24513
826.067	24429
826.206	24521
826.346	24642
826.485	24475
826.625	24441
826.765	24639
826.904	24700
827.044	24247
827.183	24220
827.323	24064
827.462	24205
827.601	24163
827.741	24174
827.88	24053
828.02	24079
828.159	24079
828.298	24167
828.437	24148
828.577	24114
828.716	24117
828.855	24072
828.994	23946
829.134	24049
829.273	23912
829.412	23859
829.551	23882
829.69	23935
829.829	23916
829.968	23878
830.107	24007
830.246	23912
830.385	23828
830.524	23722
830.663	23707
830.802	23558
830.941	23516
831.08	23471
831.219	23600
831.357	23615
831.496	23703
831.635	23524
831.774	23433
831.913	23433
832.051	23391
832.19	23265
832.329	23398
832.467	23273
832.606	23094
832.744	22995
832.883	23311
833.022	23181
833.16	23242
833.299	23296
833.437	23269
833.576	23250
833.714	23345
833.852	23235
833.991	23277
834.129	23368
834.267	23421
834.406	23220
834.544	23345
834.682	23151
834.821	23242
834.959	23448
835.097	23227
835.235	23265
835.373	23299
835.511	23265
835.65	23102
835.788	23143
835.926	23022
836.064	22873
836.202	23022
836.34	23193
836.478	23204
836.615	23064
836.753	23094
836.891	23277
837.029	23197
837.167	23136
837.305	23071
837.443	23022
837.58	22889
837.718	23064
837.856	23010
837.993	22961
838.131	23025
838.269	22790
838.406	22972
838.544	22873
838.681	22675
838.819	22641
838.956	22550
839.094	22398
839.231	22508
839.369	22672
839.506	22839
839.643	22736
839.781	22649
839.918	22394
840.055	22485
840.193	22436
840.33	22379
840.467	22253
840.604	22390
840.742	22713
840.879	22360
841.016	22341
841.153	22204
841.29	22371
841.427	22493
841.564	22303
841.701	22333
841.838	22249
841.975	22246
842.112	22261
842.249	22276
842.385	22124
842.522	22322
842.659	22253
842.796	22109
842.933	22169
843.069	22002
843.206	22192
843.343	22135
843.479	22090
843.616	22116
843.752	21956
843.889	21956
844.025	22074
844.162	21926
844.298	22010
844.435	21911
844.571	21835
844.708	22029
844.844	22131
844.98	22032
845.117	21983
845.253	21842
845.389	21941
845.525	21911
845.661	21766
845.798	21686
845.934	21800
846.07	21583
846.206	21599
846.342	21778
846.478	21720
846.614	21450
846.75	21447
846.886	21298
847.022	21420
847.158	21477
847.294	21466
847.429	21500
847.565	21397
847.701	21587
847.837	21138
847.972	21081
848.108	21222
848.244	21131
848.379	21024
848.515	20971
848.65	21028
848.786	21005
848.921	21066
849.057	21070
849.192	21096
849.328	21066
849.463	21013
849.598	20944
849.734	20899
849.869	20979
850.004	20842
850.14	20861
850.275	20796
850.41	20743
850.545	20800
850.68	20689
850.815	20727
850.95	20960
851.085	20979
851.22	20819
851.355	20804
851.49	20674
851.625	20686
851.76	20842
851.895	20712
852.03	20697
852.165	20735
852.299	20815
852.434	20845
852.569	20826
852.703	20758
852.838	20720
852.973	20853
853.107	20990
853.242	20796
853.376	20644
853.511	20602
853.645	20469
853.78	20697
853.914	20564
854.048	20640
854.183	20651
854.317	20617
854.451	20769
854.585	20670
854.72	20552
854.854	20640
854.988	20526
855.122	20655
855.256	20412
855.39	20545
855.524	20629
855.658	20743
855.792	20507
855.926	20590
856.06	20609
856.194	20530
856.327	20568
856.461	20526
856.595	20514
856.729	20644
856.862	20636
856.996	20571
857.13	20659
857.263	20697
857.397	20712
857.53	20594
857.664	20545
857.797	20743
857.931	20777
858.064	20575
858.197	20674
858.331	20629
858.464	20469
858.597	20507
858.731	20537
858.864	20552
858.997	20484
859.13	20602
859.263	20583
859.396	20674
859.529	20640
859.662	20484
859.795	20476
859.928	20606
860.061	20739
860.194	20697
860.327	20636
860.46	20670
860.592	20731
860.725	20636
860.858	20712
860.99	20648
861.123	20530
861.256	20522
861.388	20629
861.521	21325
861.653	20408
861.786	20457
861.918	20366
862.05	20419
862.183	20556
862.315	20476
862.447	20556
862.58	20530
862.712	20298
862.844	20252
862.976	20438
863.108	20480
863.24	20773
863.372	20313
863.504	20218
863.636	20404
863.768	20294
863.9	20157
864.032	20301
864.164	20282
864.296	20374
864.428	20419
864.559	20446
864.691	20396
864.823	20214
864.954	20355
865.086	20294
865.217	20176
865.349	20225
865.48	20221
865.612	20282
865.743	20176
865.875	20278
866.006	20229
866.137	20233
866.269	20377
866.4	20218
866.531	20122
866.662	20100
866.793	20126
866.924	20187
867.055	20115
867.186	20187
867.317	20195
867.448	20096
867.579	20206
867.71	20100
867.841	20069
867.972	20206
868.103	20161
868.233	20115
868.364	20138
868.495	20309
868.625	20237
868.756	20514
868.886	20366
869.017	20400
869.147	20526
869.278	20716
869.408	20473
869.539	20412
869.669	20442
869.799	20518
869.929	20533
870.06	20541
870.19	20682
870.32	20758
870.45	20796
870.58	20674
870.71	20891
870.84	20857
870.97	20891
871.1	20823
871.23	20925
871.36	21039
871.489	20921
871.619	21093
871.749	21032
871.879	21169
872.008	21123
872.138	21070
872.267	21032
872.397	20845
872.526	20705
872.656	20815
872.785	20937
872.915	21032
873.044	21203
873.173	21039
873.303	21100
873.432	21150
873.561	21116
873.69	21096
873.819	21032
873.948	21184
874.077	21089
874.206	21047
874.335	20990
874.464	21184
874.593	21348
874.722	21260
874.851	21279
874.979	21260
875.108	21268
875.237	21298
875.365	21207
875.494	21256
875.623	21359
875.751	21176
875.88	21340
876.008	21363
876.136	21530
876.265	21660
876.393	21736
876.521	21694
876.65	21732
876.778	21895
876.906	21625
877.034	21572
877.162	21671
877.29	21599
877.418	21675
877.546	21713
877.674	21504
877.802	21534
877.93	21606
878.058	21713
878.185	21462
878.313	21595
878.441	21701
878.568	21572
878.696	21405
878.824	21656
878.951	21724
879.079	21743
879.206	21960
879.333	21827
879.461	21564
879.588	21656
879.715	21705
879.842	21838
879.97	21610
880.097	21370
880.224	21443
880.351	21469
880.478	21428
880.605	21496
880.732	21374
880.859	21610
880.986	21355
881.112	21572
881.239	21222
881.366	21195
881.493	21055
881.619	21146
881.746	21051
881.872	20975
881.999	20906
882.125	20956
882.252	20979
882.378	21043
882.505	21096
882.631	20944
882.757	20758
882.883	20746
883.01	20739
883.136	20712
883.262	20693
883.388	20587
883.514	20796
883.64	20689
883.766	20587
883.892	20594
884.018	20549
884.143	20682
884.269	20735
884.395	20465
884.52	20412
884.646	20366
884.772	20400
884.897	20408
885.023	20442
885.148	20514
885.274	20583
885.399	20465
885.524	20370
885.65	20503
885.775	20362
885.9	20374
886.025	20492
886.15	20393
886.275	20282
886.4	20370
886.525	20347
886.65	20309
886.775	20351
886.9	20461
887.025	20518
887.149	20412
887.274	20229
887.399	20096
887.523	20221
887.648	20069
887.773	20024
887.897	20317
888.021	20305
888.146	20046
888.27	20252
888.395	20210
888.519	20214
888.643	20183
888.767	20267
888.891	20092
889.015	20027
889.139	20005
889.263	19898
889.387	20138
889.511	20240
889.635	20164
889.759	19887
889.883	19974
890.006	19887
890.13	19978
890.254	19803
890.377	19913
890.501	19803
890.624	19537
890.748	19559
890.871	19609
890.995	19510
891.118	19514
891.241	19499
891.364	19559
891.488	19582
891.611	19537
891.734	19460
891.857	19655
891.98	19624
892.103	19597
892.226	19586
892.349	19563
892.471	19373
892.594	19499
892.717	19468
892.839	19419
892.962	19438
893.085	19544
893.207	19403
893.33	19502
893.452	19320
893.575	19449
893.697	19472
893.819	19609
893.941	19597
894.064	19575
894.186	19457
894.308	19514
894.43	19548
894.552	19578
894.674	19666
894.796	19343
894.918	19308
895.04	19350
895.161	19559
895.283	19445
895.405	19502
895.526	19464
895.648	19335
895.769	19381
895.891	19502
896.012	19457
896.134	19559
896.255	19487
896.376	19491
896.498	19544
896.619	19480
896.74	19419
896.861	19521
896.982	19826
897.103	19936
897.224	19822
897.345	19586
897.466	19632
897.587	19727
897.708	19765
897.828	19772
897.949	19708
898.07	19609
898.19	19639
898.311	19761
898.431	19582
898.552	19715
898.672	19799
898.792	19666
898.913	19635
899.033	19628
899.153	19544
899.273	19362
899.393	19415
899.513	19575
899.633	19540
899.753	19514
899.873	19445
899.993	19445
900.113	19400
900.232	19403
900.352	19289
900.472	19312
900.591	19354
900.711	19266
900.83	19114
900.95	19232
901.069	19312
901.189	19152
901.308	18966
901.427	18829
901.546	18920
901.665	18821
901.784	18909
901.904	18719
902.023	18551
902.141	18490
902.26	18292
902.379	18517
902.498	18289
902.617	18270
902.735	18304
902.854	18315
902.973	18315
903.091	18026
903.21	17946
903.328	18030
903.446	17980
903.565	17878
903.683	17874
903.801	17752
903.919	17771
904.038	17836
904.156	17657
904.274	17699
904.392	17615
904.51	17585
904.627	17661
904.745	17524
904.863	17646
904.981	17467
905.098	17250
905.216	17242
905.334	17185
905.451	17330
905.569	17330
905.686	17345
905.803	17372
905.921	17105
906.038	17235
906.155	17121
906.272	16995
906.389	17041
906.506	16881
906.623	16858
906.74	16908
906.857	16797
906.974	16721
907.091	16889
907.208	16999
907.324	16854
907.441	16763
907.557	16653
907.674	16611
907.79	16371
907.907	16531
908.023	16554
908.139	16546
908.256	16508
908.372	16523
908.488	16447
908.604	16314
908.72	16230
908.836	16299
908.952	16284
909.068	16242
909.184	16352
909.3	16215
909.415	16333
909.531	16280
909.647	16086
909.762	16002
909.878	15975
909.993	16067
910.108	15991
910.224	15915
910.339	15960
910.454	15911
910.57	15812
910.685	15720
910.8	16078
910.915	15960
911.03	15816
911.145	15576
911.259	15717
911.374	15526
911.489	15530
911.604	15412
911.718	15363
911.833	15378
911.947	15291
912.062	15157
912.176	15340
912.291	15260
912.405	15275
912.519	15428
912.633	15466
912.748	15363
912.862	15310
912.976	15241
913.09	15138
913.204	15165
913.318	15119
913.431	15180
913.545	15370
913.659	15287
913.772	15135
913.886	15039
914	14986
914.113	14982
914.226	15123
914.34	15009
914.453	14857
914.566	15127
914.68	14864
914.793	14906
914.906	14686
915.019	14697
915.132	14545
915.245	14632
915.358	14689
915.47	14625
915.583	14636
915.696	14564
915.809	14697
915.921	14731
916.034	14632
916.146	14393
916.259	14469
916.371	14640
916.483	14537
916.595	14427
916.708	14442
916.82	14480
916.932	14431
917.044	14336
917.156	14404
917.268	14259
917.38	14339
917.491	14206
917.603	14278
917.715	14415
917.826	14324
917.938	14259
918.049	14096
918.161	14149
918.272	14286
918.384	14332
918.495	14225
918.606	14134
918.717	13959
918.828	14020
918.939	14065
919.05	13932
919.161	14016
919.272	13849
919.383	13932
919.494	14046
919.604	14240
919.715	14073
919.826	13963
919.936	13940
920.047	14142
920.157	13970
920.267	14221
920.378	14001
920.488	14016
920.598	14191
920.708	14381
920.818	14164
920.928	14149
921.038	14320
921.148	14396
921.258	14016
921.368	13871
921.477	13731
921.587	13841
921.697	13620
921.806	13803
921.916	13544
922.025	13529
922.134	13434
922.244	13400
922.353	13529
922.462	13327
922.571	13247
922.68	13122
922.789	13114
922.898	13050
923.007	13031
923.116	13053
923.224	13099
923.333	13031
923.442	12935
923.55	12890
923.659	12951
923.767	12932
923.876	12844
923.984	12905
924.092	12810
924.201	12867
924.309	12779
924.417	12825
924.525	12749
924.633	12814
924.741	13696
924.849	12532
924.956	12608
925.064	12563
925.172	12471
925.279	12536
925.387	12551
925.494	12566
925.602	12616
925.709	12460
925.816	12441
925.924	12498
926.031	12559
926.138	12437
926.245	12479
926.352	12395
926.459	12456
926.566	12502
926.673	12422
926.779	12235
926.886	12197
926.993	12110
927.099	12026
927.206	12129
927.312	12038
927.419	12152
927.525	12144
927.631	12091
927.737	11866
927.843	11889
927.95	11840
928.056	11923
928.162	11942
928.267	11946
928.373	12578
928.479	11977
928.585	11695
928.69	11920
928.796	11893
928.901	11832
929.007	11634
929.112	11855
929.218	11756
929.323	11695
929.428	11691
929.533	11794
929.638	11554
929.743	11566
929.848	11691
929.953	11611
930.058	11421
930.163	11417
930.267	11421
930.372	11596
930.477	11303
930.581	11524
930.685	11455
930.79	11303
930.894	11303
930.998	11273
931.103	11410
931.207	11071
931.311	10938
931.415	10896
931.519	10653
931.623	10538
