Data from test_V78500241_2595.txt Node
Date: Fri Mar 25 15:27:55 CST 2022
User: usil
Spectrometer: V785-0024
Trigger mode: 0
Integration Time (sec): 4.000000E-1
Scans to average: 1
Nonlinearity correction enabled: false
Boxcar width: 0
Storing dark spectrum: false
XAxis mode: Wavelengths
Number of Pixels in Spectrum: 1024
>>>>>Begin Spectral Data<<<<<
801.071	27310
801.214	27146
801.356	26933
801.499	26796
801.641	26746
801.783	26667
801.926	26777
802.068	26727
802.211	26811
802.353	26670
802.496	26511
802.638	26324
802.78	26237
802.923	26244
803.065	26434
803.208	26244
803.35	26355
803.492	26450
803.635	26450
803.777	26453
803.919	26533
804.061	26712
804.204	26552
804.346	26351
804.488	26434
804.63	26362
804.773	26499
804.915	26507
805.057	26651
805.199	26393
805.341	26484
805.483	26556
805.626	26571
805.768	26495
805.91	26617
806.052	26606
806.194	26453
806.336	26826
806.478	26560
806.62	26762
806.762	26705
806.904	26906
807.046	27135
807.188	27081
807.33	27005
807.472	27104
807.614	26944
807.756	26967
807.898	26834
808.04	26804
808.182	26887
808.324	26746
808.465	26842
808.607	27017
808.749	27218
808.891	27165
809.033	27431
809.174	27203
809.316	27074
809.458	27192
809.6	27214
809.741	27287
809.883	27310
810.025	27492
810.166	27530
810.308	27580
810.45	27450
810.591	27298
810.733	27272
810.875	27161
811.016	27009
811.158	27165
811.299	27408
811.441	27447
811.582	27389
811.724	27195
811.865	27173
812.007	27131
812.148	27135
812.29	27214
812.431	27389
812.573	27473
812.714	27530
812.855	27637
812.997	27743
813.138	27835
813.279	27823
813.421	27690
813.562	27656
813.703	27542
813.845	27374
813.986	27043
814.127	26921
814.268	26815
814.41	26785
814.551	26800
814.692	26826
814.833	26785
814.974	26868
815.115	26773
815.256	26804
815.397	26689
815.539	26739
815.68	26598
815.821	26419
815.962	26693
816.103	26514
816.244	26423
816.385	26412
816.526	26377
816.666	26225
816.807	26058
816.948	26062
817.089	26191
817.23	26187
817.371	26081
817.512	26077
817.653	26065
817.793	25963
817.934	26050
818.075	26039
818.216	26157
818.356	26077
818.497	25989
818.638	25856
818.778	25841
818.919	25814
819.06	25974
819.2	26043
819.341	26176
819.481	26119
819.622	26374
819.762	26511
819.903	26206
820.043	26351
820.184	26240
820.324	26237
820.465	26320
820.605	26172
820.746	26065
820.886	26062
821.026	26218
821.167	26142
821.307	26362
821.447	26069
821.588	26107
821.728	25883
821.868	25799
822.008	25590
822.149	25624
822.289	25521
822.429	25464
822.569	25346
822.709	25259
822.849	25091
822.99	25148
823.13	25061
823.27	25099
823.41	24875
823.55	24764
823.69	24882
823.83	24856
823.97	24932
824.11	24700
824.25	24760
824.389	24700
824.529	24745
824.669	24669
824.809	24882
824.949	24852
825.089	24665
825.228	24825
825.368	24639
825.508	24715
825.648	24536
825.787	24616
825.927	24787
826.067	24509
826.206	24642
826.346	24661
826.485	24688
826.625	24703
826.765	24589
826.904	24669
827.044	24361
827.183	24555
827.323	24315
827.462	24403
827.601	24327
827.741	24171
827.88	24395
828.02	24194
828.159	24289
828.298	24281
828.437	24323
828.577	24174
828.716	24327
828.855	24270
828.994	24003
829.134	23878
829.273	24011
829.412	23999
829.551	24057
829.69	24140
829.829	23897
829.968	24129
830.107	24117
830.246	24079
830.385	23935
830.524	23916
830.663	23958
830.802	23843
830.941	23684
831.08	23691
831.219	23703
831.357	23627
831.496	23729
831.635	23668
831.774	23589
831.913	23623
832.051	23596
832.19	23512
832.329	23478
832.467	23261
832.606	23239
832.744	23322
832.883	23277
833.022	23349
833.16	23330
833.299	23387
833.437	23330
833.576	23379
833.714	23299
833.852	23334
833.991	23547
834.129	23395
834.267	23482
834.406	23395
834.544	23539
834.682	23288
834.821	23341
834.959	23516
835.097	23277
835.235	23372
835.373	23303
835.511	23452
835.65	23322
835.788	23258
835.926	23178
836.064	23170
836.202	23124
836.34	23322
836.478	23402
836.615	23204
836.753	23364
836.891	23288
837.029	23334
837.167	23200
837.305	23189
837.443	23162
837.58	23121
837.718	23143
837.856	23056
837.993	23094
838.131	23140
838.269	22976
838.406	23003
838.544	22847
838.681	22934
838.819	22736
838.956	22607
839.094	22573
839.231	22675
839.369	22774
839.506	22999
839.643	22755
839.781	22588
839.918	22481
840.055	22599
840.193	22500
840.33	22607
840.467	22550
840.604	22618
840.742	22900
840.879	22447
841.016	22497
841.153	22379
841.29	22672
841.427	22440
841.564	22519
841.701	22554
841.838	22474
841.975	22367
842.112	22386
842.249	22360
842.385	22363
842.522	22512
842.659	22432
842.796	22360
842.933	22386
843.069	22207
843.206	22128
843.343	22394
843.479	22211
843.616	22234
843.752	22124
843.889	22101
844.025	22135
844.162	21991
844.298	22116
844.435	22128
844.571	22040
844.708	22029
844.844	22131
844.98	22200
845.117	22128
845.253	22002
845.389	21869
845.525	22010
845.661	21869
845.798	21835
845.934	21854
846.07	21759
846.206	21869
846.342	21991
846.478	21762
846.614	21595
846.75	21549
846.886	21488
847.022	21644
847.158	21675
847.294	21538
847.429	21576
847.565	21545
847.701	21682
847.837	21245
847.972	21249
848.108	21275
848.244	21370
848.379	21146
848.515	21123
848.65	21062
848.786	21062
848.921	21161
849.057	21184
849.192	21237
849.328	21154
849.463	21043
849.598	21070
849.734	21055
849.869	20925
850.004	20785
850.14	20838
850.275	20853
850.41	20861
850.545	20746
850.68	20754
850.815	20941
850.95	20853
851.085	21203
851.22	20960
851.355	20796
851.49	20830
851.625	20800
851.76	20967
851.895	20819
852.03	20883
852.165	20979
852.299	20864
852.434	20956
852.569	20849
852.703	20857
852.838	21028
852.973	21024
853.107	20876
853.242	20880
853.376	20724
853.511	20575
853.645	20632
853.78	20800
853.914	20845
854.048	20587
854.183	20552
854.317	20754
854.451	20918
854.585	20811
854.72	20716
854.854	20815
854.988	20777
855.122	20769
855.256	20537
855.39	20663
855.524	20762
855.658	20701
855.792	20754
855.926	20689
856.06	20754
856.194	20758
856.327	20712
856.461	20708
856.595	20655
856.729	20571
856.862	20800
856.996	20773
857.13	20758
857.263	20819
857.397	20777
857.53	20693
857.664	20792
857.797	20708
857.931	20811
858.064	20670
858.197	20845
858.331	20716
858.464	20632
858.597	20625
858.731	20579
858.864	20602
858.997	20727
859.13	20724
859.263	20670
859.396	20849
859.529	20758
859.662	20731
859.795	20674
859.928	20705
860.061	20826
860.194	20967
860.327	20716
860.46	20724
860.592	20887
860.725	20899
860.858	20773
860.99	20648
861.123	20583
861.256	20564
861.388	20712
861.521	21313
861.653	20541
861.786	20545
861.918	20492
862.05	20575
862.183	20575
862.315	20705
862.447	20625
862.58	20682
862.712	20343
862.844	20298
862.976	20450
863.108	20526
863.24	20925
863.372	20237
863.504	20427
863.636	20431
863.768	20332
863.9	20427
864.032	20347
864.164	20389
864.296	20431
864.428	20492
864.559	20412
864.691	20400
864.823	20442
864.954	20442
865.086	20389
865.217	20434
865.349	20252
865.48	20339
865.612	20434
865.743	20495
865.875	20393
866.006	20332
866.137	20294
866.269	20343
866.4	20263
866.531	20248
866.662	20180
866.793	20362
866.924	20248
867.055	20195
867.186	20362
867.317	20317
867.448	20168
867.579	20199
867.71	20122
867.841	20126
867.972	20214
868.103	20286
868.233	20317
868.364	20248
868.495	20290
868.625	20457
868.756	20777
868.886	20560
869.017	20594
869.147	20602
869.278	20606
869.408	20552
869.539	20484
869.669	20575
869.799	20476
869.929	20708
870.06	20549
870.19	20819
870.32	20807
870.45	20998
870.58	20910
870.71	21009
870.84	21020
870.97	20819
871.1	20990
871.23	21058
871.36	21138
871.489	21024
871.619	21165
871.749	21043
871.879	21096
872.008	21188
872.138	21112
872.267	21135
872.397	20872
872.526	20975
872.656	20880
872.785	20998
872.915	21077
873.044	21100
873.173	21051
873.303	21081
873.432	21264
873.561	21237
873.69	21192
873.819	20998
873.948	21230
874.077	21093
874.206	21051
874.335	21047
874.464	21237
874.593	21454
874.722	21370
874.851	21553
874.979	21405
875.108	21348
875.237	21275
875.365	21272
875.494	21420
875.623	21401
875.751	21317
875.88	21378
876.008	21568
876.136	21599
876.265	21682
876.393	21846
876.521	21759
876.65	21903
876.778	21823
876.906	21701
877.034	21557
877.162	21732
877.29	21675
877.418	21747
877.546	21759
877.674	21743
877.802	21850
877.93	21690
878.058	21713
878.185	21576
878.313	21709
878.441	21747
878.568	21599
878.696	21671
878.824	21774
878.951	21865
879.079	21808
879.206	22032
879.333	21804
879.461	21686
879.588	21720
879.715	21945
879.842	21876
879.97	21606
880.097	21523
880.224	21561
880.351	21633
880.478	21492
880.605	21534
880.732	21511
880.859	21774
880.986	21447
881.112	21530
881.239	21485
881.366	21207
881.493	21089
881.619	21199
881.746	21176
881.872	21150
881.999	21077
882.125	21100
882.252	21275
882.378	21146
882.505	21127
882.631	20975
882.757	20960
882.883	20880
883.01	20708
883.136	20906
883.262	20689
883.388	20648
883.514	20971
883.64	20777
883.766	20781
883.892	20625
884.018	20746
884.143	20754
884.269	20800
884.395	20530
884.52	20427
884.646	20499
884.772	20404
884.897	20461
885.023	20533
885.148	20594
885.274	20651
885.399	20617
885.524	20518
885.65	20381
885.775	20549
885.9	20370
886.025	20556
886.15	20560
886.275	20473
886.4	20370
886.525	20377
886.65	20324
886.775	20438
886.9	20549
887.025	20629
887.149	20450
887.274	20320
887.399	20282
887.523	20199
887.648	20237
887.773	20237
887.897	20252
888.021	20263
888.146	20229
888.27	20362
888.395	20393
888.519	20419
888.643	20328
888.767	20275
888.891	20218
889.015	20088
889.139	20161
889.263	20027
889.387	20157
889.511	20290
889.635	20111
889.759	20187
889.883	19963
890.006	20084
890.13	20100
890.254	19982
890.377	19936
890.501	19909
890.624	19765
890.748	19955
890.871	19674
890.995	19594
891.118	19563
891.241	19674
891.364	19746
891.488	19753
891.611	19677
891.734	19658
891.857	19674
891.98	19734
892.103	19655
892.226	19567
892.349	19609
892.471	19434
892.594	19525
892.717	19609
892.839	19601
892.962	19597
893.085	19727
893.207	19578
893.33	19453
893.452	19464
893.575	19586
893.697	19514
893.819	19712
893.941	19689
894.064	19586
894.186	19430
894.308	19521
894.43	19632
894.552	19803
894.674	19594
894.796	19525
894.918	19476
895.04	19483
895.161	19571
895.283	19514
895.405	19552
895.526	19605
895.648	19483
895.769	19586
895.891	19605
896.012	19590
896.134	19635
896.255	19582
896.376	19487
896.498	19651
896.619	19544
896.74	19460
896.861	19590
896.982	19955
897.103	19993
897.224	19868
897.345	19868
897.466	19662
897.587	19696
897.708	19883
897.828	19826
897.949	19780
898.07	19533
898.19	19715
898.311	19780
898.431	19738
898.552	19772
898.672	19864
898.792	19902
898.913	19799
899.033	19651
899.153	19635
899.273	19392
899.393	19624
899.513	19582
899.633	19468
899.753	19567
899.873	19567
899.993	19700
900.113	19381
900.232	19552
900.352	19472
900.472	19403
900.591	19327
900.711	19430
900.83	19354
900.95	19396
901.069	19396
901.189	19274
901.308	19034
901.427	18958
901.546	18894
901.665	18905
901.784	18924
901.904	18806
902.023	18711
902.141	18460
902.26	18486
902.379	18494
902.498	18384
902.617	18452
902.735	18437
902.854	18338
902.973	18403
903.091	18079
903.21	18125
903.328	18041
903.446	17961
903.565	17942
903.683	18003
903.801	17840
903.919	17950
904.038	17863
904.156	17756
904.274	17794
904.392	17718
904.51	17733
904.627	17627
904.745	17718
904.863	17653
904.981	17516
905.098	17299
905.216	17368
905.334	17356
905.451	17410
905.569	17341
905.686	17429
905.803	17330
905.921	17178
906.038	17140
906.155	17204
906.272	17041
906.389	17136
906.506	16911
906.623	16938
906.74	16873
906.857	16896
906.974	16733
907.091	17010
907.208	17113
907.324	16942
907.441	16771
907.557	16615
907.674	16668
907.79	16649
907.907	16694
908.023	16634
908.139	16763
908.256	16596
908.372	16565
908.488	16527
908.604	16375
908.72	16348
908.836	16306
908.952	16382
909.068	16390
909.184	16447
909.3	16386
909.415	16436
909.531	16428
909.647	16158
909.762	16078
909.878	16120
909.993	16036
910.108	16074
910.224	15998
910.339	15994
910.454	15994
910.57	15892
910.685	15861
910.8	16082
910.915	16078
911.03	15895
911.145	15831
911.259	15599
911.374	15614
911.489	15614
911.604	15587
911.718	15393
911.833	15580
911.947	15359
912.062	15298
912.176	15504
912.291	15576
912.405	15443
912.519	15622
912.633	15614
912.748	15408
912.862	15397
912.976	15351
913.09	15173
913.204	15241
913.318	15108
913.431	15256
913.545	15279
913.659	15351
913.772	15268
913.886	15074
914	15017
914.113	15100
914.226	15097
914.34	15138
914.453	14910
914.566	15085
914.68	14861
914.793	14929
914.906	14712
915.019	14579
915.132	14545
915.245	14689
915.358	14682
915.47	14674
915.583	14598
915.696	14682
915.809	14853
915.921	14758
916.034	14651
916.146	14602
916.259	14598
916.371	14560
916.483	14587
916.595	14575
916.708	14427
916.82	14514
916.932	14476
917.044	14545
917.156	14454
917.268	14362
917.38	14309
917.491	14377
917.603	14351
917.715	14404
917.826	14355
917.938	14275
918.049	14252
918.161	14446
918.272	14381
918.384	14381
918.495	14309
918.606	14157
918.717	14092
918.828	14168
918.939	14115
919.05	14043
919.161	14126
919.272	13890
919.383	13951
919.494	14077
919.604	14408
919.715	14142
919.826	14016
919.936	14081
920.047	14058
920.157	14153
920.267	14305
920.378	14172
920.488	14001
920.598	14271
920.708	14263
920.818	14256
920.928	14271
921.038	14343
921.148	14336
921.258	13978
921.368	13913
921.477	13826
921.587	13875
921.697	13655
921.806	13811
921.916	13742
922.025	13499
922.134	13521
922.244	13415
922.353	13548
922.462	13343
922.571	13316
922.68	13221
922.789	13061
922.898	13171
923.007	13129
923.116	13122
923.224	13133
923.333	13091
923.442	12981
923.55	12890
923.659	12985
923.767	13012
923.876	12970
923.984	13042
924.092	12935
924.201	12943
924.309	12897
924.417	12890
924.525	12787
924.633	12852
924.741	13712
924.849	12658
924.956	12703
925.064	12642
925.172	12555
925.279	12574
925.387	12623
925.494	12589
925.602	12639
925.709	12563
925.816	12448
925.924	12509
926.031	12604
926.138	12544
926.245	12551
926.352	12426
926.459	12612
926.566	12589
926.673	12467
926.779	12323
926.886	12342
926.993	12216
927.099	12155
927.206	12110
927.312	12095
927.419	12144
927.525	12106
927.631	12167
927.737	12045
927.843	12011
927.95	11878
928.056	11885
928.162	12015
928.267	12022
928.373	12506
928.479	12057
928.585	11855
928.69	11855
928.796	11961
928.901	11809
929.007	11737
929.112	11771
929.218	11733
929.323	11722
929.428	11691
929.533	11893
929.638	11611
929.743	11703
929.848	11752
929.953	11657
930.058	11596
930.163	11406
930.267	11474
930.372	11505
930.477	11383
930.581	11539
930.685	11490
930.79	11220
930.894	11330
930.998	11360
931.103	11406
931.207	11064
931.311	10953
931.415	10927
931.519	10721
931.623	10668
