Data from test_V78500241_841.txt Node
Date: Fri Mar 25 15:15:42 CST 2022
User: usil
Spectrometer: V785-0024
Trigger mode: 0
Integration Time (sec): 4.000000E-1
Scans to average: 1
Nonlinearity correction enabled: false
Boxcar width: 0
Storing dark spectrum: false
XAxis mode: Wavelengths
Number of Pixels in Spectrum: 1024
>>>>>Begin Spectral Data<<<<<
801.071	28337
801.214	28169
801.356	28109
801.499	27975
801.641	27732
801.783	27869
801.926	27880
802.068	27774
802.211	27705
802.353	27698
802.496	27568
802.638	27458
802.78	27526
802.923	27477
803.065	27591
803.208	27477
803.35	27435
803.492	27576
803.635	27637
803.777	27519
803.919	27633
804.061	27857
804.204	27682
804.346	27557
804.488	27545
804.63	27781
804.773	27656
804.915	27698
805.057	27854
805.199	27762
805.341	27717
805.483	27804
805.626	27892
805.768	27808
805.91	27766
806.052	27804
806.194	27778
806.336	28112
806.478	27800
806.62	27827
806.762	28017
806.904	28120
807.046	28500
807.188	28363
807.33	28246
807.472	28234
807.614	28124
807.756	28185
807.898	28109
808.04	28059
808.182	28025
808.324	28154
808.465	28280
808.607	28268
808.749	28481
808.891	28664
809.033	28744
809.174	28569
809.316	28569
809.458	28618
809.6	28306
809.741	28546
809.883	28649
810.025	28790
810.166	28778
810.308	28816
810.45	28774
810.591	28691
810.733	28542
810.875	28466
811.016	28519
811.158	28405
811.299	28577
811.441	28683
811.582	28713
811.724	28497
811.865	28584
812.007	28516
812.148	28447
812.29	28626
812.431	28812
812.573	29044
812.714	28965
812.855	29037
812.997	29258
813.138	29136
813.279	29235
813.421	29242
813.562	28900
813.703	29048
813.845	28767
813.986	28497
814.127	28276
814.268	28371
814.41	28367
814.551	28265
814.692	28280
814.833	28021
814.974	28238
815.115	28230
815.256	28093
815.397	28166
815.539	28093
815.68	28051
815.821	27956
815.962	28112
816.103	28147
816.244	27956
816.385	27804
816.526	27743
816.666	27701
816.807	27580
816.948	27690
817.089	27633
817.23	27671
817.371	27587
817.512	27633
817.653	27603
817.793	27496
817.934	27557
818.075	27648
818.216	27485
818.356	27412
818.497	27504
818.638	27336
818.778	27374
818.919	27241
819.06	27382
819.2	27496
819.341	27709
819.481	27587
819.622	27690
819.762	27850
819.903	27827
820.043	27694
820.184	27682
820.324	27599
820.465	27720
820.605	27762
820.746	27705
820.886	27587
821.026	27591
821.167	27694
821.307	27747
821.447	27717
821.588	27481
821.728	27226
821.868	27264
822.008	27116
822.149	27058
822.289	27093
822.429	26864
822.569	26727
822.709	26632
822.849	26541
822.99	26606
823.13	26484
823.27	26594
823.41	26366
823.55	26332
823.69	26423
823.83	26423
823.97	26248
824.11	26164
824.25	26111
824.389	26107
824.529	26206
824.669	26252
824.809	26431
824.949	26164
825.089	26404
825.228	26221
825.368	26077
825.508	26111
825.648	26180
825.787	26088
825.927	26065
826.067	25963
826.206	26145
826.346	26088
826.485	26153
826.625	26024
826.765	26206
826.904	26065
827.044	25871
827.183	25860
827.323	25795
827.462	25864
827.601	25780
827.741	25780
827.88	25761
828.02	25742
828.159	25696
828.298	25795
828.437	25822
828.577	25757
828.716	25871
828.855	25811
828.994	25628
829.134	25464
829.273	25559
829.412	25552
829.551	25430
829.69	25354
829.829	25468
829.968	25613
830.107	25537
830.246	25491
830.385	25350
830.524	25415
830.663	25247
830.802	25259
830.941	25156
831.08	25091
831.219	25141
831.357	25198
831.496	25304
831.635	25148
831.774	24817
831.913	24935
832.051	24867
832.19	24882
832.329	24954
832.467	24916
832.606	24764
832.744	24753
832.883	24707
833.022	24738
833.16	24791
833.299	24844
833.437	24760
833.576	24856
833.714	24878
833.852	24935
833.991	24890
834.129	24802
834.267	24882
834.406	24863
834.544	24840
834.682	24875
834.821	24703
834.959	24996
835.097	24635
835.235	24833
835.373	24783
835.511	24856
835.65	24700
835.788	24566
835.926	24490
836.064	24456
836.202	24673
836.34	24608
836.478	24734
836.615	24764
836.753	24654
836.891	24681
837.029	24764
837.167	24627
837.305	24555
837.443	24467
837.58	24582
837.718	24642
837.856	24544
837.993	24509
838.131	24448
838.269	24357
838.406	24365
838.544	24334
838.681	24106
838.819	24098
838.956	23897
839.094	23939
839.231	24087
839.369	24133
839.506	24262
839.643	24136
839.781	24030
839.918	23783
840.055	23992
840.193	23809
840.33	23851
840.467	23885
840.604	23908
840.742	24068
840.879	23828
841.016	23741
841.153	23596
841.29	23874
841.427	23783
841.564	23859
841.701	23790
841.838	23707
841.975	23745
842.112	23836
842.249	23619
842.385	23573
842.522	23843
842.659	23726
842.796	23478
842.933	23661
843.069	23608
843.206	23554
843.343	23642
843.479	23707
843.616	23592
843.752	23440
843.889	23490
844.025	23535
844.162	23322
844.298	23474
844.435	23398
844.571	23235
844.708	23410
844.844	23482
844.98	23440
845.117	23478
845.253	23417
845.389	23288
845.525	23227
845.661	23231
845.798	23159
845.934	23174
846.07	23075
846.206	23124
846.342	23269
846.478	23136
846.614	22934
846.75	22790
846.886	22797
847.022	22892
847.158	22835
847.294	22786
847.429	22831
847.565	22816
847.701	23037
847.837	22557
847.972	22470
848.108	22615
848.244	22607
848.379	22436
848.515	22417
848.65	22497
848.786	22466
848.921	22333
849.057	22504
849.192	22519
849.328	22455
849.463	22459
849.598	22516
849.734	22329
849.869	22371
850.004	22249
850.14	22230
850.275	22200
850.41	22200
850.545	22147
850.68	22223
850.815	22211
850.95	22226
851.085	22257
851.22	22299
851.355	22234
851.49	22230
851.625	22246
851.76	22097
851.895	22124
852.03	22074
852.165	22295
852.299	22257
852.434	22261
852.569	22322
852.703	22207
852.838	22211
852.973	22329
853.107	22436
853.242	22090
853.376	22086
853.511	21998
853.645	21915
853.78	22101
853.914	22166
854.048	21983
854.183	22048
854.317	22002
854.451	22230
854.585	22059
854.72	21915
854.854	22158
854.988	21956
855.122	22082
855.256	21850
855.39	22006
855.524	22116
855.658	22090
855.792	22013
855.926	22021
856.06	22029
856.194	22112
856.327	21994
856.461	22032
856.595	21998
856.729	21949
856.862	22150
856.996	22078
857.13	22166
857.263	21987
857.397	22162
857.53	21994
857.664	22029
857.797	22109
857.931	22131
858.064	22097
858.197	22112
858.331	22032
858.464	22006
858.597	21979
858.731	22010
858.864	22017
858.997	21903
859.13	22032
859.263	22021
859.396	22013
859.529	21926
859.662	22048
859.795	21903
859.928	21979
860.061	22131
860.194	22265
860.327	22036
860.46	21979
860.592	22188
860.725	22200
860.858	22055
860.99	22036
861.123	21880
861.256	22048
861.388	22013
861.521	22919
861.653	21876
861.786	21743
861.918	21778
862.05	21823
862.183	21979
862.315	21911
862.447	22032
862.58	22059
862.712	21720
862.844	21580
862.976	21694
863.108	21728
863.24	22154
863.372	21625
863.504	21526
863.636	21789
863.768	21816
863.9	21724
864.032	21682
864.164	21739
864.296	21724
864.428	21781
864.559	21720
864.691	21838
864.823	21720
864.954	21709
865.086	21633
865.217	21709
865.349	21572
865.48	21652
865.612	21572
865.743	21667
865.875	21587
866.006	21553
866.137	21667
866.269	21549
866.4	21526
866.531	21580
866.662	21507
866.793	21511
866.924	21466
867.055	21595
867.186	21523
867.317	21591
867.448	21485
867.579	21507
867.71	21450
867.841	21496
867.972	21530
868.103	21530
868.233	21622
868.364	21557
868.495	21572
868.625	21762
868.756	21869
868.886	21709
869.017	21770
869.147	21762
869.278	21892
869.408	21778
869.539	21774
869.669	21846
869.799	21884
869.929	21873
870.06	21880
870.19	22074
870.32	22010
870.45	22131
870.58	22139
870.71	22253
870.84	22177
870.97	22078
871.1	22097
871.23	22261
871.36	22421
871.489	22181
871.619	22375
871.749	22280
871.879	22516
872.008	22546
872.138	22382
872.267	22504
872.397	22204
872.526	22200
872.656	22234
872.785	22143
872.915	22291
873.044	22440
873.173	22428
873.303	22443
873.432	22379
873.561	22348
873.69	22390
873.819	22436
873.948	22417
874.077	22413
874.206	22265
874.335	22348
874.464	22470
874.593	22607
874.722	22573
874.851	22538
874.979	22630
875.108	22725
875.237	22462
875.365	22493
875.494	22531
875.623	22626
875.751	22508
875.88	22519
876.008	22675
876.136	22660
876.265	22995
876.393	23094
876.521	23014
876.65	23105
876.778	23105
876.906	22972
877.034	22843
877.162	22953
877.29	22949
877.418	22987
877.546	23022
877.674	22858
877.802	22911
877.93	23010
878.058	22957
878.185	22721
878.313	22824
878.441	22820
878.568	22839
878.696	22892
878.824	23010
878.951	23025
879.079	23105
879.206	23265
879.333	23197
879.461	23102
879.588	22968
879.715	23143
879.842	23178
879.97	22938
880.097	22611
880.224	22618
880.351	22801
880.478	22744
880.605	22759
880.732	22733
880.859	22900
880.986	22767
881.112	22774
881.239	22645
881.366	22421
881.493	22390
881.619	22329
881.746	22287
881.872	22318
881.999	22211
882.125	22257
882.252	22280
882.378	22219
882.505	22424
882.631	22097
882.757	22013
882.883	22166
883.01	22063
883.136	21941
883.262	21842
883.388	21949
883.514	21930
883.64	22063
883.766	21922
883.892	21854
884.018	21823
884.143	21949
884.269	22010
884.395	21690
884.52	21618
884.646	21576
884.772	21591
884.897	21564
885.023	21732
885.148	21690
885.274	21770
885.399	21724
885.524	21648
885.65	21686
885.775	21568
885.9	21606
886.025	21778
886.15	21781
886.275	21633
886.4	21485
886.525	21663
886.65	21545
886.775	21633
886.9	21663
887.025	21842
887.149	21595
887.274	21485
887.399	21477
887.523	21374
887.648	21313
887.773	21325
887.897	21431
888.021	21447
888.146	21405
888.27	21606
888.395	21473
888.519	21420
888.643	21431
888.767	21572
888.891	21249
889.015	21222
889.139	21321
889.263	21192
889.387	21325
889.511	21351
889.635	21313
889.759	21157
889.883	21211
890.006	21287
890.13	21325
890.254	21058
890.377	21165
890.501	20960
890.624	20967
890.748	21104
890.871	20815
890.995	20697
891.118	20746
891.241	20743
891.364	20724
891.488	20883
891.611	20750
891.734	20716
891.857	20838
891.98	20781
892.103	20842
892.226	20765
892.349	20689
892.471	20655
892.594	20587
892.717	20590
892.839	20606
892.962	20697
893.085	20750
893.207	20663
893.33	20537
893.452	20526
893.575	20746
893.697	20613
893.819	20636
893.941	20914
894.064	20727
894.186	20571
894.308	20503
894.43	20682
894.552	20823
894.674	20739
894.796	20583
894.918	20568
895.04	20731
895.161	20686
895.283	20571
895.405	20613
895.526	20697
895.648	20625
895.769	20655
895.891	20686
896.012	20613
896.134	20693
896.255	20590
896.376	20492
896.498	20682
896.619	20686
896.74	20552
896.861	20663
896.982	20872
897.103	21112
897.224	20838
897.345	20880
897.466	20834
897.587	20925
897.708	20891
897.828	20861
897.949	20693
898.07	20636
898.19	20762
898.311	20910
898.431	20864
898.552	20845
898.672	20910
898.792	20975
898.913	20785
899.033	20670
899.153	20667
899.273	20648
899.393	20602
899.513	20720
899.633	20541
899.753	20499
899.873	20549
899.993	20552
900.113	20465
900.232	20556
900.352	20583
900.472	20355
900.591	20358
900.711	20374
900.83	20225
900.95	20568
901.069	20396
901.189	20214
901.308	20130
901.427	19902
901.546	19944
901.665	19902
901.784	19890
901.904	19791
902.023	19734
902.141	19586
902.26	19464
902.379	19582
902.498	19464
902.617	19377
902.735	19415
902.854	19510
902.973	19278
903.091	19175
903.21	19160
903.328	19088
903.446	19000
903.565	18939
903.683	18890
903.801	18783
903.919	18901
904.038	18985
904.156	18745
904.274	18665
904.392	18559
904.51	18677
904.627	18642
904.745	18646
904.863	18654
904.981	18506
905.098	18395
905.216	18376
905.334	18350
905.451	18292
905.569	18304
905.686	18357
905.803	18285
905.921	18125
906.038	18224
906.155	18121
906.272	18030
906.389	18102
906.506	17783
906.623	17984
906.74	17863
906.857	17817
906.974	17737
907.091	17958
907.208	17961
907.324	17767
907.441	17703
907.557	17668
907.674	17611
907.79	17436
907.907	17573
908.023	17535
908.139	17615
908.256	17566
908.372	17505
908.488	17455
908.604	17345
908.72	17334
908.836	17383
908.952	17303
909.068	17296
909.184	17478
909.3	17311
909.415	17284
909.531	17296
909.647	16968
909.762	16896
909.878	17018
909.993	17075
910.108	16911
910.224	16896
910.339	16984
910.454	16862
910.57	16717
910.685	16774
910.8	16927
910.915	16942
911.03	16820
911.145	16706
911.259	16512
911.374	16626
911.489	16607
911.604	16500
911.718	16398
911.833	16344
911.947	16299
912.062	16150
912.176	16261
912.291	16322
912.405	16344
912.519	16371
912.633	16493
912.748	16455
912.862	16306
912.976	16166
913.09	15968
913.204	16116
913.318	16166
913.431	16230
913.545	16276
913.659	16238
913.772	16120
913.886	15937
914	15972
914.113	16128
914.226	16013
914.34	16063
914.453	15899
914.566	15945
914.68	15785
914.793	15789
914.906	15644
915.019	15591
915.132	15595
915.245	15473
915.358	15538
915.47	15526
915.583	15481
915.696	15542
915.809	15610
915.921	15660
916.034	15416
916.146	15428
916.259	15355
916.371	15526
916.483	15420
916.595	15313
916.708	15393
916.82	15393
916.932	15264
917.044	15313
917.156	15195
917.268	15222
917.38	15287
917.491	15199
917.603	15203
917.715	15211
917.826	15268
917.938	15180
918.049	14975
918.161	15077
918.272	15188
918.384	15268
918.495	15138
918.606	15017
918.717	14819
918.828	14910
918.939	14883
919.05	14849
919.161	14880
919.272	14754
919.383	14785
919.494	14906
919.604	15127
919.715	14883
919.826	14826
919.936	14876
920.047	14906
920.157	14933
920.267	15055
920.378	14899
920.488	14758
920.598	15070
920.708	15135
920.818	15001
920.928	14895
921.038	15074
921.148	15074
921.258	14861
921.368	14773
921.477	14583
921.587	14560
921.697	14400
921.806	14541
921.916	14495
922.025	14317
922.134	14275
922.244	14161
922.353	14278
922.462	14126
922.571	14069
922.68	13871
922.789	13947
922.898	13879
923.007	13868
923.116	13883
923.224	13795
923.333	13826
923.442	13731
923.55	13605
923.659	13689
923.767	13723
923.876	13639
923.984	13753
924.092	13582
924.201	13662
924.309	13582
924.417	13681
924.525	13559
924.633	13468
924.741	14332
924.849	13350
924.956	13502
925.064	13335
925.172	13213
925.279	13266
925.387	13312
925.494	13247
925.602	13381
925.709	13274
925.816	13217
925.924	13152
926.031	13388
926.138	13198
926.245	13282
926.352	13076
926.459	13331
926.566	13415
926.673	13183
926.779	13069
926.886	13004
926.993	12867
927.099	12692
927.206	12783
927.312	12776
927.419	12871
927.525	12901
927.631	12833
927.737	12673
927.843	12669
927.95	12532
928.056	12616
928.162	12642
928.267	12738
928.373	13251
928.479	12741
928.585	12399
928.69	12547
928.796	12639
928.901	12471
929.007	12426
929.112	12475
929.218	12380
929.323	12380
929.428	12300
929.533	12437
929.638	12205
929.743	12323
929.848	12388
929.953	12277
930.058	12182
930.163	12011
930.267	12117
930.372	12254
930.477	12003
930.581	12247
930.685	12041
930.79	11961
930.894	11931
930.998	11916
931.103	11961
931.207	11630
931.311	11608
931.415	11516
931.519	11307
931.623	11368
