Data from test_V78500241_956.txt Node
Date: Fri Mar 25 15:16:30 CST 2022
User: usil
Spectrometer: V785-0024
Trigger mode: 0
Integration Time (sec): 4.000000E-1
Scans to average: 1
Nonlinearity correction enabled: false
Boxcar width: 0
Storing dark spectrum: false
XAxis mode: Wavelengths
Number of Pixels in Spectrum: 1024
>>>>>Begin Spectral Data<<<<<
801.071	28063
801.214	27823
801.356	27785
801.499	27751
801.641	27408
801.783	27599
801.926	27606
802.068	27469
802.211	27538
802.353	27443
802.496	27176
802.638	27058
802.78	27165
802.923	27203
803.065	27104
803.208	27093
803.35	27188
803.492	27245
803.635	27313
803.777	27203
803.919	27332
804.061	27652
804.204	27469
804.346	27355
804.488	27264
804.63	27298
804.773	27321
804.915	27466
805.057	27363
805.199	27488
805.341	27583
805.483	27576
805.626	27443
805.768	27534
805.91	27401
806.052	27576
806.194	27564
806.336	27686
806.478	27610
806.62	27507
806.762	27682
806.904	27800
807.046	28097
807.188	27854
807.33	27975
807.472	28029
807.614	27945
807.756	27926
807.898	27846
808.04	27759
808.182	27816
808.324	27861
808.465	27850
808.607	28131
808.749	28059
808.891	28238
809.033	28276
809.174	28287
809.316	28188
809.458	28112
809.6	28139
809.741	28211
809.883	28207
810.025	28531
810.166	28489
810.308	28451
810.45	28440
810.591	28204
810.733	28234
810.875	28234
811.016	28109
811.158	27991
811.299	28219
811.441	28265
811.582	28223
811.724	28154
811.865	28109
812.007	28158
812.148	28166
812.29	28181
812.431	28272
812.573	28565
812.714	28481
812.855	28615
812.997	28733
813.138	28949
813.279	28877
813.421	28710
813.562	28725
813.703	28466
813.845	28436
813.986	28063
814.127	27991
814.268	27861
814.41	27842
814.551	27789
814.692	27937
814.833	27759
814.974	27759
815.115	27949
815.256	27797
815.397	27709
815.539	27724
815.68	27564
815.821	27549
815.962	27701
816.103	27629
816.244	27679
816.385	27515
816.526	27416
816.666	27260
816.807	27245
816.948	27226
817.089	27355
817.23	27211
817.371	27195
817.512	27135
817.653	26994
817.793	27146
817.934	27184
818.075	27268
818.216	27131
818.356	27184
818.497	26944
818.638	26868
818.778	26872
818.919	27089
819.06	26933
819.2	27062
819.341	27298
819.481	27112
819.622	27374
819.762	27492
819.903	27477
820.043	27507
820.184	27306
820.324	27237
820.465	27545
820.605	27272
820.746	27317
820.886	27169
821.026	27230
821.167	27207
821.307	27336
821.447	27112
821.588	27051
821.728	26967
821.868	26914
822.008	26705
822.149	26564
822.289	26537
822.429	26412
822.569	26313
822.709	26385
822.849	26294
822.99	26313
823.13	26119
823.27	26096
823.41	25936
823.55	25845
823.69	26084
823.83	25932
823.97	25955
824.11	25860
824.25	25875
824.389	25902
824.529	25856
824.669	25890
824.809	25936
824.949	25898
825.089	25883
825.228	25852
825.368	25639
825.508	25750
825.648	25647
825.787	25814
825.927	25575
826.067	25693
826.206	25590
826.346	25639
826.485	25780
826.625	25658
826.765	25833
826.904	25677
827.044	25518
827.183	25510
827.323	25358
827.462	25483
827.601	25343
827.741	25415
827.88	25419
828.02	25434
828.159	25419
828.298	25464
828.437	25384
828.577	25449
828.716	25559
828.855	25407
828.994	25107
829.134	25171
829.273	25046
829.412	25084
829.551	25080
829.69	25069
829.829	25217
829.968	25171
830.107	25038
830.246	25023
830.385	25069
830.524	24905
830.663	24894
830.802	24734
830.941	24749
831.08	24604
831.219	24856
831.357	24856
831.496	24916
831.635	24688
831.774	24658
831.913	24658
832.051	24532
832.19	24342
832.329	24677
832.467	24403
832.606	24407
832.744	24289
832.883	24486
833.022	24479
833.16	24304
833.299	24505
833.437	24513
833.576	24460
833.714	24593
833.852	24479
833.991	24570
834.129	24532
834.267	24635
834.406	24445
834.544	24555
834.682	24422
834.821	24486
834.959	24654
835.097	24422
835.235	24410
835.373	24441
835.511	24540
835.65	24346
835.788	24330
835.926	24171
836.064	24060
836.202	24163
836.34	24296
836.478	24372
836.615	24407
836.753	24300
836.891	24422
837.029	24323
837.167	24232
837.305	24201
837.443	24235
837.58	24133
837.718	24190
837.856	24102
837.993	24133
838.131	24076
838.269	23950
838.406	23996
838.544	23950
838.681	23767
838.819	23843
838.956	23619
839.094	23585
839.231	23630
839.369	23699
839.506	23992
839.643	23870
839.781	23566
839.918	23630
840.055	23653
840.193	23589
840.33	23535
840.467	23554
840.604	23497
840.742	23821
840.879	23516
841.016	23395
841.153	23493
841.29	23577
841.427	23551
841.564	23531
841.701	23562
841.838	23478
841.975	23554
842.112	23501
842.249	23406
842.385	23277
842.522	23501
842.659	23376
842.796	23311
842.933	23383
843.069	23284
843.206	23269
843.343	23383
843.479	23284
843.616	23318
843.752	23048
843.889	23090
844.025	23200
844.162	23041
844.298	23121
844.435	23044
844.571	23048
844.708	23151
844.844	23140
844.98	23174
845.117	23242
845.253	22930
845.389	22889
845.525	22957
845.661	22892
845.798	22850
845.934	22736
846.07	22774
846.206	22854
846.342	22839
846.478	22672
846.614	22565
846.75	22466
846.886	22432
847.022	22618
847.158	22413
847.294	22649
847.429	22668
847.565	22649
847.701	22736
847.837	22325
847.972	22215
848.108	22367
848.244	22367
848.379	22173
848.515	22303
848.65	22059
848.786	22074
848.921	22067
849.057	22276
849.192	22253
849.328	22185
849.463	22090
849.598	22105
849.734	21941
849.869	21911
850.004	22067
850.14	21987
850.275	21960
850.41	21846
850.545	21857
850.68	21762
850.815	21903
850.95	21876
851.085	22040
851.22	22006
851.355	21926
851.49	21861
851.625	21880
851.76	21949
851.895	21812
852.03	21766
852.165	21876
852.299	21945
852.434	22002
852.569	21895
852.703	21857
852.838	21953
852.973	22002
853.107	21972
853.242	21789
853.376	21660
853.511	21610
853.645	21652
853.78	21804
853.914	21736
854.048	21819
854.183	21698
854.317	21641
854.451	21831
854.585	21789
854.72	21618
854.854	21778
854.988	21576
855.122	21770
855.256	21549
855.39	21682
855.524	21755
855.658	21724
855.792	21804
855.926	21778
856.06	21709
856.194	21751
856.327	21713
856.461	21698
856.595	21637
856.729	21713
856.862	21808
856.996	21682
857.13	21739
857.263	21774
857.397	21854
857.53	21629
857.664	21732
857.797	21793
857.931	21724
858.064	21816
858.197	21926
858.331	21701
858.464	21667
858.597	21656
858.731	21538
858.864	21797
858.997	21698
859.13	21751
859.263	21694
859.396	21781
859.529	21610
859.662	21732
859.795	21732
859.928	21618
860.061	21972
860.194	21873
860.327	21656
860.46	21717
860.592	21835
860.725	21797
860.858	21964
860.99	21682
861.123	21572
861.256	21736
861.388	21656
861.521	22455
861.653	21606
861.786	21507
861.918	21481
862.05	21568
862.183	21698
862.315	21675
862.447	21751
862.58	21561
862.712	21534
862.844	21530
862.976	21435
863.108	21595
863.24	21694
863.372	21211
863.504	21397
863.636	21359
863.768	21515
863.9	21336
864.032	21374
864.164	21344
864.296	21382
864.428	21526
864.559	21454
864.691	21511
864.823	21382
864.954	21473
865.086	21370
865.217	21378
865.349	21294
865.48	21268
865.612	21370
865.743	21412
865.875	21173
866.006	21370
866.137	21268
866.269	21443
866.4	21321
866.531	21241
866.662	21157
866.793	21192
866.924	21154
867.055	21344
867.186	21180
867.317	21214
867.448	21211
867.579	21195
867.71	21230
867.841	21165
867.972	21241
868.103	21291
868.233	21249
868.364	21256
868.495	21367
868.625	21389
868.756	21625
868.886	21443
869.017	21572
869.147	21557
869.278	21587
869.408	21397
869.539	21481
869.669	21458
869.799	21466
869.929	21610
870.06	21599
870.19	21808
870.32	21774
870.45	21774
870.58	21941
870.71	21953
870.84	21953
870.97	21797
871.1	21892
871.23	21998
871.36	22051
871.489	21888
871.619	22097
871.749	22166
871.879	22139
872.008	22116
872.138	22120
872.267	21972
872.397	21975
872.526	21869
872.656	21842
872.785	21918
872.915	22147
873.044	22169
873.173	22044
873.303	22105
873.432	22070
873.561	22154
873.69	22013
873.819	22010
873.948	22192
874.077	22067
874.206	22067
874.335	22116
874.464	22181
874.593	22280
874.722	22310
874.851	22291
874.979	22337
875.108	22272
875.237	22200
875.365	22154
875.494	22295
875.623	22489
875.751	22303
875.88	22405
876.008	22474
876.136	22577
876.265	22679
876.393	22801
876.521	22824
876.65	22809
876.778	22713
876.906	22653
877.034	22557
877.162	22717
877.29	22599
877.418	22862
877.546	22767
877.674	22698
877.802	22588
877.93	22611
878.058	22569
878.185	22561
878.313	22584
878.441	22626
878.568	22443
878.696	22607
878.824	22637
878.951	22687
879.079	22843
879.206	22892
879.333	22691
879.461	22653
879.588	22729
879.715	22850
879.842	22847
879.97	22831
880.097	22462
880.224	22466
880.351	22474
880.478	22436
880.605	22417
880.732	22360
880.859	22706
880.986	22371
881.112	22493
881.239	22284
881.366	22200
881.493	22067
881.619	22090
881.746	22067
881.872	22074
881.999	21975
882.125	22048
882.252	22029
882.378	22059
882.505	22204
882.631	21842
882.757	21781
882.883	21774
883.01	21709
883.136	21743
883.262	21606
883.388	21496
883.514	21812
883.64	21747
883.766	21656
883.892	21462
884.018	21511
884.143	21709
884.269	21759
884.395	21545
884.52	21283
884.646	21401
884.772	21397
884.897	21203
885.023	21275
885.148	21458
885.274	21496
885.399	21545
885.524	21344
885.65	21408
885.775	21355
885.9	21340
886.025	21439
886.15	21233
886.275	21272
886.4	21195
886.525	21435
886.65	21310
886.775	21359
886.9	21431
887.025	21526
887.149	21329
887.274	21211
887.399	21043
887.523	21184
887.648	21131
887.773	21036
887.897	21173
888.021	21077
888.146	21024
888.27	21218
888.395	21218
888.519	21237
888.643	21135
888.767	21291
888.891	20971
889.015	20918
889.139	21020
889.263	20918
889.387	21047
889.511	21302
889.635	20880
889.759	20963
889.883	20781
890.006	20952
890.13	21062
890.254	20849
890.377	20727
890.501	20689
890.624	20663
890.748	20724
890.871	20655
890.995	20564
891.118	20404
891.241	20583
891.364	20587
891.488	20590
891.611	20488
891.734	20526
891.857	20571
891.98	20556
892.103	20549
892.226	20518
892.349	20450
892.471	20263
892.594	20511
892.717	20294
892.839	20362
892.962	20374
893.085	20488
893.207	20408
893.33	20290
893.452	20324
893.575	20408
893.697	20404
893.819	20579
893.941	20545
894.064	20594
894.186	20351
894.308	20225
894.43	20381
894.552	20488
894.674	20450
894.796	20225
894.918	20415
895.04	20434
895.161	20385
895.283	20419
895.405	20256
895.526	20415
895.648	20336
895.769	20381
895.891	20355
896.012	20431
896.134	20415
896.255	20465
896.376	20339
896.498	20423
896.619	20431
896.74	20446
896.861	20389
896.982	20697
897.103	20777
897.224	20621
897.345	20632
897.466	20590
897.587	20667
897.708	20777
897.828	20473
897.949	20632
898.07	20374
898.19	20530
898.311	20651
898.431	20446
898.552	20579
898.672	20804
898.792	20533
898.913	20674
899.033	20514
899.153	20427
899.273	20218
899.393	20309
899.513	20408
899.633	20366
899.753	20370
899.873	20244
899.993	20320
900.113	20347
900.232	20237
900.352	20107
900.472	20252
900.591	19986
900.711	20103
900.83	20183
900.95	20126
901.069	20157
901.189	19993
901.308	19837
901.427	19643
901.546	19719
901.665	19769
901.784	19765
901.904	19472
902.023	19396
902.141	19316
902.26	19194
902.379	19297
902.498	19278
902.617	19236
902.735	19259
902.854	19122
902.973	19137
903.091	18954
903.21	18894
903.328	18848
903.446	18791
903.565	18791
903.683	18707
903.801	18513
903.919	18684
904.038	18601
904.156	18445
904.274	18578
904.392	18475
904.51	18361
904.627	18407
904.745	18467
904.863	18460
904.981	18159
905.098	18155
905.216	18064
905.334	18167
905.451	18163
905.569	18159
905.686	18178
905.803	18087
905.921	17878
906.038	17992
906.155	17939
906.272	17779
906.389	17870
906.506	17699
906.623	17627
906.74	17642
906.857	17570
906.974	17592
907.091	17649
907.208	17718
907.324	17661
907.441	17596
907.557	17322
907.674	17436
907.79	17330
907.907	17337
908.023	17360
908.139	17299
908.256	17315
908.372	17265
908.488	17242
908.604	17041
908.72	17094
908.836	17159
908.952	17121
909.068	17117
909.184	17193
909.3	17079
909.415	17155
909.531	17075
909.647	16869
909.762	16752
909.878	16786
909.993	16740
910.108	16774
910.224	16763
910.339	16835
910.454	16626
910.57	16538
910.685	16615
910.8	16706
910.915	16801
911.03	16455
911.145	16424
911.259	16394
911.374	16447
911.489	16295
911.604	16242
911.718	16177
911.833	16162
911.947	16032
912.062	15895
912.176	16124
912.291	16055
912.405	16036
912.519	16246
912.633	16303
912.748	16051
912.862	16071
912.976	15941
913.09	15876
913.204	15945
913.318	15983
913.431	15994
913.545	16048
913.659	15899
913.772	15991
913.886	15812
914	15701
914.113	15812
914.226	15804
914.34	15812
914.453	15606
914.566	15766
914.68	15743
914.793	15523
914.906	15481
915.019	15367
915.132	15230
915.245	15374
915.358	15351
915.47	15203
915.583	15283
915.696	15344
915.809	15313
915.921	15519
916.034	15272
916.146	15188
916.259	15218
916.371	15367
916.483	15195
916.595	15188
916.708	15173
916.82	15146
916.932	15116
917.044	15112
917.156	15062
917.268	15009
917.38	15001
917.491	14914
917.603	14868
917.715	15020
917.826	15013
917.938	14868
918.049	14811
918.161	14937
918.272	15020
918.384	14982
918.495	14941
918.606	14796
918.717	14670
918.828	14708
918.939	14758
919.05	14613
919.161	14701
919.272	14587
919.383	14617
919.494	14769
919.604	14902
919.715	14663
919.826	14640
919.936	14629
920.047	14788
920.157	14556
920.267	14883
920.378	14712
920.488	14632
920.598	14899
920.708	14967
920.818	14872
920.928	14800
921.038	15013
921.148	14910
921.258	14712
921.368	14511
921.477	14374
921.587	14377
921.697	14294
921.806	14408
921.916	14298
922.025	14081
922.134	14046
922.244	13963
922.353	14035
922.462	13947
922.571	13845
922.68	13772
922.789	13708
922.898	13723
923.007	13712
923.116	13734
923.224	13624
923.333	13628
923.442	13510
923.55	13556
923.659	13521
923.767	13559
923.876	13445
923.984	13502
924.092	13384
924.201	13540
924.309	13419
924.417	13480
924.525	13263
924.633	13324
924.741	14233
924.849	13171
924.956	13297
925.064	13107
925.172	12962
925.279	13076
925.387	13069
925.494	13084
925.602	13221
925.709	13202
925.816	13019
925.924	13042
926.031	13110
926.138	12993
926.245	13046
926.352	12970
926.459	13004
926.566	13099
926.673	12985
926.779	12833
926.886	12821
926.993	12688
927.099	12700
927.206	12490
927.312	12585
927.419	12650
927.525	12620
927.631	12669
927.737	12684
927.843	12547
927.95	12319
928.056	12631
928.162	12498
928.267	12570
928.373	13050
928.479	12555
928.585	12304
928.69	12372
928.796	12418
928.901	12277
929.007	12201
929.112	12235
929.218	12273
929.323	12182
929.428	12121
929.533	12350
929.638	12167
929.743	12140
929.848	12220
929.953	12197
930.058	12098
930.163	11851
930.267	11961
930.372	12022
930.477	11786
930.581	12003
930.685	11912
930.79	11798
930.894	11828
930.998	11642
931.103	11802
931.207	11505
931.311	11433
931.415	11444
931.519	11185
931.623	11220
