Data from test_V78500241_2932.txt Node
Date: Fri Mar 25 15:30:16 CST 2022
User: usil
Spectrometer: V785-0024
Trigger mode: 0
Integration Time (sec): 4.000000E-1
Scans to average: 1
Nonlinearity correction enabled: false
Boxcar width: 0
Storing dark spectrum: false
XAxis mode: Wavelengths
Number of Pixels in Spectrum: 1024
>>>>>Begin Spectral Data<<<<<
801.071	27249
801.214	27275
801.356	27066
801.499	27024
801.641	26693
801.783	26701
801.926	26800
802.068	26716
802.211	26800
802.353	26625
802.496	26507
802.638	26419
802.78	26503
802.923	26412
803.065	26218
803.208	26328
803.35	26484
803.492	26404
803.635	26644
803.777	26434
803.919	26613
804.061	26956
804.204	26701
804.346	26518
804.488	26469
804.63	26480
804.773	26564
804.915	26632
805.057	26674
805.199	26815
805.341	26724
805.483	26769
805.626	26689
805.768	26609
805.91	26617
806.052	26667
806.194	26670
806.336	26861
806.478	26727
806.62	26857
806.762	26788
806.904	26940
807.046	27173
807.188	27138
807.33	27085
807.472	27252
807.614	27089
807.756	27020
807.898	26944
808.04	26872
808.182	26895
808.324	26891
808.465	27039
808.607	27169
808.749	27260
808.891	27466
809.033	27454
809.174	27382
809.316	27256
809.458	27298
809.6	27310
809.741	27450
809.883	27306
810.025	27526
810.166	27583
810.308	27652
810.45	27595
810.591	27564
810.733	27427
810.875	27386
811.016	27199
811.158	27241
811.299	27496
811.441	27473
811.582	27606
811.724	27355
811.865	27279
812.007	27138
812.148	27302
812.29	27279
812.431	27348
812.573	27682
812.714	27648
812.855	27736
812.997	27857
813.138	28025
813.279	27975
813.421	27911
813.562	27713
813.703	27610
813.845	27450
813.986	27199
814.127	27233
814.268	27150
814.41	27009
814.551	26834
814.692	27066
814.833	27009
814.974	26982
815.115	27104
815.256	27001
815.397	26857
815.539	26937
815.68	26834
815.821	26739
815.962	26739
816.103	26727
816.244	26575
816.385	26503
816.526	26396
816.666	26252
816.807	26199
816.948	26298
817.089	26427
817.23	26286
817.371	26149
817.512	26393
817.653	26191
817.793	26081
817.934	26320
818.075	26252
818.216	26176
818.356	26218
818.497	26126
818.638	25894
818.778	25868
818.919	25959
819.06	26046
819.2	26115
819.341	26370
819.481	26206
819.622	26218
819.762	26587
819.903	26575
820.043	26339
820.184	26298
820.324	26343
820.465	26370
820.605	26366
820.746	26218
820.886	26168
821.026	26313
821.167	26237
821.307	26305
821.447	26142
821.588	26122
821.728	25909
821.868	25803
822.008	25753
822.149	25731
822.289	25662
822.429	25381
822.569	25228
822.709	25343
822.849	25304
822.99	25137
823.13	25091
823.27	25076
823.41	24909
823.55	24890
823.69	25099
823.83	25019
823.97	25015
824.11	24806
824.25	24810
824.389	24798
824.529	24970
824.669	24928
824.809	24932
824.949	24882
825.089	24951
825.228	24844
825.368	24677
825.508	24612
825.648	24772
825.787	24654
825.927	24741
826.067	24593
826.206	24620
826.346	24623
826.485	24734
826.625	24601
826.765	24734
826.904	24673
827.044	24471
827.183	24369
827.323	24399
827.462	24429
827.601	24464
827.741	24346
827.88	24311
828.02	24403
828.159	24350
828.298	24346
828.437	24338
828.577	24201
828.716	24494
828.855	24289
828.994	24136
829.134	24121
829.273	24072
829.412	24026
829.551	23996
829.69	24117
829.829	24224
829.968	24140
830.107	24292
830.246	24125
830.385	23992
830.524	24015
830.663	23969
830.802	23866
830.941	23687
831.08	23608
831.219	23802
831.357	23779
831.496	23950
831.635	23592
831.774	23486
831.913	23497
832.051	23406
832.19	23474
832.329	23402
832.467	23337
832.606	23353
832.744	23353
832.883	23425
833.022	23307
833.16	23280
833.299	23436
833.437	23368
833.576	23391
833.714	23490
833.852	23444
833.991	23471
834.129	23417
834.267	23520
834.406	23387
834.544	23493
834.682	23425
834.821	23345
834.959	23577
835.097	23334
835.235	23490
835.373	23337
835.511	23360
835.65	23299
835.788	23372
835.926	23155
836.064	23105
836.202	23132
836.34	23216
836.478	23227
836.615	23288
836.753	23204
836.891	23330
837.029	23326
837.167	23159
837.305	23269
837.443	23090
837.58	23185
837.718	23193
837.856	23159
837.993	22991
838.131	23044
838.269	22953
838.406	22953
838.544	22908
838.681	22618
838.819	22702
838.956	22656
839.094	22542
839.231	22538
839.369	22710
839.506	22911
839.643	22691
839.781	22626
839.918	22550
840.055	22691
840.193	22542
840.33	22523
840.467	22436
840.604	22428
840.742	22679
840.879	22478
841.016	22436
841.153	22268
841.29	22519
841.427	22481
841.564	22588
841.701	22561
841.838	22474
841.975	22310
842.112	22398
842.249	22341
842.385	22333
842.522	22451
842.659	22352
842.796	22196
842.933	22318
843.069	22147
843.206	22234
843.343	22375
843.479	22291
843.616	22207
843.752	22036
843.889	22040
844.025	22169
844.162	21975
844.298	22128
844.435	22097
844.571	22025
844.708	21907
844.844	22120
844.98	22200
845.117	22166
845.253	21953
845.389	21835
845.525	22032
845.661	21827
845.798	21694
845.934	21724
846.07	21675
846.206	21781
846.342	21838
846.478	21838
846.614	21564
846.75	21553
846.886	21397
847.022	21580
847.158	21428
847.294	21587
847.429	21542
847.565	21439
847.701	21736
847.837	21100
847.972	21294
848.108	21302
848.244	21268
848.379	21058
848.515	21077
848.65	21039
848.786	21066
848.921	21108
849.057	21176
849.192	21096
849.328	21146
849.463	21142
849.598	21085
849.734	21032
849.869	20914
850.004	20842
850.14	20811
850.275	20902
850.41	20781
850.545	20899
850.68	20819
850.815	20872
850.95	20842
851.085	21051
851.22	20967
851.355	20834
851.49	20807
851.625	20868
851.76	20792
851.895	20777
852.03	20773
852.165	20819
852.299	20899
852.434	20994
852.569	20826
852.703	20754
852.838	20830
852.973	20975
853.107	20944
853.242	20686
853.376	20678
853.511	20564
853.645	20648
853.78	20720
853.914	20735
854.048	20583
854.183	20678
854.317	20720
854.451	20815
854.585	20648
854.72	20594
854.854	20785
854.988	20606
855.122	20667
855.256	20526
855.39	20621
855.524	20735
855.658	20792
855.792	20670
855.926	20686
856.06	20876
856.194	20826
856.327	20716
856.461	20594
856.595	20636
856.729	20693
856.862	20731
856.996	20651
857.13	20678
857.263	20815
857.397	20705
857.53	20602
857.664	20667
857.797	20678
857.931	20724
858.064	20788
858.197	20735
858.331	20617
858.464	20602
858.597	20533
858.731	20670
858.864	20606
858.997	20693
859.13	20762
859.263	20750
859.396	20880
859.529	20518
859.662	20659
859.795	20720
859.928	20708
860.061	20788
860.194	20849
860.327	20625
860.46	20701
860.592	20739
860.725	20804
860.858	20724
860.99	20735
861.123	20594
861.256	20583
861.388	20651
861.521	21211
861.653	20469
861.786	20370
861.918	20469
862.05	20446
862.183	20655
862.315	20621
862.447	20651
862.58	20590
862.712	20446
862.844	20381
862.976	20530
863.108	20366
863.24	20872
863.372	20336
863.504	20366
863.636	20446
863.768	20469
863.9	20381
864.032	20210
864.164	20294
864.296	20282
864.428	20560
864.559	20526
864.691	20431
864.823	20256
864.954	20278
865.086	20317
865.217	20358
865.349	20176
865.48	20355
865.612	20202
865.743	20404
865.875	20385
866.006	20214
866.137	20290
866.269	20271
866.4	20259
866.531	20134
866.662	20199
866.793	20214
866.924	20351
867.055	20240
867.186	20149
867.317	20237
867.448	20111
867.579	20229
867.71	20142
867.841	20233
867.972	20187
868.103	20237
868.233	20305
868.364	20259
868.495	20309
868.625	20400
868.756	20613
868.886	20355
869.017	20366
869.147	20549
869.278	20522
869.408	20476
869.539	20431
869.669	20503
869.799	20465
869.929	20480
870.06	20594
870.19	20674
870.32	20724
870.45	20845
870.58	20872
870.71	21020
870.84	20960
870.97	20902
871.1	20796
871.23	20918
871.36	21112
871.489	21013
871.619	21157
871.749	21070
871.879	21104
872.008	21241
872.138	21001
872.267	21070
872.397	20883
872.526	20944
872.656	20876
872.785	21017
872.915	21100
873.044	21287
873.173	21146
873.303	21207
873.432	20952
873.561	21165
873.69	21203
873.819	21051
873.948	20944
874.077	21100
874.206	21020
874.335	21108
874.464	21123
874.593	21317
874.722	21249
874.851	21393
874.979	21401
875.108	21329
875.237	21393
875.365	21294
875.494	21226
875.623	21272
875.751	21370
875.88	21485
876.008	21485
876.136	21519
876.265	21778
876.393	21895
876.521	21766
876.65	21778
876.778	21667
876.906	21698
877.034	21694
877.162	21800
877.29	21679
877.418	21713
877.546	21736
877.674	21648
877.802	21682
877.93	21720
878.058	21587
878.185	21614
878.313	21622
878.441	21701
878.568	21538
878.696	21682
878.824	21732
878.951	21701
879.079	21736
879.206	22055
879.333	21823
879.461	21637
879.588	21717
879.715	21800
879.842	21975
879.97	21732
880.097	21469
880.224	21462
880.351	21443
880.478	21462
880.605	21340
880.732	21443
880.859	21747
880.986	21549
881.112	21572
881.239	21435
881.366	21214
881.493	21218
881.619	21161
881.746	21131
881.872	21161
881.999	21116
882.125	21100
882.252	21005
882.378	21089
882.505	21161
882.631	21036
882.757	20826
882.883	20864
883.01	20823
883.136	20720
883.262	20617
883.388	20606
883.514	20788
883.64	20910
883.766	20739
883.892	20617
884.018	20659
884.143	20651
884.269	20769
884.395	20450
884.52	20457
884.646	20450
884.772	20476
884.897	20324
885.023	20488
885.148	20545
885.274	20727
885.399	20689
885.524	20480
885.65	20396
885.775	20446
885.9	20377
886.025	20522
886.15	20552
886.275	20431
886.4	20275
886.525	20286
886.65	20362
886.775	20374
886.9	20507
887.025	20530
887.149	20560
887.274	20237
887.399	20267
887.523	20195
887.648	20157
887.773	20176
887.897	20191
888.021	20332
888.146	20278
888.27	20332
888.395	20282
888.519	20271
888.643	20324
888.767	20309
888.891	20180
889.015	19970
889.139	20005
889.263	20100
889.387	20244
889.511	20263
889.635	20183
889.759	19963
889.883	20016
890.006	19978
890.13	20035
890.254	20039
890.377	20008
890.501	19875
890.624	19685
890.748	19776
890.871	19719
890.995	19613
891.118	19578
891.241	19597
891.364	19563
891.488	19811
891.611	19594
891.734	19540
891.857	19540
891.98	19723
892.103	19666
892.226	19445
892.349	19616
892.471	19533
892.594	19483
892.717	19632
892.839	19533
892.962	19613
893.085	19609
893.207	19457
893.33	19403
893.452	19400
893.575	19594
893.697	19457
893.819	19670
893.941	19727
894.064	19700
894.186	19457
894.308	19426
894.43	19609
894.552	19639
894.674	19613
894.796	19396
894.918	19403
895.04	19468
895.161	19578
895.283	19563
895.405	19400
895.526	19453
895.648	19388
895.769	19460
895.891	19499
896.012	19544
896.134	19635
896.255	19472
896.376	19419
896.498	19597
896.619	19578
896.74	19548
896.861	19609
896.982	19818
897.103	19963
897.224	19780
897.345	19674
897.466	19765
897.587	19734
897.708	19967
897.828	19841
897.949	19696
898.07	19670
898.19	19635
898.311	19784
898.431	19784
898.552	19734
898.672	19841
898.792	19951
898.913	19712
899.033	19677
899.153	19548
899.273	19525
899.393	19655
899.513	19681
899.633	19533
899.753	19556
899.873	19350
899.993	19647
900.113	19514
900.232	19514
900.352	19438
900.472	19362
900.591	19285
900.711	19373
900.83	19297
900.95	19468
901.069	19365
901.189	19259
901.308	19031
901.427	18905
901.546	19023
901.665	18852
901.784	18973
901.904	18798
902.023	18669
902.141	18494
902.26	18391
902.379	18448
902.498	18441
902.617	18414
902.735	18509
902.854	18380
902.973	18361
903.091	18117
903.21	18190
903.328	18102
903.446	18057
903.565	17908
903.683	17912
903.801	17767
903.919	17813
904.038	17935
904.156	17699
904.274	17718
904.392	17718
904.51	17695
904.627	17604
904.745	17680
904.863	17687
904.981	17493
905.098	17303
905.216	17376
905.334	17273
905.451	17303
905.569	17277
905.686	17376
905.803	17364
905.921	17010
906.038	17128
906.155	17216
906.272	16930
906.389	16946
906.506	16812
906.623	16900
906.74	16847
906.857	16850
906.974	16839
907.091	16968
907.208	17075
907.324	16934
907.441	16885
907.557	16660
907.674	16615
907.79	16649
907.907	16622
908.023	16615
908.139	16497
908.256	16561
908.372	16508
908.488	16512
908.604	16371
908.72	16337
908.836	16314
908.952	16360
909.068	16272
909.184	16538
909.3	16299
909.415	16341
909.531	16398
909.647	16086
909.762	16051
909.878	16040
909.993	16055
910.108	16013
910.224	15987
910.339	15953
910.454	15823
910.57	15835
910.685	15778
910.8	16071
910.915	15972
911.03	15850
911.145	15705
911.259	15568
911.374	15606
911.489	15622
911.604	15572
911.718	15458
911.833	15393
911.947	15340
912.062	15283
912.176	15473
912.291	15466
912.405	15412
912.519	15587
912.633	15698
912.748	15450
912.862	15329
912.976	15233
913.09	15089
913.204	15146
913.318	15264
913.431	15329
913.545	15226
913.659	15245
913.772	15252
913.886	15028
914	15043
914.113	15028
914.226	15100
914.34	14975
914.453	14925
914.566	15108
914.68	14918
914.793	14986
914.906	14705
915.019	14625
915.132	14552
915.245	14598
915.358	14739
915.47	14693
915.583	14579
915.696	14644
915.809	14708
915.921	14838
916.034	14629
916.146	14522
916.259	14507
916.371	14693
916.483	14625
916.595	14438
916.708	14545
916.82	14556
916.932	14381
917.044	14408
917.156	14408
917.268	14305
917.38	14446
917.491	14259
917.603	14351
917.715	14427
917.826	14442
917.938	14248
918.049	14187
918.161	14271
918.272	14427
918.384	14358
918.495	14278
918.606	14218
918.717	14035
918.828	14103
918.939	14088
919.05	13989
919.161	13986
919.272	13913
919.383	13944
919.494	14202
919.604	14263
919.715	14123
919.826	13959
919.936	14031
920.047	14180
920.157	14081
920.267	14278
920.378	14069
920.488	14005
920.598	14225
920.708	14305
920.818	14294
920.928	14206
921.038	14396
921.148	14339
921.258	14096
921.368	13936
921.477	13982
921.587	13677
921.697	13731
921.806	13841
921.916	13639
922.025	13575
922.134	13438
922.244	13491
922.353	13521
922.462	13384
922.571	13278
922.68	13179
922.789	13091
922.898	13133
923.007	13027
923.116	13160
923.224	13076
923.333	13057
923.442	13027
923.55	12977
923.659	12909
923.767	12970
923.876	12882
923.984	12989
924.092	12837
924.201	12913
924.309	12981
924.417	12867
924.525	12856
924.633	12772
924.741	13674
924.849	12585
924.956	12741
925.064	12650
925.172	12540
925.279	12464
925.387	12589
925.494	12563
925.602	12654
925.709	12601
925.816	12464
925.924	12555
926.031	12502
926.138	12574
926.245	12513
926.352	12410
926.459	12578
926.566	12532
926.673	12372
926.779	12342
926.886	12319
926.993	12190
927.099	12155
927.206	12087
927.312	12167
927.419	12159
927.525	12129
927.631	12178
927.737	11999
927.843	12030
927.95	11843
928.056	11973
928.162	12060
928.267	12015
928.373	12608
928.479	12114
928.585	11752
928.69	11882
928.796	11931
928.901	11828
929.007	11718
929.112	11859
929.218	11794
929.323	11714
929.428	11646
929.533	11851
929.638	11581
929.743	11600
929.848	11775
929.953	11596
930.058	11573
930.163	11372
930.267	11433
930.372	11471
930.477	11440
930.581	11623
930.685	11486
930.79	11265
930.894	11265
930.998	11273
931.103	11410
931.207	11117
931.311	10991
931.415	10858
931.519	10672
931.623	10645
