Data from test_V78500241_908.txt Node
Date: Fri Mar 25 15:16:10 CST 2022
User: usil
Spectrometer: V785-0024
Trigger mode: 0
Integration Time (sec): 4.000000E-1
Scans to average: 1
Nonlinearity correction enabled: false
Boxcar width: 0
Storing dark spectrum: false
XAxis mode: Wavelengths
Number of Pixels in Spectrum: 1024
>>>>>Begin Spectral Data<<<<<
801.071	28246
801.214	28158
801.356	27968
801.499	27922
801.641	27762
801.783	27751
801.926	27850
802.068	27739
802.211	27629
802.353	27808
802.496	27329
802.638	27469
802.78	27545
802.923	27488
803.065	27340
803.208	27363
803.35	27462
803.492	27682
803.635	27622
803.777	27549
803.919	27736
804.061	27789
804.204	27701
804.346	27648
804.488	27587
804.63	27591
804.773	27545
804.915	27701
805.057	27762
805.199	27599
805.341	27823
805.483	27903
805.626	27876
805.768	27671
805.91	27686
806.052	27789
806.194	27709
806.336	27903
806.478	27918
806.62	27747
806.762	27926
806.904	28055
807.046	28314
807.188	28348
807.33	28280
807.472	28253
807.614	28139
807.756	28192
807.898	28143
808.04	28101
808.182	28128
808.324	28032
808.465	28150
808.607	28249
808.749	28440
808.891	28542
809.033	28748
809.174	28485
809.316	28428
809.458	28542
809.6	28519
809.741	28561
809.883	28733
810.025	28854
810.166	28702
810.308	28740
810.45	28729
810.591	28538
810.733	28500
810.875	28542
811.016	28413
811.158	28398
811.299	28500
811.441	28588
811.582	28793
811.724	28599
811.865	28554
812.007	28542
812.148	28611
812.29	28603
812.431	28683
812.573	28748
812.714	28873
812.855	29060
812.997	29143
813.138	29220
813.279	29117
813.421	29151
813.562	29143
813.703	28793
813.845	28911
813.986	28470
814.127	28207
814.268	28234
814.41	28287
814.551	28265
814.692	28333
814.833	28185
814.974	28074
815.115	28287
815.256	28032
815.397	28093
815.539	28139
815.68	27975
815.821	27956
815.962	28002
816.103	28059
816.244	27861
816.385	27838
816.526	27850
816.666	27637
816.807	27545
816.948	27633
817.089	27519
817.23	27599
817.371	27576
817.512	27561
817.653	27416
817.793	27656
817.934	27488
818.075	27732
818.216	27622
818.356	27519
818.497	27359
818.638	27355
818.778	27443
818.919	27279
819.06	27450
819.2	27450
819.341	27564
819.481	27663
819.622	27660
819.762	27808
819.903	27728
820.043	27720
820.184	27599
820.324	27606
820.465	27610
820.605	27797
820.746	27679
820.886	27447
821.026	27641
821.167	27557
821.307	27671
821.447	27496
821.588	27393
821.728	27355
821.868	27070
822.008	26857
822.149	26956
822.289	26990
822.429	26800
822.569	26781
822.709	26674
822.849	26640
822.99	26667
823.13	26446
823.27	26473
823.41	26427
823.55	26256
823.69	26419
823.83	26427
823.97	26271
824.11	26084
824.25	26275
824.389	26195
824.529	26355
824.669	26142
824.809	26355
824.949	26286
825.089	26256
825.228	26191
825.368	26001
825.508	26020
825.648	26191
825.787	26077
825.927	26130
826.067	26058
826.206	25963
826.346	26115
826.485	26058
826.625	25917
826.765	26161
826.904	26005
827.044	25913
827.183	25784
827.323	25830
827.462	25784
827.601	25780
827.741	25890
827.88	25837
828.02	25734
828.159	25738
828.298	25841
828.437	25849
828.577	25605
828.716	25803
828.855	25670
828.994	25597
829.134	25552
829.273	25540
829.412	25525
829.551	25582
829.69	25403
829.829	25582
829.968	25548
830.107	25639
830.246	25441
830.385	25468
830.524	25384
830.663	25316
830.802	25297
830.941	25080
831.08	25194
831.219	25114
831.357	25072
831.496	25487
831.635	25164
831.774	25076
831.913	24996
832.051	24939
832.19	24867
832.329	24825
832.467	24810
832.606	24741
832.744	24814
832.883	24856
833.022	24859
833.16	24787
833.299	24890
833.437	24817
833.576	24821
833.714	24897
833.852	24882
833.991	24909
834.129	24973
834.267	24977
834.406	24954
834.544	24863
834.682	24825
834.821	24905
834.959	25076
835.097	24806
835.235	24909
835.373	24776
835.511	24890
835.65	24749
835.788	24719
835.926	24627
836.064	24467
836.202	24544
836.34	24620
836.478	24772
836.615	24696
836.753	24620
836.891	24707
837.029	24821
837.167	24700
837.305	24460
837.443	24585
837.58	24631
837.718	24570
837.856	24536
837.993	24422
838.131	24578
838.269	24437
838.406	24391
838.544	24376
838.681	24190
838.819	24083
838.956	24038
839.094	23977
839.231	24034
839.369	24194
839.506	24304
839.643	24311
839.781	23977
839.918	23992
840.055	23961
840.193	23984
840.33	23939
840.467	23832
840.604	23961
840.742	24106
840.879	23802
841.016	23897
841.153	23779
841.29	24060
841.427	23897
841.564	23939
841.701	23908
841.838	23798
841.975	23790
842.112	23802
842.249	23699
842.385	23638
842.522	23863
842.659	23646
842.796	23573
842.933	23741
843.069	23760
843.206	23490
843.343	23783
843.479	23691
843.616	23634
843.752	23417
843.889	23478
844.025	23680
844.162	23478
844.298	23623
844.435	23467
844.571	23383
844.708	23509
844.844	23558
844.98	23551
845.117	23490
845.253	23391
845.389	23414
845.525	23383
845.661	23364
845.798	23254
845.934	23223
846.07	23113
846.206	23147
846.342	23181
846.478	23140
846.614	22889
846.75	22774
846.886	22889
847.022	23060
847.158	22965
847.294	22862
847.429	22839
847.565	22816
847.701	23166
847.837	22645
847.972	22645
848.108	22634
848.244	22668
848.379	22626
848.515	22508
848.65	22432
848.786	22459
848.921	22580
849.057	22634
849.192	22668
849.328	22466
849.463	22561
849.598	22394
849.734	22402
849.869	22451
850.004	22261
850.14	22265
850.275	22249
850.41	22036
850.545	22200
850.68	22112
850.815	22314
850.95	22268
851.085	22371
851.22	22394
851.355	22230
851.49	22306
851.625	22230
851.76	22238
851.895	22124
852.03	22249
852.165	22341
852.299	22200
852.434	22314
852.569	22211
852.703	22257
852.838	22287
852.973	22398
853.107	22436
853.242	22158
853.376	22162
853.511	22067
853.645	22059
853.78	22287
853.914	22029
854.048	21968
854.183	21975
854.317	22059
854.451	22268
854.585	22135
854.72	22036
854.854	22029
854.988	21926
855.122	22048
855.256	21949
855.39	22082
855.524	22082
855.658	21983
855.792	21983
855.926	22215
856.06	22063
856.194	22329
856.327	22013
856.461	21983
856.595	22040
856.729	22154
856.862	22135
856.996	22082
857.13	21945
857.263	22192
857.397	22211
857.53	22112
857.664	21979
857.797	22173
857.931	22219
858.064	22105
858.197	22249
858.331	21934
858.464	22070
858.597	21884
858.731	21991
858.864	21960
858.997	21865
859.13	22029
859.263	22097
859.396	22124
859.529	22063
859.662	22048
859.795	21911
859.928	21953
860.061	22143
860.194	22238
860.327	22059
860.46	22166
860.592	22196
860.725	22162
860.858	22188
860.99	22082
861.123	21869
861.256	22051
861.388	21987
861.521	22740
861.653	21991
861.786	21854
861.918	21857
862.05	21850
862.183	22093
862.315	21972
862.447	22135
862.58	21956
862.712	21838
862.844	21682
862.976	21766
863.108	21701
863.24	22177
863.372	21641
863.504	21781
863.636	21732
863.768	21679
863.9	21728
864.032	21622
864.164	21766
864.296	21934
864.428	21690
864.559	21827
864.691	21812
864.823	21713
864.954	21755
865.086	21812
865.217	21698
865.349	21663
865.48	21747
865.612	21652
865.743	21793
865.875	21709
866.006	21694
866.137	21660
866.269	21610
866.4	21694
866.531	21701
866.662	21587
866.793	21561
866.924	21485
867.055	21580
867.186	21542
867.317	21485
867.448	21435
867.579	21553
867.71	21397
867.841	21485
867.972	21553
868.103	21629
868.233	21534
868.364	21572
868.495	21679
868.625	21850
868.756	21960
868.886	21698
869.017	21899
869.147	21850
869.278	21857
869.408	21819
869.539	21701
869.669	21873
869.799	21903
869.929	21899
870.06	21915
870.19	22135
870.32	22143
870.45	22051
870.58	22261
870.71	22238
870.84	22295
870.97	22230
871.1	22322
871.23	22295
871.36	22466
871.489	22310
871.619	22303
871.749	22344
871.879	22470
872.008	22527
872.138	22405
872.267	22371
872.397	22238
872.526	22154
872.656	22128
872.785	22280
872.915	22337
873.044	22432
873.173	22375
873.303	22428
873.432	22512
873.561	22535
873.69	22451
873.819	22352
873.948	22493
874.077	22493
874.206	22386
874.335	22432
874.464	22447
874.593	22713
874.722	22516
874.851	22584
874.979	22733
875.108	22698
875.237	22615
875.365	22569
875.494	22656
875.623	22668
875.751	22664
875.88	22546
876.008	22805
876.136	22748
876.265	23003
876.393	23041
876.521	23071
876.65	23048
876.778	23086
876.906	22923
877.034	22991
877.162	22942
877.29	22889
877.418	22999
877.546	22987
877.674	22938
877.802	22949
877.93	23003
878.058	22968
878.185	22850
878.313	22923
878.441	22946
878.568	22809
878.696	22957
878.824	22980
878.951	23117
879.079	23044
879.206	23349
879.333	23105
879.461	23014
879.588	23083
879.715	23109
879.842	23284
879.97	22946
880.097	22721
880.224	22911
880.351	22771
880.478	22733
880.605	22740
880.732	22790
880.859	23033
880.986	22774
881.112	22828
881.239	22668
881.366	22535
881.493	22527
881.619	22329
881.746	22322
881.872	22325
881.999	22268
882.125	22398
882.252	22284
882.378	22325
882.505	22287
882.631	22166
882.757	22055
882.883	22158
883.01	21964
883.136	22017
883.262	22040
883.388	21937
883.514	22013
883.64	22124
883.766	22021
883.892	21838
884.018	21812
884.143	21903
884.269	22051
884.395	21778
884.52	21603
884.646	21762
884.772	21595
884.897	21572
885.023	21618
885.148	21816
885.274	21778
885.399	21724
885.524	21583
885.65	21583
885.775	21583
885.9	21701
886.025	21797
886.15	21724
886.275	21686
886.4	21622
886.525	21637
886.65	21694
886.775	21644
886.9	21686
887.025	21812
887.149	21622
887.274	21462
887.399	21431
887.523	21454
887.648	21306
887.773	21370
887.897	21481
888.021	21473
888.146	21374
888.27	21564
888.395	21534
888.519	21424
888.643	21450
888.767	21485
888.891	21424
889.015	21252
889.139	21332
889.263	21340
889.387	21249
889.511	21405
889.635	21332
889.759	21165
889.883	21233
890.006	21264
890.13	21279
890.254	21173
890.377	21161
890.501	21013
890.624	20872
890.748	21043
890.871	20804
890.995	20842
891.118	20758
891.241	20834
891.364	20823
891.488	20902
891.611	20811
891.734	20963
891.857	20815
891.98	20823
892.103	20819
892.226	20819
892.349	20773
892.471	20587
892.594	20800
892.717	20693
892.839	20693
892.962	20716
893.085	20769
893.207	20636
893.33	20579
893.452	20507
893.575	20743
893.697	20636
893.819	20716
893.941	20887
894.064	20754
894.186	20663
894.308	20530
894.43	20811
894.552	20746
894.674	20792
894.796	20609
894.918	20693
895.04	20564
895.161	20670
895.283	20727
895.405	20613
895.526	20575
895.648	20636
895.769	20686
895.891	20712
896.012	20826
896.134	20785
896.255	20621
896.376	20613
896.498	20613
896.619	20594
896.74	20609
896.861	20693
896.982	20941
897.103	21077
897.224	20880
897.345	20864
897.466	20868
897.587	20819
897.708	20914
897.828	20842
897.949	20758
898.07	20708
898.19	20838
898.311	20933
898.431	20849
898.552	20864
898.672	20906
898.792	20960
898.913	20868
899.033	20724
899.153	20613
899.273	20549
899.393	20541
899.513	20552
899.633	20541
899.753	20594
899.873	20545
899.993	20727
900.113	20640
900.232	20606
900.352	20446
900.472	20324
900.591	20393
900.711	20396
900.83	20370
900.95	20381
901.069	20408
901.189	20218
901.308	20088
901.427	19917
901.546	19963
901.665	20031
901.784	20050
901.904	19830
902.023	19727
902.141	19559
902.26	19502
902.379	19510
902.498	19491
902.617	19411
902.735	19384
902.854	19362
902.973	19365
903.091	19099
903.21	19091
903.328	19088
903.446	19053
903.565	18932
903.683	18886
903.801	18833
903.919	18913
904.038	18833
904.156	18711
904.274	18779
904.392	18642
904.51	18585
904.627	18738
904.745	18722
904.863	18764
904.981	18296
905.098	18346
905.216	18258
905.334	18357
905.451	18292
905.569	18361
905.686	18403
905.803	18315
905.921	18125
906.038	18273
906.155	18201
906.272	18053
906.389	18087
906.506	18022
906.623	17885
906.74	17882
906.857	17699
906.974	17802
907.091	17927
907.208	17988
907.324	17901
907.441	17840
907.557	17554
907.674	17634
907.79	17467
907.907	17661
908.023	17573
908.139	17547
908.256	17623
908.372	17436
908.488	17421
908.604	17421
908.72	17322
908.836	17299
908.952	17318
909.068	17284
909.184	17376
909.3	17265
909.415	17197
909.531	17307
909.647	16919
909.762	17056
909.878	17037
909.993	16995
910.108	16987
910.224	16900
910.339	16991
910.454	16927
910.57	16843
910.685	16717
910.8	16953
910.915	16984
911.03	16729
911.145	16531
911.259	16596
911.374	16615
911.489	16516
911.604	16409
911.718	16333
911.833	16284
911.947	16314
912.062	16166
912.176	16242
912.291	16268
912.405	16371
912.519	16550
912.633	16462
912.748	16398
912.862	16440
912.976	16219
913.09	16029
913.204	16181
913.318	16131
913.431	16249
913.545	16234
913.659	16185
913.772	15979
913.886	15968
914	15876
914.113	15964
914.226	16093
914.34	16006
914.453	15804
914.566	15983
914.68	15975
914.793	15781
914.906	15591
915.019	15534
915.132	15504
915.245	15625
915.358	15584
915.47	15526
915.583	15504
915.696	15603
915.809	15610
915.921	15618
916.034	15466
916.146	15488
916.259	15424
916.371	15564
916.483	15473
916.595	15397
916.708	15393
916.82	15329
916.932	15317
917.044	15408
917.156	15317
917.268	15100
917.38	15218
917.491	15203
917.603	15157
917.715	15397
917.826	15169
917.938	15142
918.049	14937
918.161	15184
918.272	15321
918.384	15268
918.495	15173
918.606	14845
918.717	14815
918.828	14975
918.939	15043
919.05	14857
919.161	14834
919.272	14606
919.383	14807
919.494	14952
919.604	15093
919.715	14899
919.826	14830
919.936	14963
920.047	14872
920.157	14864
920.267	15058
920.378	14891
920.488	14921
920.598	15005
920.708	15256
920.818	15104
920.928	15074
921.038	15108
921.148	15165
921.258	14857
921.368	14693
921.477	14636
921.587	14636
921.697	14385
921.806	14610
921.916	14431
922.025	14282
922.134	14229
922.244	14172
922.353	14233
922.462	14035
922.571	14024
922.68	13951
922.789	13811
922.898	13913
923.007	13833
923.116	13871
923.224	13860
923.333	13818
923.442	13693
923.55	13616
923.659	13776
923.767	13841
923.876	13658
923.984	13769
924.092	13674
924.201	13651
924.309	13655
924.417	13609
924.525	13521
924.633	13613
924.741	14275
924.849	13312
924.956	13468
925.064	13327
925.172	13187
925.279	13236
925.387	13384
925.494	13350
925.602	13415
925.709	13331
925.816	13160
925.924	13206
926.031	13343
926.138	13213
926.245	13259
926.352	13118
926.459	13168
926.566	13304
926.673	13114
926.779	13095
926.886	12996
926.993	12905
927.099	12875
927.206	12658
927.312	12757
927.419	12897
927.525	12852
927.631	12878
927.737	12707
927.843	12757
927.95	12593
928.056	12673
928.162	12650
928.267	12616
928.373	13282
928.479	12677
928.585	12426
928.69	12551
928.796	12719
928.901	12483
929.007	12342
929.112	12494
929.218	12479
929.323	12403
929.428	12369
929.533	12532
929.638	12300
929.743	12330
929.848	12384
929.953	12319
930.058	12171
930.163	12140
930.267	12003
930.372	12201
930.477	12064
930.581	12197
930.685	12140
930.79	11961
930.894	11958
930.998	11908
931.103	11988
931.207	11615
931.311	11623
931.415	11539
931.519	11311
931.623	11299
