Data from test_V78500241_1616.txt Node
Date: Fri Mar 25 15:21:06 CST 2022
User: usil
Spectrometer: V785-0024
Trigger mode: 0
Integration Time (sec): 4.000000E-1
Scans to average: 1
Nonlinearity correction enabled: false
Boxcar width: 0
Storing dark spectrum: false
XAxis mode: Wavelengths
Number of Pixels in Spectrum: 1024
>>>>>Begin Spectral Data<<<<<
801.071	27846
801.214	27804
801.356	27682
801.499	27572
801.641	27412
801.783	27291
801.926	27500
802.068	27500
802.211	27249
802.353	27374
802.496	26998
802.638	27009
802.78	27074
802.923	26933
803.065	26910
803.208	26876
803.35	26952
803.492	27062
803.635	27230
803.777	27180
803.919	27306
804.061	27568
804.204	27279
804.346	27237
804.488	27127
804.63	27275
804.773	27165
804.915	27313
805.057	27325
805.199	27180
805.341	27252
805.483	27329
805.626	27302
805.768	27226
805.91	27329
806.052	27363
806.194	27252
806.336	27587
806.478	27427
806.62	27310
806.762	27393
806.904	27698
807.046	27861
807.188	27644
807.33	27755
807.472	27876
807.614	27694
807.756	27770
807.898	27637
808.04	27568
808.182	27511
808.324	27724
808.465	27644
808.607	27907
808.749	27968
808.891	28154
809.033	28124
809.174	28090
809.316	27956
809.458	27873
809.6	27842
809.741	28070
809.883	27987
810.025	28196
810.166	28268
810.308	28219
810.45	28280
810.591	28128
810.733	27972
810.875	27975
811.016	27819
811.158	27846
811.299	28048
811.441	28105
811.582	28135
811.724	27945
811.865	27934
812.007	27907
812.148	27975
812.29	28048
812.431	28086
812.573	28413
812.714	28333
812.855	28329
812.997	28641
813.138	28816
813.279	28618
813.421	28565
813.562	28554
813.703	28207
813.845	28166
813.986	27888
814.127	27926
814.268	27709
814.41	27648
814.551	27618
814.692	27694
814.833	27534
814.974	27618
815.115	27599
815.256	27420
815.397	27469
815.539	27614
815.68	27458
815.821	27359
815.962	27469
816.103	27515
816.244	27427
816.385	27302
816.526	27294
816.666	27013
816.807	26918
816.948	26853
817.089	27119
817.23	26948
817.371	26857
817.512	26902
817.653	26944
817.793	26971
817.934	26921
818.075	27058
818.216	26963
818.356	26842
818.497	26826
818.638	26663
818.778	26625
818.919	26644
819.06	26765
819.2	26910
819.341	26982
819.481	26899
819.622	27024
819.762	27157
819.903	27237
820.043	27104
820.184	27169
820.324	27119
820.465	27154
820.605	27058
820.746	27055
820.886	26845
821.026	26902
821.167	26937
821.307	27047
821.447	26940
821.588	26823
821.728	26727
821.868	26533
822.008	26514
822.149	26526
822.289	26446
822.429	26046
822.569	26191
822.709	26088
822.849	25890
822.99	25940
823.13	25913
823.27	25833
823.41	25765
823.55	25643
823.69	25727
823.83	25791
823.97	25799
824.11	25544
824.25	25518
824.389	25491
824.529	25700
824.669	25563
824.809	25719
824.949	25635
825.089	25521
825.228	25639
825.368	25563
825.508	25388
825.648	25400
825.787	25525
825.927	25514
826.067	25392
826.206	25377
826.346	25441
826.485	25495
826.625	25339
826.765	25590
826.904	25479
827.044	25308
827.183	25217
827.323	25072
827.462	25263
827.601	24966
827.741	25129
827.88	25118
828.02	25107
828.159	25107
828.298	25228
828.437	25251
828.577	24966
828.716	25213
828.855	25034
828.994	24867
829.134	24867
829.273	24924
829.412	24806
829.551	24817
829.69	24772
829.829	24772
829.968	24989
830.107	24757
830.246	24837
830.385	24871
830.524	24837
830.663	24658
830.802	24601
830.941	24540
831.08	24437
831.219	24582
831.357	24639
831.496	24627
831.635	24475
831.774	24384
831.913	24448
832.051	24251
832.19	24262
832.329	24300
832.467	24216
832.606	24060
832.744	24330
832.883	24057
833.022	24079
833.16	24171
833.299	24121
833.437	24243
833.576	24152
833.714	24098
833.852	24155
833.991	24232
834.129	24342
834.267	24095
834.406	24106
834.544	24243
834.682	24163
834.821	24167
834.959	24239
835.097	24178
835.235	24216
835.373	24110
835.511	24197
835.65	24003
835.788	24015
835.926	23923
836.064	23817
836.202	23980
836.34	23969
836.478	24060
836.615	23977
836.753	24072
836.891	24136
837.029	24007
837.167	23969
837.305	23961
837.443	23954
837.58	23786
837.718	23923
837.856	23942
837.993	23699
838.131	23893
838.269	23752
838.406	23710
838.544	23668
838.681	23531
838.819	23452
838.956	23356
839.094	23318
839.231	23326
839.369	23490
839.506	23752
839.643	23592
839.781	23429
839.918	23189
840.055	23364
840.193	23269
840.33	23307
840.467	23296
840.604	23353
840.742	23623
840.879	23044
841.016	23208
841.153	23155
841.29	23364
841.427	23189
841.564	23235
841.701	23273
841.838	23155
841.975	23109
842.112	23121
842.249	22995
842.385	22927
842.522	23235
842.659	23010
842.796	22938
842.933	23041
843.069	22881
843.206	22999
843.343	23128
843.479	23056
843.616	23098
843.752	22805
843.889	22736
844.025	22984
844.162	22668
844.298	22850
844.435	22710
844.571	22717
844.708	22713
844.844	22858
844.98	22930
845.117	22934
845.253	22664
845.389	22641
845.525	22607
845.661	22733
845.798	22455
845.934	22592
846.07	22584
846.206	22519
846.342	22611
846.478	22493
846.614	22291
846.75	22238
846.886	22246
847.022	22261
847.158	22230
847.294	22249
847.429	22280
847.565	22192
847.701	22379
847.837	22101
847.972	21797
848.108	22166
848.244	21964
848.379	21907
848.515	21823
848.65	21778
848.786	21797
848.921	21770
849.057	21892
849.192	21953
849.328	21835
849.463	21918
849.598	21842
849.734	21759
849.869	21793
850.004	21530
850.14	21595
850.275	21663
850.41	21466
850.545	21553
850.68	21538
850.815	21576
850.95	21580
851.085	21698
851.22	21618
851.355	21576
851.49	21595
851.625	21648
851.76	21614
851.895	21469
852.03	21447
852.165	21591
852.299	21576
852.434	21759
852.569	21667
852.703	21648
852.838	21766
852.973	21709
853.107	21641
853.242	21599
853.376	21538
853.511	21256
853.645	21359
853.78	21450
853.914	21473
854.048	21458
854.183	21435
854.317	21382
854.451	21583
854.585	21382
854.72	21386
854.854	21561
854.988	21389
855.122	21469
855.256	21313
855.39	21466
855.524	21386
855.658	21469
855.792	21340
855.926	21462
856.06	21481
856.194	21485
856.327	21428
856.461	21355
856.595	21325
856.729	21336
856.862	21496
856.996	21363
857.13	21511
857.263	21515
857.397	21530
857.53	21367
857.664	21534
857.797	21492
857.931	21473
858.064	21511
858.197	21416
858.331	21336
858.464	21363
858.597	21272
858.731	21374
858.864	21382
858.997	21332
859.13	21408
859.263	21382
859.396	21507
859.529	21481
859.662	21370
859.795	21431
859.928	21389
860.061	21492
860.194	21701
860.327	21515
860.46	21283
860.592	21595
860.725	21542
860.858	21618
860.99	21393
861.123	21249
861.256	21355
861.388	21450
861.521	22196
861.653	21291
861.786	21142
861.918	21222
862.05	21336
862.183	21287
862.315	21363
862.447	21363
862.58	21329
862.712	21161
862.844	21032
862.976	21116
863.108	21100
863.24	21485
863.372	21089
863.504	21085
863.636	21070
863.768	21218
863.9	21199
864.032	21135
864.164	21070
864.296	21135
864.428	21173
864.559	21169
864.691	21165
864.823	21039
864.954	21116
865.086	21070
865.217	21036
865.349	20895
865.48	20998
865.612	20941
865.743	21161
865.875	21085
866.006	20963
866.137	21017
866.269	20937
866.4	21085
866.531	20921
866.662	20971
866.793	21024
866.924	21017
867.055	20994
867.186	20937
867.317	20918
867.448	20762
867.579	20944
867.71	20925
867.841	20838
867.972	21028
868.103	20990
868.233	20800
868.364	20853
868.495	20967
868.625	21093
868.756	21310
868.886	21230
869.017	21089
869.147	21321
869.278	21252
869.408	21256
869.539	21214
869.669	21367
869.799	21256
869.929	21291
870.06	21401
870.19	21496
870.32	21515
870.45	21587
870.58	21622
870.71	21660
870.84	21736
870.97	21553
871.1	21576
871.23	21804
871.36	21770
871.489	21720
871.619	21720
871.749	21755
871.879	21804
872.008	21903
872.138	21831
872.267	21778
872.397	21686
872.526	21675
872.656	21557
872.785	21641
872.915	21804
873.044	21819
873.173	21838
873.303	21869
873.432	21895
873.561	21865
873.69	21842
873.819	21789
873.948	21819
874.077	21831
874.206	21759
874.335	21888
874.464	21865
874.593	22002
874.722	22017
874.851	21964
874.979	22025
875.108	21998
875.237	21934
875.365	21873
875.494	21991
875.623	22055
875.751	21945
875.88	22139
876.008	22169
876.136	22238
876.265	22398
876.393	22481
876.521	22459
876.65	22504
876.778	22375
876.906	22352
877.034	22428
877.162	22440
877.29	22352
877.418	22394
877.546	22363
877.674	22337
877.802	22394
877.93	22382
878.058	22421
878.185	22246
878.313	22253
878.441	22322
878.568	22261
878.696	22196
878.824	22287
878.951	22421
879.079	22432
879.206	22713
879.333	22481
879.461	22478
879.588	22470
879.715	22462
879.842	22622
879.97	22413
880.097	22253
880.224	22162
880.351	22268
880.478	22090
880.605	22158
880.732	22207
880.859	22436
880.986	22246
881.112	22169
881.239	22074
881.366	21983
881.493	21816
881.619	21736
881.746	21854
881.872	21823
881.999	21679
882.125	21682
882.252	21739
882.378	21941
882.505	21797
882.631	21682
882.757	21568
882.883	21549
883.01	21355
883.136	21393
883.262	21359
883.388	21336
883.514	21450
883.64	21386
883.766	21477
883.892	21218
884.018	21268
884.143	21473
884.269	21538
884.395	21207
884.52	21077
884.646	21104
884.772	20914
884.897	20948
885.023	21131
885.148	21066
885.274	21275
885.399	21214
885.524	21066
885.65	21146
885.775	21028
885.9	21055
886.025	21218
886.15	21321
886.275	20990
886.4	20956
886.525	21096
886.65	21024
886.775	20982
886.9	21146
887.025	21283
887.149	21009
887.274	20895
887.399	20929
887.523	20823
887.648	20712
887.773	20697
887.897	20929
888.021	20887
888.146	20762
888.27	21017
888.395	21005
888.519	20906
888.643	20998
888.767	20929
888.891	20842
889.015	20663
889.139	20708
889.263	20651
889.387	20655
889.511	20880
889.635	20842
889.759	20667
889.883	20640
890.006	20648
890.13	20655
890.254	20686
890.377	20648
890.501	20514
890.624	20465
890.748	20461
890.871	20343
890.995	20240
891.118	20282
891.241	20237
891.364	20202
891.488	20320
891.611	20218
891.734	20248
891.857	20343
891.98	20298
892.103	20362
892.226	20389
892.349	20157
892.471	20145
892.594	20153
892.717	20119
892.839	20035
892.962	20218
893.085	20259
893.207	20134
893.33	20050
893.452	20092
893.575	20214
893.697	20267
893.819	20240
893.941	20317
894.064	20263
894.186	20153
894.308	20107
894.43	20161
894.552	20191
894.674	20218
894.796	20054
894.918	20115
895.04	20073
895.161	20176
895.283	20206
895.405	20119
895.526	20092
895.648	20092
895.769	20240
895.891	20199
896.012	20126
896.134	20130
896.255	20111
896.376	20176
896.498	20267
896.619	20126
896.74	20119
896.861	20058
896.982	20545
897.103	20537
897.224	20503
897.345	20381
897.466	20161
897.587	20374
897.708	20427
897.828	20396
897.949	20267
898.07	20157
898.19	20317
898.311	20393
898.431	20328
898.552	20446
898.672	20442
898.792	20393
898.913	20454
899.033	20191
899.153	20142
899.273	20058
899.393	20115
899.513	20134
899.633	20180
899.753	20073
899.873	20043
899.993	20058
900.113	20039
900.232	19955
900.352	20031
900.472	19883
900.591	19788
900.711	19868
900.83	19837
900.95	20012
901.069	19917
901.189	19803
901.308	19502
901.427	19571
901.546	19453
901.665	19514
901.784	19263
901.904	19411
902.023	19232
902.141	18985
902.26	18932
902.379	19141
902.498	19072
902.617	19057
902.735	18993
902.854	18863
902.973	18909
903.091	18730
903.21	18719
903.328	18597
903.446	18486
903.565	18475
903.683	18585
903.801	18361
903.919	18483
904.038	18407
904.156	18262
904.274	18300
904.392	18167
904.51	18182
904.627	18209
904.745	18247
904.863	18232
904.981	18030
905.098	17961
905.216	17916
905.334	18007
905.451	17965
905.569	17855
905.686	17939
905.803	17859
905.921	17695
906.038	17821
906.155	17741
906.272	17611
906.389	17649
906.506	17455
906.623	17497
906.74	17444
906.857	17280
906.974	17391
907.091	17421
907.208	17535
907.324	17364
907.441	17421
907.557	17197
907.674	17079
907.79	17064
907.907	17064
908.023	17204
908.139	17147
908.256	17071
908.372	17067
908.488	17071
908.604	16824
908.72	16847
908.836	16938
908.952	16866
909.068	16904
909.184	16915
909.3	16748
909.415	16980
909.531	16839
909.647	16672
909.762	16618
909.878	16519
909.993	16550
910.108	16554
910.224	16493
910.339	16519
910.454	16421
910.57	16417
910.685	16371
910.8	16596
910.915	16459
911.03	16352
911.145	16204
911.259	16177
911.374	16188
911.489	16071
911.604	16055
911.718	15915
911.833	15907
911.947	15892
912.062	15633
912.176	15720
912.291	15926
912.405	15876
912.519	16101
912.633	16055
912.748	15945
912.862	15873
912.976	15778
913.09	15656
913.204	15686
913.318	15732
913.431	15804
913.545	15728
913.659	15831
913.772	15701
913.886	15545
914	15515
914.113	15629
914.226	15660
914.34	15492
914.453	15477
914.566	15542
914.68	15367
914.793	15420
914.906	15199
915.019	15211
915.132	15104
915.245	15009
915.358	15180
915.47	15203
915.583	15142
915.696	15070
915.809	15195
915.921	15237
916.034	15051
916.146	15047
916.259	15028
916.371	15066
916.483	15051
916.595	14979
916.708	14971
916.82	14956
916.932	14906
917.044	14899
917.156	14788
917.268	14769
917.38	14880
917.491	14712
917.603	14792
917.715	14765
917.826	14815
917.938	14746
918.049	14629
918.161	14667
918.272	14876
918.384	14796
918.495	14716
918.606	14545
918.717	14533
918.828	14541
918.939	14533
919.05	14370
919.161	14526
919.272	14446
919.383	14457
919.494	14590
919.604	14758
919.715	14533
919.826	14419
919.936	14484
920.047	14568
920.157	14381
920.267	14583
920.378	14484
920.488	14503
920.598	14651
920.708	14800
920.818	14579
920.928	14545
921.038	14716
921.148	14678
921.258	14370
921.368	14396
921.477	14259
921.587	14256
921.697	14157
921.806	14298
921.916	14016
922.025	13875
922.134	13849
922.244	13849
922.353	13875
922.462	13868
922.571	13696
922.68	13586
922.789	13525
922.898	13552
923.007	13514
923.116	13571
923.224	13529
923.333	13480
923.442	13396
923.55	13365
923.659	13373
923.767	13407
923.876	13335
923.984	13289
924.092	13259
924.201	13247
924.309	13198
924.417	13278
924.525	13118
924.633	13217
924.741	14039
924.849	12951
924.956	13099
925.064	13057
925.172	12859
925.279	12973
925.387	12947
925.494	12977
925.602	13076
925.709	13000
925.816	12821
925.924	12947
926.031	12989
926.138	12833
926.245	12958
926.352	12859
926.459	12913
926.566	12943
926.673	12817
926.779	12711
926.886	12681
926.993	12559
927.099	12460
927.206	12517
927.312	12471
927.419	12509
927.525	12483
927.631	12551
927.737	12380
927.843	12353
927.95	12216
928.056	12323
928.162	12407
928.267	12426
928.373	12951
928.479	12346
928.585	12224
928.69	12254
928.796	12258
928.901	12197
929.007	12072
929.112	12213
929.218	12148
929.323	12213
929.428	11996
929.533	12190
929.638	12019
929.743	11977
929.848	12057
929.953	12022
930.058	11794
930.163	11756
930.267	11623
930.372	11889
930.477	11707
930.581	11908
930.685	11802
930.79	11634
930.894	11779
930.998	11657
931.103	11672
931.207	11421
931.311	11242
931.415	11235
931.519	10968
931.623	10991
