Data from test_V78500241_2372.txt Node
Date: Fri Mar 25 15:26:22 CST 2022
User: usil
Spectrometer: V785-0024
Trigger mode: 0
Integration Time (sec): 4.000000E-1
Scans to average: 1
Nonlinearity correction enabled: false
Boxcar width: 0
Storing dark spectrum: false
XAxis mode: Wavelengths
Number of Pixels in Spectrum: 1024
>>>>>Begin Spectral Data<<<<<
801.071	27542
801.214	27545
801.356	27241
801.499	27195
801.641	27055
801.783	27066
801.926	27176
802.068	26925
802.211	26921
802.353	26845
802.496	26705
802.638	26590
802.78	26773
802.923	26613
803.065	26594
803.208	26537
803.35	26602
803.492	26663
803.635	26769
803.777	26845
803.919	26849
804.061	27249
804.204	26864
804.346	26682
804.488	26727
804.63	26845
804.773	26667
804.915	26872
805.057	26895
805.199	26686
805.341	26705
805.483	26914
805.626	26933
805.768	26777
805.91	27024
806.052	27005
806.194	26910
806.336	26948
806.478	26990
806.62	26933
806.762	27055
806.904	27195
807.046	27507
807.188	27367
807.33	27260
807.472	27370
807.614	27389
807.756	27359
807.898	27264
808.04	27093
808.182	27081
808.324	27241
808.465	27081
808.607	27367
808.749	27580
808.891	27610
809.033	27587
809.174	27599
809.316	27553
809.458	27580
809.6	27401
809.741	27713
809.883	27610
810.025	27884
810.166	27797
810.308	27888
810.45	27854
810.591	27736
810.733	27652
810.875	27580
811.016	27439
811.158	27420
811.299	27622
811.441	27709
811.582	27610
811.724	27485
811.865	27374
812.007	27431
812.148	27603
812.29	27526
812.431	27701
812.573	27911
812.714	27972
812.855	28067
812.997	28029
813.138	28299
813.279	28207
813.421	28036
813.562	28059
813.703	27968
813.845	27705
813.986	27427
814.127	27302
814.268	27310
814.41	27310
814.551	27249
814.692	27230
814.833	27043
814.974	27100
815.115	27344
815.256	27043
815.397	27096
815.539	26975
815.68	27104
815.821	26823
815.962	27017
816.103	27066
816.244	26720
816.385	26773
816.526	26754
816.666	26606
816.807	26465
816.948	26450
817.089	26545
817.23	26492
817.371	26381
817.512	26412
817.653	26381
817.793	26431
817.934	26461
818.075	26400
818.216	26621
818.356	26355
818.497	26385
818.638	26103
818.778	26054
818.919	26286
819.06	26362
819.2	26423
819.341	26393
819.481	26374
819.622	26598
819.762	26937
819.903	26762
820.043	26434
820.184	26549
820.324	26571
820.465	26617
820.605	26613
820.746	26507
820.886	26503
821.026	26476
821.167	26560
821.307	26617
821.447	26560
821.588	26484
821.728	26218
821.868	26069
822.008	25982
822.149	25963
822.289	26001
822.429	25632
822.569	25757
822.709	25746
822.849	25464
822.99	25400
823.13	25464
823.27	25358
823.41	25304
823.55	25187
823.69	25251
823.83	25384
823.97	25266
824.11	25057
824.25	24973
824.389	25046
824.529	24981
824.669	25221
824.809	25301
824.949	25183
825.089	25129
825.228	25187
825.368	24924
825.508	24943
825.648	24996
825.787	25023
825.927	25000
826.067	24928
826.206	24973
826.346	25000
826.485	25038
826.625	24985
826.765	25107
826.904	24909
827.044	24726
827.183	24760
827.323	24608
827.462	24772
827.601	24719
827.741	24635
827.88	24726
828.02	24498
828.159	24730
828.298	24726
828.437	24642
828.577	24513
828.716	24837
828.855	24502
828.994	24418
829.134	24399
829.273	24448
829.412	24350
829.551	24319
829.69	24327
829.829	24486
829.968	24536
830.107	24566
830.246	24369
830.385	24224
830.524	24273
830.663	24243
830.802	24144
830.941	23927
831.08	23840
831.219	24053
831.357	23984
831.496	24289
831.635	24022
831.774	23855
831.913	23946
832.051	23786
832.19	23794
832.329	23821
832.467	23672
832.606	23566
832.744	23486
832.883	23627
833.022	23528
833.16	23596
833.299	23714
833.437	23687
833.576	23714
833.714	23676
833.852	23802
833.991	23714
834.129	23703
834.267	23882
834.406	23638
834.544	23646
834.682	23752
834.821	23684
834.959	23878
835.097	23638
835.235	23745
835.373	23733
835.511	23672
835.65	23440
835.788	23577
835.926	23265
836.064	23273
836.202	23425
836.34	23558
836.478	23619
836.615	23581
836.753	23516
836.891	23672
837.029	23585
837.167	23455
837.305	23539
837.443	23391
837.58	23277
837.718	23448
837.856	23414
837.993	23334
838.131	23398
838.269	23174
838.406	23383
838.544	23227
838.681	22968
838.819	23064
838.956	22847
839.094	22831
839.231	22919
839.369	23048
839.506	23189
839.643	23178
839.781	22896
839.918	22915
840.055	23006
840.193	22725
840.33	22710
840.467	22847
840.604	22858
840.742	23204
840.879	22641
841.016	22786
841.153	22752
841.29	22858
841.427	22900
841.564	22858
841.701	22942
841.838	22557
841.975	22733
842.112	22645
842.249	22615
842.385	22535
842.522	22778
842.659	22580
842.796	22504
842.933	22550
843.069	22485
843.206	22531
843.343	22516
843.479	22470
843.616	22523
843.752	22295
843.889	22344
844.025	22436
844.162	22291
844.298	22440
844.435	22363
844.571	22219
844.708	22409
844.844	22371
844.98	22382
845.117	22417
845.253	22238
845.389	22177
845.525	22314
845.661	22166
845.798	22097
845.934	22105
846.07	22010
846.206	22177
846.342	22166
846.478	22040
846.614	21865
846.75	21751
846.886	21724
847.022	21804
847.158	21812
847.294	21747
847.429	21759
847.565	21812
847.701	22032
847.837	21507
847.972	21504
848.108	21603
848.244	21500
848.379	21428
848.515	21393
848.65	21435
848.786	21401
848.921	21389
849.057	21416
849.192	21488
849.328	21408
849.463	21397
849.598	21306
849.734	21226
849.869	21176
850.004	21116
850.14	21161
850.275	21188
850.41	21093
850.545	21184
850.68	21188
850.815	21237
850.95	21108
851.085	21401
851.22	21230
851.355	21135
851.49	21116
851.625	21032
851.76	21165
851.895	21100
852.03	21131
852.165	21176
852.299	21169
852.434	21256
852.569	21176
852.703	21138
852.838	21230
852.973	21272
853.107	21195
853.242	21081
853.376	21043
853.511	20823
853.645	20921
853.78	21096
853.914	20960
854.048	20899
854.183	20929
854.317	20960
854.451	21222
854.585	20902
854.72	20971
854.854	20986
854.988	20929
855.122	21055
855.256	20864
855.39	20937
855.524	21005
855.658	21077
855.792	21058
855.926	20880
856.06	20979
856.194	21119
856.327	20883
856.461	20842
856.595	20765
856.729	21028
856.862	21062
856.996	20906
857.13	20956
857.263	20971
857.397	20998
857.53	20994
857.664	21062
857.797	20956
857.931	21150
858.064	20944
858.197	21089
858.331	20948
858.464	20921
858.597	20868
858.731	21032
858.864	20960
858.997	20925
859.13	20883
859.263	20963
859.396	21001
859.529	20880
859.662	20990
859.795	20876
859.928	21017
860.061	21119
860.194	21108
860.327	21096
860.46	21005
860.592	21146
860.725	21051
860.858	21085
860.99	21062
861.123	20906
861.256	20929
861.388	20956
861.521	21454
861.653	20849
861.786	20724
861.918	20800
862.05	20724
862.183	20895
862.315	20933
862.447	21093
862.58	20925
862.712	20682
862.844	20560
862.976	20777
863.108	20693
863.24	21142
863.372	20590
863.504	20655
863.636	20621
863.768	20735
863.9	20743
864.032	20495
864.164	20632
864.296	20667
864.428	20708
864.559	20746
864.691	20792
864.823	20655
864.954	20571
865.086	20648
865.217	20575
865.349	20545
865.48	20594
865.612	20522
865.743	20762
865.875	20708
866.006	20564
866.137	20629
866.269	20492
866.4	20667
866.531	20648
866.662	20408
866.793	20465
866.924	20571
867.055	20507
867.186	20541
867.317	20492
867.448	20351
867.579	20526
867.71	20343
867.841	20423
867.972	20507
868.103	20457
868.233	20655
868.364	20499
868.495	20571
868.625	20788
868.756	20933
868.886	20765
869.017	20697
869.147	20880
869.278	20929
869.408	20906
869.539	20697
869.669	20796
869.799	20834
869.929	20842
870.06	20788
870.19	21074
870.32	21116
870.45	21116
870.58	21127
870.71	21306
870.84	21313
870.97	21176
871.1	21157
871.23	21260
871.36	21367
871.489	21287
871.619	21302
871.749	21401
871.879	21348
872.008	21534
872.138	21408
872.267	21317
872.397	21203
872.526	21272
872.656	21127
872.785	21222
872.915	21420
873.044	21420
873.173	21397
873.303	21321
873.432	21443
873.561	21572
873.69	21382
873.819	21447
873.948	21454
874.077	21523
874.206	21294
874.335	21450
874.464	21526
874.593	21587
874.722	21576
874.851	21614
874.979	21663
875.108	21698
875.237	21519
875.365	21523
875.494	21641
875.623	21663
875.751	21507
875.88	21656
876.008	21679
876.136	21762
876.265	22112
876.393	22002
876.521	22192
876.65	22074
876.778	21968
876.906	22021
877.034	21903
877.162	21842
877.29	21926
877.418	21964
877.546	21949
877.674	21903
877.802	21915
877.93	22006
878.058	22036
878.185	21766
878.313	21956
878.441	21793
878.568	21808
878.696	21808
878.824	21953
878.951	22032
879.079	22116
879.206	22306
879.333	22044
879.461	21937
879.588	22006
879.715	21994
879.842	22257
879.97	21975
880.097	21785
880.224	21789
880.351	21804
880.478	21819
880.605	21755
880.732	21842
880.859	22025
880.986	21831
881.112	21728
881.239	21736
881.366	21488
881.493	21393
881.619	21401
881.746	21397
881.872	21416
881.999	21405
882.125	21291
882.252	21496
882.378	21363
882.505	21389
882.631	21291
882.757	21146
882.883	21135
883.01	21108
883.136	21154
883.262	20925
883.388	20944
883.514	21089
883.64	21131
883.766	20948
883.892	20876
884.018	20895
884.143	21047
884.269	21169
884.395	20830
884.52	20716
884.646	20800
884.772	20724
884.897	20594
885.023	20781
885.148	20773
885.274	20937
885.399	20758
885.524	20682
885.65	20594
885.775	20697
885.9	20689
886.025	20800
886.15	20800
886.275	20632
886.4	20621
886.525	20727
886.65	20495
886.775	20651
886.9	20800
887.025	21009
887.149	20663
887.274	20454
887.399	20438
887.523	20514
887.648	20473
887.773	20415
887.897	20575
888.021	20541
888.146	20423
888.27	20412
888.395	20476
888.519	20514
888.643	20511
888.767	20560
888.891	20419
889.015	20396
889.139	20324
889.263	20225
889.387	20298
889.511	20473
889.635	20393
889.759	20282
889.883	20161
890.006	20362
890.13	20313
890.254	20202
890.377	20229
890.501	20012
890.624	20020
890.748	20069
890.871	19928
890.995	19928
891.118	19738
891.241	19871
891.364	19909
891.488	19967
891.611	19875
891.734	19795
891.857	19974
891.98	19849
892.103	19955
892.226	19883
892.349	19700
892.471	19666
892.594	19765
892.717	19875
892.839	19852
892.962	19791
893.085	19826
893.207	19746
893.33	19613
893.452	19689
893.575	19898
893.697	19681
893.819	19932
893.941	19974
894.064	19909
894.186	19719
894.308	19639
894.43	19818
894.552	19845
894.674	19837
894.796	19616
894.918	19734
895.04	19845
895.161	19890
895.283	19791
895.405	19723
895.526	19837
895.648	19799
895.769	19689
895.891	19780
896.012	19852
896.134	19769
896.255	19814
896.376	19727
896.498	19757
896.619	19932
896.74	19871
896.861	19780
896.982	19997
897.103	20210
897.224	19993
897.345	19951
897.466	20012
897.587	20008
897.708	20161
897.828	20039
897.949	20035
898.07	19898
898.19	20024
898.311	20100
898.431	19932
898.552	19898
898.672	20149
898.792	20024
898.913	20054
899.033	19814
899.153	19837
899.273	19757
899.393	19757
899.513	19750
899.633	19582
899.753	19799
899.873	19685
899.993	19913
900.113	19784
900.232	19628
900.352	19590
900.472	19582
900.591	19464
900.711	19597
900.83	19499
900.95	19620
901.069	19571
901.189	19514
901.308	19187
901.427	19148
901.546	19236
901.665	19107
901.784	19206
901.904	18920
902.023	18875
902.141	18734
902.26	18654
902.379	18779
902.498	18677
902.617	18627
902.735	18589
902.854	18570
902.973	18673
903.091	18247
903.21	18376
903.328	18296
903.446	18247
903.565	18152
903.683	18098
903.801	18072
903.919	18068
904.038	18098
904.156	17859
904.274	18022
904.392	17851
904.51	17847
904.627	17874
904.745	17927
904.863	17973
904.981	17737
905.098	17596
905.216	17630
905.334	17562
905.451	17596
905.569	17638
905.686	17623
905.803	17558
905.921	17387
906.038	17532
906.155	17353
906.272	17208
906.389	17277
906.506	17113
906.623	17189
906.74	17083
906.857	16949
906.974	17025
907.091	17193
907.208	17181
907.324	17216
907.441	16957
907.557	16801
907.674	16805
907.79	16694
907.907	16721
908.023	16839
908.139	16801
908.256	16755
908.372	16698
908.488	16702
908.604	16645
908.72	16466
908.836	16565
908.952	16538
909.068	16531
909.184	16569
909.3	16558
909.415	16497
909.531	16580
909.647	16402
909.762	16249
909.878	16242
909.993	16261
910.108	16192
910.224	16192
910.339	16196
910.454	16128
910.57	16059
910.685	15964
910.8	16371
910.915	16150
911.03	16055
911.145	15857
911.259	15808
911.374	15876
911.489	15903
911.604	15732
911.718	15606
911.833	15568
911.947	15431
912.062	15454
912.176	15561
912.291	15523
912.405	15618
912.519	15774
912.633	15686
912.748	15641
912.862	15458
912.976	15329
913.09	15298
913.204	15340
913.318	15393
913.431	15450
913.545	15344
913.659	15523
913.772	15408
913.886	15252
914	15165
914.113	15233
914.226	15408
914.34	15264
914.453	15127
914.566	15211
914.68	15108
914.793	15032
914.906	14868
915.019	14880
915.132	14868
915.245	14781
915.358	14815
915.47	14777
915.583	14815
915.696	14868
915.809	14868
915.921	14891
916.034	14758
916.146	14735
916.259	14769
916.371	14845
916.483	14804
916.595	14659
916.708	14731
916.82	14712
916.932	14617
917.044	14648
917.156	14533
917.268	14484
917.38	14579
917.491	14427
917.603	14514
917.715	14556
917.826	14610
917.938	14488
918.049	14351
918.161	14408
918.272	14610
918.384	14530
918.495	14454
918.606	14301
918.717	14240
918.828	14328
918.939	14309
919.05	14168
919.161	14271
919.272	14046
919.383	14134
919.494	14389
919.604	14488
919.715	14248
919.826	14142
919.936	14111
920.047	14301
920.157	14237
920.267	14454
920.378	14176
920.488	14282
920.598	14408
920.708	14568
920.818	14317
920.928	14320
921.038	14552
921.148	14480
921.258	14229
921.368	14081
921.477	13925
921.587	13947
921.697	13883
921.806	14005
921.916	13860
922.025	13727
922.134	13613
922.244	13620
922.353	13643
922.462	13434
922.571	13419
922.68	13343
922.789	13320
922.898	13278
923.007	13194
923.116	13335
923.224	13221
923.333	13232
923.442	13152
923.55	13065
923.659	13133
923.767	13175
923.876	13099
923.984	13129
924.092	12958
924.201	13019
924.309	12981
924.417	12981
924.525	12939
924.633	12935
924.741	13944
924.849	12719
924.956	12814
925.064	12688
925.172	12604
925.279	12768
925.387	12734
925.494	12677
925.602	12863
925.709	12703
925.816	12555
925.924	12578
926.031	12627
926.138	12650
926.245	12730
926.352	12627
926.459	12627
926.566	12791
926.673	12452
926.779	12498
926.886	12418
926.993	12262
927.099	12285
927.206	12285
927.312	12121
927.419	12281
927.525	12228
927.631	12224
927.737	12152
927.843	12076
927.95	12026
928.056	12175
928.162	12072
928.267	12171
928.373	12753
928.479	12114
928.585	11897
928.69	12087
928.796	12114
928.901	11988
929.007	11843
929.112	11996
929.218	11847
929.323	11790
929.428	11855
929.533	11908
929.638	11699
929.743	11767
929.848	11794
929.953	11824
930.058	11661
930.163	11551
930.267	11532
930.372	11695
930.477	11368
930.581	11737
930.685	11589
930.79	11414
930.894	11410
930.998	11402
931.103	11509
931.207	11132
931.311	11102
931.415	11090
931.519	10885
931.623	10831
