Data from test_V78500241_85.txt Node
Date: Fri Mar 25 15:10:27 CST 2022
User: usil
Spectrometer: V785-0024
Trigger mode: 0
Integration Time (sec): 4.000000E-1
Scans to average: 1
Nonlinearity correction enabled: false
Boxcar width: 0
Storing dark spectrum: false
XAxis mode: Wavelengths
Number of Pixels in Spectrum: 1024
>>>>>Begin Spectral Data<<<<<
801.071	28554
801.214	28694
801.356	28421
801.499	28344
801.641	28268
801.783	28135
801.926	28261
802.068	28268
802.211	28025
802.353	28139
802.496	27816
802.638	27873
802.78	27720
802.923	27675
803.065	27583
803.208	27644
803.35	27667
803.492	27823
803.635	27960
803.777	27785
803.919	27892
804.061	28230
804.204	27914
804.346	27857
804.488	27610
804.63	27755
804.773	27823
804.915	27838
805.057	27876
805.199	27603
805.341	27873
805.483	28010
805.626	28006
805.768	27842
805.91	27953
806.052	27846
806.194	27876
806.336	28093
806.478	28040
806.62	27880
806.762	27926
806.904	28086
807.046	28360
807.188	28322
807.33	28246
807.472	28230
807.614	28162
807.756	28322
807.898	28112
808.04	28101
808.182	28097
808.324	28139
808.465	28158
808.607	28341
808.749	28284
808.891	28531
809.033	28626
809.174	28542
809.316	28398
809.458	28603
809.6	28341
809.741	28489
809.883	28329
810.025	28500
810.166	28812
810.308	28599
810.45	28656
810.591	28573
810.733	28390
810.875	28234
811.016	28333
811.158	28131
811.299	28405
811.441	28554
811.582	28527
811.724	28299
811.865	28310
812.007	28382
812.148	28398
812.29	28322
812.431	28744
812.573	28577
812.714	28744
812.855	28736
812.997	28923
813.138	29151
813.279	28965
813.421	28858
813.562	28904
813.703	28668
813.845	28538
813.986	28276
814.127	28131
814.268	28116
814.41	27987
814.551	28070
814.692	28036
814.833	27964
814.974	27861
815.115	27949
815.256	27816
815.397	27831
815.539	27713
815.68	27492
815.821	27538
815.962	27762
816.103	27614
816.244	27481
816.385	27603
816.526	27492
816.666	27275
816.807	27252
816.948	27272
817.089	27195
817.23	27169
817.371	27051
817.512	27112
817.653	27112
817.793	27096
817.934	27157
818.075	27123
818.216	27131
818.356	27036
818.497	26944
818.638	26735
818.778	26765
818.919	26804
819.06	26804
819.2	26914
819.341	26998
819.481	27096
819.622	27154
819.762	27294
819.903	27340
820.043	27161
820.184	27150
820.324	27032
820.465	27180
820.605	27211
820.746	27077
820.886	26998
821.026	26918
821.167	27077
821.307	27173
821.447	27013
821.588	26891
821.728	26876
821.868	26522
822.008	26465
822.149	26377
822.289	26370
822.429	26100
822.569	26263
822.709	26176
822.849	26001
822.99	25955
823.13	25814
823.27	25936
823.41	25605
823.55	25704
823.69	25765
823.83	25814
823.97	25677
824.11	25468
824.25	25457
824.389	25483
824.529	25681
824.669	25548
824.809	25571
824.949	25643
825.089	25586
825.228	25624
825.368	25301
825.508	25384
825.648	25491
825.787	25369
825.927	25240
826.067	25362
826.206	25331
826.346	25202
826.485	25308
826.625	25289
826.765	25388
826.904	25244
827.044	25031
827.183	25110
827.323	24977
827.462	25168
827.601	24981
827.741	25031
827.88	25065
828.02	24757
828.159	24920
828.298	25012
828.437	24932
828.577	24958
828.716	25129
828.855	24886
828.994	24688
829.134	24696
829.273	24734
829.412	24620
829.551	24441
829.69	24544
829.829	24616
829.968	24764
830.107	24726
830.246	24715
830.385	24441
830.524	24528
830.663	24315
830.802	24372
830.941	24247
831.08	24136
831.219	24266
831.357	24155
831.496	24433
831.635	24121
831.774	24022
831.913	24095
832.051	23874
832.19	24068
832.329	24057
832.467	23908
832.606	23897
832.744	23809
832.883	23752
833.022	23707
833.16	23756
833.299	23878
833.437	23836
833.576	23843
833.714	23790
833.852	23958
833.991	23958
834.129	23908
834.267	23916
834.406	23908
834.544	23802
834.682	23923
834.821	23760
834.959	23927
835.097	23786
835.235	23824
835.373	23927
835.511	23733
835.65	23608
835.788	23627
835.926	23558
836.064	23436
836.202	23551
836.34	23722
836.478	23722
836.615	23516
836.753	23516
836.891	23707
837.029	23619
837.167	23551
837.305	23463
837.443	23611
837.58	23448
837.718	23516
837.856	23490
837.993	23463
838.131	23463
838.269	23223
838.406	23417
838.544	23288
838.681	23181
838.819	23147
838.956	22968
839.094	22908
839.231	22927
839.369	23025
839.506	23288
839.643	23223
839.781	22805
839.918	22847
840.055	22786
840.193	22869
840.33	22767
840.467	22828
840.604	22896
840.742	22980
840.879	22599
841.016	22862
841.153	22694
841.29	22812
841.427	22740
841.564	22771
841.701	22809
841.838	22713
841.975	22615
842.112	22683
842.249	22615
842.385	22584
842.522	22698
842.659	22519
842.796	22493
842.933	22413
843.069	22535
843.206	22360
843.343	22626
843.479	22531
843.616	22447
843.752	22303
843.889	22226
844.025	22352
844.162	22226
844.298	22303
844.435	22207
844.571	22166
844.708	22268
844.844	22409
844.98	22223
845.117	22207
845.253	22082
845.389	22131
845.525	22226
845.661	21979
845.798	21941
845.934	21945
846.07	21918
846.206	21922
846.342	22032
846.478	21918
846.614	21793
846.75	21675
846.886	21698
847.022	21724
847.158	21663
847.294	21698
847.429	21606
847.565	21679
847.701	21895
847.837	21431
847.972	21367
848.108	21462
848.244	21386
848.379	21214
848.515	21100
848.65	21237
848.786	21279
848.921	21169
849.057	21226
849.192	21321
849.328	21321
849.463	21252
849.598	21165
849.734	21127
849.869	21100
850.004	21005
850.14	20998
850.275	20910
850.41	20838
850.545	20868
850.68	20990
850.815	20910
850.95	20944
851.085	21051
851.22	21001
851.355	21024
851.49	20918
851.625	20830
851.76	20895
851.895	20769
852.03	20765
852.165	20830
852.299	20891
852.434	20952
852.569	20967
852.703	20864
852.838	21104
852.973	20944
853.107	20933
853.242	20804
853.376	20792
853.511	20552
853.645	20682
853.78	20849
853.914	20773
854.048	20735
854.183	20682
854.317	20769
854.451	20994
854.585	20876
854.72	20735
854.854	20731
854.988	20708
855.122	20815
855.256	20465
855.39	20678
855.524	20765
855.658	20705
855.792	20773
855.926	20724
856.06	20777
856.194	20868
856.327	20674
856.461	20670
856.595	20670
856.729	20682
856.862	20842
856.996	20693
857.13	20754
857.263	20868
857.397	20765
857.53	20587
857.664	20686
857.797	20834
857.931	20693
858.064	20670
858.197	20842
858.331	20678
858.464	20644
858.597	20537
858.731	20667
858.864	20731
858.997	20667
859.13	20727
859.263	20632
859.396	20750
859.529	20705
859.662	20609
859.795	20522
859.928	20659
860.061	20727
860.194	20823
860.327	20659
860.46	20590
860.592	20724
860.725	20773
860.858	20609
860.99	20731
861.123	20537
861.256	20648
861.388	20590
861.521	21173
861.653	20598
861.786	20499
861.918	20560
862.05	20750
862.183	20625
862.315	20746
862.447	20674
862.58	20765
862.712	20412
862.844	20434
862.976	20530
863.108	20499
863.24	20807
863.372	20290
863.504	20457
863.636	20298
863.768	20351
863.9	20396
864.032	20275
864.164	20202
864.296	20415
864.428	20385
864.559	20374
864.691	20415
864.823	20396
864.954	20377
865.086	20355
865.217	20362
865.349	20138
865.48	20233
865.612	20324
865.743	20438
865.875	20298
866.006	20202
866.137	20362
866.269	20225
866.4	20282
866.531	20199
866.662	20107
866.793	20119
866.924	20229
867.055	20233
867.186	20191
867.317	20183
867.448	20046
867.579	20103
867.71	20138
867.841	20069
867.972	20153
868.103	20145
868.233	20138
868.364	20225
868.495	20286
868.625	20396
868.756	20476
868.886	20400
869.017	20366
869.147	20651
869.278	20499
869.408	20492
869.539	20492
869.669	20575
869.799	20332
869.929	20530
870.06	20484
870.19	20746
870.32	20678
870.45	20735
870.58	20796
870.71	20769
870.84	20834
870.97	20716
871.1	20758
871.23	20971
871.36	20883
871.489	20804
871.619	20800
871.749	21032
871.879	21055
872.008	21214
872.138	20975
872.267	20956
872.397	20906
872.526	20819
872.656	20918
872.785	20815
872.915	20971
873.044	21100
873.173	21157
873.303	20921
873.432	21116
873.561	21047
873.69	21119
873.819	21089
873.948	21138
874.077	21036
874.206	21039
874.335	21009
874.464	21135
874.593	21367
874.722	21313
874.851	21363
874.979	21310
875.108	21374
875.237	21199
875.365	21207
875.494	21150
875.623	21233
875.751	21329
875.88	21252
876.008	21389
876.136	21519
876.265	21709
876.393	21747
876.521	21728
876.65	21785
876.778	21595
876.906	21561
877.034	21583
877.162	21523
877.29	21583
877.418	21675
877.546	21603
877.674	21606
877.802	21667
877.93	21614
878.058	21504
878.185	21473
878.313	21542
878.441	21595
878.568	21462
878.696	21629
878.824	21641
878.951	21743
879.079	21751
879.206	21926
879.333	21827
879.461	21576
879.588	21701
879.715	21728
879.842	21907
879.97	21660
880.097	21393
880.224	21439
880.351	21500
880.478	21454
880.605	21287
880.732	21450
880.859	21637
880.986	21363
881.112	21329
881.239	21374
881.366	21096
881.493	21085
881.619	21077
881.746	21066
881.872	21135
881.999	21154
882.125	20998
882.252	20979
882.378	21013
882.505	21165
882.631	20895
882.757	20830
882.883	20815
883.01	20750
883.136	20701
883.262	20781
883.388	20594
883.514	20845
883.64	20712
883.766	20678
883.892	20568
884.018	20530
884.143	20686
884.269	20819
884.395	20590
884.52	20385
884.646	20480
884.772	20336
884.897	20374
885.023	20465
885.148	20522
885.274	20613
885.399	20442
885.524	20450
885.65	20396
885.775	20511
885.9	20320
886.025	20446
886.15	20457
886.275	20446
886.4	20278
886.525	20438
886.65	20267
886.775	20259
886.9	20419
887.025	20602
887.149	20351
887.274	20168
887.399	20180
887.523	20122
887.648	20050
887.773	20043
887.897	20176
888.021	20134
888.146	20020
888.27	20244
888.395	20278
888.519	20157
888.643	20168
888.767	20153
888.891	20024
889.015	19993
889.139	20111
889.263	19906
889.387	19989
889.511	20073
889.635	20039
889.759	19970
889.883	19890
890.006	19871
890.13	20043
890.254	19715
890.377	19890
890.501	19689
890.624	19518
890.748	19689
890.871	19533
890.995	19510
891.118	19502
891.241	19548
891.364	19578
891.488	19731
891.611	19521
891.734	19594
891.857	19605
891.98	19578
892.103	19537
892.226	19506
892.349	19491
892.471	19400
892.594	19529
892.717	19396
892.839	19460
892.962	19438
893.085	19548
893.207	19400
893.33	19331
893.452	19400
893.575	19529
893.697	19434
893.819	19518
893.941	19567
894.064	19563
894.186	19476
894.308	19476
894.43	19495
894.552	19544
894.674	19419
894.796	19339
894.918	19396
895.04	19510
895.161	19407
895.283	19540
895.405	19540
895.526	19495
895.648	19460
895.769	19567
895.891	19514
896.012	19540
896.134	19533
896.255	19483
896.376	19441
896.498	19499
896.619	19609
896.74	19514
896.861	19514
896.982	19879
897.103	20092
897.224	19833
897.345	19628
897.466	19628
897.587	19712
897.708	19814
897.828	19651
897.949	19586
898.07	19483
898.19	19567
898.311	19864
898.431	19731
898.552	19658
898.672	19799
898.792	19723
898.913	19723
899.033	19426
899.153	19472
899.273	19190
899.393	19415
899.513	19411
899.633	19434
899.753	19449
899.873	19384
899.993	19415
900.113	19324
900.232	19445
900.352	19388
900.472	19190
900.591	19232
900.711	19152
900.83	19190
900.95	19339
901.069	19251
901.189	19129
901.308	18814
901.427	18821
901.546	18764
901.665	18745
901.784	18837
901.904	18692
902.023	18563
902.141	18422
902.26	18369
902.379	18414
902.498	18308
902.617	18292
902.735	18239
902.854	18235
902.973	18243
903.091	18007
903.21	17950
903.328	17992
903.446	17851
903.565	17843
903.683	17813
903.801	17710
903.919	17802
904.038	17737
904.156	17623
904.274	17752
904.392	17592
904.51	17532
904.627	17577
904.745	17596
904.863	17585
904.981	17406
905.098	17174
905.216	17292
905.334	17223
905.451	17337
905.569	17124
905.686	17220
905.803	17121
905.921	16987
906.038	17178
906.155	17033
906.272	16938
906.389	16892
906.506	16721
906.623	16755
906.74	16793
906.857	16645
906.974	16672
907.091	16717
907.208	16752
907.324	16740
907.441	16630
907.557	16474
907.674	16443
907.79	16428
907.907	16432
908.023	16382
908.139	16523
908.256	16344
908.372	16344
908.488	16234
908.604	16234
908.72	16139
908.836	16116
908.952	16116
909.068	16128
909.184	16242
909.3	16082
909.415	16147
909.531	16040
909.647	15918
909.762	15846
909.878	15865
909.993	15774
910.108	15762
910.224	15865
910.339	15835
910.454	15705
910.57	15648
910.685	15625
910.8	15857
910.915	15743
911.03	15542
911.145	15428
911.259	15431
911.374	15450
911.489	15397
911.604	15264
911.718	15077
911.833	15275
911.947	15104
912.062	14982
912.176	15085
912.291	15043
912.405	15077
912.519	15367
912.633	15294
912.748	15195
912.862	15188
912.976	14963
913.09	14906
913.204	14929
913.318	14933
913.431	14921
913.545	14986
913.659	15093
913.772	14914
913.886	14838
914	14773
914.113	14891
914.226	14861
914.34	14842
914.453	14720
914.566	14868
914.68	14781
914.793	14632
914.906	14511
915.019	14434
915.132	14370
915.245	14404
915.358	14450
915.47	14480
915.583	14396
915.696	14412
915.809	14625
915.921	14514
916.034	14355
916.146	14347
916.259	14328
916.371	14347
916.483	14427
916.595	14301
916.708	14328
916.82	14294
916.932	14248
917.044	14130
917.156	14199
917.268	13989
917.38	14119
917.491	14130
917.603	14081
917.715	14046
917.826	14126
917.938	13955
918.049	13947
918.161	14031
918.272	14172
918.384	14142
918.495	14027
918.606	13856
918.717	13837
918.828	13898
918.939	13959
919.05	13807
919.161	13913
919.272	13662
919.383	13731
919.494	13906
919.604	14107
919.715	13944
919.826	13757
919.936	13750
920.047	13932
920.157	13849
920.267	13978
920.378	13879
920.488	13849
920.598	13970
920.708	14107
920.818	13940
920.928	13879
921.038	14077
921.148	14043
921.258	13784
921.368	13643
921.477	13559
921.587	13578
921.697	13403
921.806	13518
921.916	13411
922.025	13354
922.134	13209
922.244	13152
922.353	13247
922.462	13038
922.571	13076
922.68	12993
922.789	12768
922.898	12817
923.007	12722
923.116	12856
923.224	12730
923.333	12806
923.442	12688
923.55	12620
923.659	12745
923.767	12757
923.876	12627
923.984	12677
924.092	12646
924.201	12559
924.309	12593
924.417	12555
924.525	12532
924.633	12418
924.741	13274
924.849	12350
924.956	12426
925.064	12315
925.172	12190
925.279	12285
925.387	12372
925.494	12323
925.602	12380
925.709	12376
925.816	12205
925.924	12205
926.031	12338
926.138	12155
926.245	12266
926.352	12220
926.459	12292
926.566	12281
926.673	12197
926.779	12022
926.886	12003
926.993	11931
927.099	11813
927.206	11840
927.312	11828
927.419	11874
927.525	11961
927.631	11912
927.737	11779
927.843	11714
927.95	11668
928.056	11710
928.162	11718
928.267	11798
928.373	12171
928.479	11710
928.585	11490
928.69	11691
928.796	11703
928.901	11520
929.007	11455
929.112	11547
929.218	11505
929.323	11493
929.428	11421
929.533	11623
929.638	11318
929.743	11429
929.848	11524
929.953	11398
930.058	11269
930.163	11151
930.267	11204
930.372	11239
930.477	11128
930.581	11299
930.685	11174
930.79	11010
930.894	11086
930.998	10946
931.103	11113
931.207	10710
931.311	10767
931.415	10588
931.519	10409
931.623	10424
