Data from test_V78500241_3279.txt Node
Date: Fri Mar 25 15:32:41 CST 2022
User: usil
Spectrometer: V785-0024
Trigger mode: 0
Integration Time (sec): 4.000000E-1
Scans to average: 1
Nonlinearity correction enabled: false
Boxcar width: 0
Storing dark spectrum: false
XAxis mode: Wavelengths
Number of Pixels in Spectrum: 1024
>>>>>Begin Spectral Data<<<<<
801.071	27241
801.214	27165
801.356	27028
801.499	26876
801.641	26826
801.783	26739
801.926	26864
802.068	26826
802.211	26712
802.353	26693
802.496	26484
802.638	26438
802.78	26469
802.923	26313
803.065	26324
803.208	26370
803.35	26480
803.492	26678
803.635	26807
803.777	26590
803.919	26686
804.061	26952
804.204	26644
804.346	26663
804.488	26663
804.63	26564
804.773	26568
804.915	26598
805.057	26739
805.199	26602
805.341	26648
805.483	26743
805.626	26629
805.768	26659
805.91	26674
806.052	26705
806.194	26708
806.336	26895
806.478	26727
806.62	26644
806.762	26902
806.904	26990
807.046	27146
807.188	27123
807.33	27058
807.472	27230
807.614	27051
807.756	27116
807.898	26948
808.04	26872
808.182	26864
808.324	26925
808.465	27005
808.607	27275
808.749	27218
808.891	27542
809.033	27447
809.174	27291
809.316	27351
809.458	27291
809.6	27272
809.741	27405
809.883	27545
810.025	27633
810.166	27614
810.308	27667
810.45	27603
810.591	27466
810.733	27386
810.875	27412
811.016	27264
811.158	27169
811.299	27367
811.441	27485
811.582	27488
811.724	27363
811.865	27252
812.007	27306
812.148	27233
812.29	27313
812.431	27473
812.573	27682
812.714	27705
812.855	27751
812.997	27854
813.138	27934
813.279	27926
813.421	27857
813.562	27713
813.703	27545
813.845	27408
813.986	27287
814.127	27024
814.268	26967
814.41	27005
814.551	27032
814.692	27070
814.833	27036
814.974	26933
815.115	26990
815.256	26838
815.397	26811
815.539	26925
815.68	26724
815.821	26686
815.962	26830
816.103	26762
816.244	26621
816.385	26594
816.526	26495
816.666	26263
816.807	26305
816.948	26278
817.089	26438
817.23	26214
817.371	26256
817.512	26305
817.653	26195
817.793	26278
817.934	26168
818.075	26332
818.216	26240
818.356	26107
818.497	26134
818.638	26012
818.778	26008
818.919	25833
819.06	26054
819.2	26027
819.341	26229
819.481	26138
819.622	26450
819.762	26537
819.903	26469
820.043	26324
820.184	26294
820.324	26362
820.465	26419
820.605	26282
820.746	26286
820.886	26233
821.026	26301
821.167	26317
821.307	26278
821.447	26225
821.588	26157
821.728	26054
821.868	25890
822.008	25666
822.149	25803
822.289	25681
822.429	25434
822.569	25476
822.709	25327
822.849	25228
822.99	25232
823.13	25076
823.27	25137
823.41	25057
823.55	24943
823.69	24924
823.83	25202
823.97	24928
824.11	24795
824.25	24772
824.389	24878
824.529	24852
824.669	24806
824.809	24958
824.949	24958
825.089	25050
825.228	24859
825.368	24833
825.508	24779
825.648	24734
825.787	24726
825.927	24783
826.067	24650
826.206	24646
826.346	24768
826.485	24654
826.625	24734
826.765	24753
826.904	24738
827.044	24540
827.183	24559
827.323	24517
827.462	24593
827.601	24414
827.741	24315
827.88	24585
828.02	24308
828.159	24505
828.298	24494
828.437	24559
828.577	24391
828.716	24448
828.855	24308
828.994	24213
829.134	24068
829.273	24273
829.412	24140
829.551	24098
829.69	24174
829.829	24152
829.968	24125
830.107	24209
830.246	24140
830.385	24182
830.524	24136
830.663	24034
830.802	23901
830.941	23729
831.08	23786
831.219	23847
831.357	23859
831.496	23973
831.635	23798
831.774	23642
831.913	23638
832.051	23680
832.19	23558
832.329	23611
832.467	23478
832.606	23341
832.744	23505
832.883	23356
833.022	23425
833.16	23604
833.299	23509
833.437	23600
833.576	23482
833.714	23528
833.852	23512
833.991	23524
834.129	23665
834.267	23528
834.406	23471
834.544	23627
834.682	23433
834.821	23459
834.959	23779
835.097	23459
835.235	23497
835.373	23436
835.511	23493
835.65	23429
835.788	23425
835.926	23261
836.064	23159
836.202	23136
836.34	23490
836.478	23490
836.615	23280
836.753	23349
836.891	23383
837.029	23395
837.167	23341
837.305	23250
837.443	23383
837.58	23315
837.718	23299
837.856	23155
837.993	23174
838.131	23132
838.269	23102
838.406	23128
838.544	23029
838.681	22748
838.819	22885
838.956	22706
839.094	22729
839.231	22729
839.369	22946
839.506	23052
839.643	22854
839.781	22664
839.918	22679
840.055	22706
840.193	22565
840.33	22580
840.467	22500
840.604	22664
840.742	22949
840.879	22409
841.016	22664
841.153	22489
841.29	22649
841.427	22561
841.564	22824
841.701	22634
841.838	22596
841.975	22561
842.112	22481
842.249	22527
842.385	22443
842.522	22660
842.659	22485
842.796	22459
842.933	22352
843.069	22352
843.206	22390
843.343	22363
843.479	22436
843.616	22402
843.752	22185
843.889	22131
844.025	22284
844.162	22116
844.298	22284
844.435	22162
844.571	22105
844.708	22253
844.844	22287
844.98	22337
845.117	22299
845.253	22242
845.389	22036
845.525	22063
845.661	22040
845.798	21880
845.934	22013
846.07	21865
846.206	22006
846.342	22059
846.478	21888
846.614	21751
846.75	21732
846.886	21675
847.022	21652
847.158	21698
847.294	21705
847.429	21732
847.565	21595
847.701	21827
847.837	21287
847.972	21298
848.108	21454
848.244	21435
848.379	21291
848.515	21298
848.65	21313
848.786	21252
848.921	21245
849.057	21302
849.192	21325
849.328	21252
849.463	21222
849.598	21188
849.734	21184
849.869	21123
850.004	21058
850.14	21058
850.275	21085
850.41	20925
850.545	21024
850.68	20990
850.815	21020
850.95	20998
851.085	21173
851.22	21112
851.355	21013
851.49	20986
851.625	20845
851.76	20887
851.895	20929
852.03	20986
852.165	21157
852.299	21135
852.434	21104
852.569	21024
852.703	20986
852.838	21013
852.973	21218
853.107	21070
853.242	20891
853.376	20861
853.511	20746
853.645	20765
853.78	20910
853.914	20883
854.048	20708
854.183	20819
854.317	20902
854.451	21017
854.585	20807
854.72	20781
854.854	20876
854.988	20804
855.122	20716
855.256	20895
855.39	20724
855.524	20921
855.658	20998
855.792	20838
855.926	20929
856.06	20864
856.194	20925
856.327	20754
856.461	20792
856.595	20918
856.729	20937
856.862	20849
856.996	20853
857.13	20899
857.263	21039
857.397	20838
857.53	20800
857.664	20868
857.797	20899
857.931	20963
858.064	20842
858.197	20982
858.331	20891
858.464	20746
858.597	20632
858.731	20769
858.864	20834
858.997	20804
859.13	20819
859.263	20765
859.396	21032
859.529	20804
859.662	20674
859.795	20868
859.928	20819
860.061	20929
860.194	21074
860.327	20826
860.46	20819
860.592	20910
860.725	20994
860.858	20948
860.99	20815
861.123	20826
861.256	20823
861.388	20773
861.521	21450
861.653	20625
861.786	20564
861.918	20686
862.05	20701
862.183	20804
862.315	20724
862.447	20941
862.58	20804
862.712	20549
862.844	20552
862.976	20632
863.108	20598
863.24	21096
863.372	20442
863.504	20476
863.636	20492
863.768	20682
863.9	20545
864.032	20465
864.164	20511
864.296	20549
864.428	20621
864.559	20568
864.691	20705
864.823	20507
864.954	20644
865.086	20499
865.217	20404
865.349	20309
865.48	20400
865.612	20484
865.743	20724
865.875	20442
866.006	20461
866.137	20514
866.269	20427
866.4	20275
866.531	20374
866.662	20415
866.793	20271
866.924	20446
867.055	20461
867.186	20351
867.317	20389
867.448	20412
867.579	20206
867.71	20309
867.841	20461
867.972	20454
868.103	20393
868.233	20423
868.364	20358
868.495	20507
868.625	20613
868.756	20800
868.886	20518
869.017	20727
869.147	20735
869.278	20705
869.408	20655
869.539	20640
869.669	20899
869.799	20716
869.929	20819
870.06	20693
870.19	20937
870.32	20952
870.45	20948
870.58	20994
870.71	20990
870.84	21085
870.97	21055
871.1	21123
871.23	21207
871.36	21142
871.489	21093
871.619	21287
871.749	21211
871.879	21207
872.008	21523
872.138	21283
872.267	21214
872.397	21104
872.526	20952
872.656	21165
872.785	21100
872.915	21237
873.044	21272
873.173	21237
873.303	21165
873.432	21313
873.561	21310
873.69	21268
873.819	21291
873.948	21306
874.077	21363
874.206	21214
874.335	21211
874.464	21370
874.593	21473
874.722	21447
874.851	21420
874.979	21485
875.108	21412
875.237	21428
875.365	21382
875.494	21488
875.623	21545
875.751	21401
875.88	21454
876.008	21564
876.136	21610
876.265	21964
876.393	22131
876.521	21945
876.65	21956
876.778	21945
876.906	21838
877.034	21899
877.162	21812
877.29	21835
877.418	21857
877.546	21755
877.674	21812
877.802	21876
877.93	21918
878.058	21835
878.185	21736
878.313	21865
878.441	21819
878.568	21652
878.696	21854
878.824	21892
878.951	21907
879.079	22032
879.206	22143
879.333	21994
879.461	21945
879.588	21903
879.715	22025
879.842	22032
879.97	21979
880.097	21770
880.224	21690
880.351	21724
880.478	21637
880.605	21709
880.732	21557
880.859	21884
880.986	21686
881.112	21812
881.239	21519
881.366	21336
881.493	21241
881.619	21279
881.746	21317
881.872	21272
881.999	21165
882.125	21173
882.252	21230
882.378	21222
882.505	21439
882.631	21112
882.757	20986
882.883	20952
883.01	20971
883.136	20834
883.262	20845
883.388	20705
883.514	20891
883.64	21070
883.766	20788
883.892	20781
884.018	20849
884.143	20823
884.269	21020
884.395	20720
884.52	20632
884.646	20575
884.772	20655
884.897	20438
885.023	20602
885.148	20678
885.274	20686
885.399	20708
885.524	20674
885.65	20621
885.775	20769
885.9	20640
886.025	20720
886.15	20640
886.275	20682
886.4	20381
886.525	20514
886.65	20495
886.775	20526
886.9	20625
887.025	20727
887.149	20533
887.274	20412
887.399	20336
887.523	20332
887.648	20282
887.773	20210
887.897	20381
888.021	20503
888.146	20374
888.27	20549
888.395	20541
888.519	20450
888.643	20328
888.767	20492
888.891	20233
889.015	20210
889.139	20199
889.263	20187
889.387	20259
889.511	20343
889.635	20256
889.759	20142
889.883	20153
890.006	20142
890.13	20309
890.254	20149
890.377	20157
890.501	19871
890.624	19841
890.748	20058
890.871	19830
890.995	19639
891.118	19613
891.241	19765
891.364	19913
891.488	19868
891.611	19864
891.734	19795
891.857	19830
891.98	19670
892.103	19791
892.226	19894
892.349	19761
892.471	19521
892.594	19559
892.717	19731
892.839	19712
892.962	19704
893.085	19677
893.207	19662
893.33	19681
893.452	19575
893.575	19780
893.697	19563
893.819	19902
893.941	19921
894.064	19723
894.186	19521
894.308	19643
894.43	19784
894.552	19761
894.674	19734
894.796	19582
894.918	19632
895.04	19723
895.161	19700
895.283	19715
895.405	19666
895.526	19582
895.648	19586
895.769	19708
895.891	19776
896.012	19856
896.134	19791
896.255	19674
896.376	19616
896.498	19685
896.619	19807
896.74	19723
896.861	19731
896.982	20088
897.103	20016
897.224	19982
897.345	19993
897.466	19830
897.587	19822
897.708	20020
897.828	19970
897.949	20020
898.07	19658
898.19	19765
898.311	19982
898.431	19894
898.552	19909
898.672	19871
898.792	19864
898.913	19932
899.033	19791
899.153	19651
899.273	19597
899.393	19559
899.513	19639
899.633	19616
899.753	19609
899.873	19540
899.993	19731
900.113	19559
900.232	19590
900.352	19666
900.472	19396
900.591	19460
900.711	19487
900.83	19377
900.95	19457
901.069	19544
901.189	19308
901.308	19042
901.427	19000
901.546	19099
901.665	19099
901.784	19019
901.904	18970
902.023	18734
902.141	18669
902.26	18566
902.379	18764
902.498	18608
902.617	18551
902.735	18566
902.854	18540
902.973	18498
903.091	18213
903.21	18232
903.328	18350
903.446	18133
903.565	18019
903.683	18007
903.801	17961
903.919	17992
904.038	17897
904.156	17855
904.274	17866
904.392	17843
904.51	17756
904.627	17718
904.745	17718
904.863	17870
904.981	17551
905.098	17471
905.216	17551
905.334	17497
905.451	17516
905.569	17478
905.686	17455
905.803	17391
905.921	17265
906.038	17387
906.155	17231
906.272	17109
906.389	17212
906.506	17029
906.623	17010
906.74	16991
906.857	16923
906.974	16896
907.091	17071
907.208	17117
907.324	17045
907.441	16873
907.557	16858
907.674	16824
907.79	16736
907.907	16683
908.023	16774
908.139	16698
908.256	16744
908.372	16626
908.488	16516
908.604	16478
908.72	16523
908.836	16542
908.952	16375
909.068	16417
909.184	16497
909.3	16512
909.415	16470
909.531	16367
909.647	16162
909.762	16181
909.878	16105
909.993	16192
910.108	16154
910.224	16150
910.339	16082
910.454	15953
910.57	16074
910.685	15926
910.8	16261
910.915	16147
911.03	16021
911.145	15827
911.259	15690
911.374	15717
911.489	15644
911.604	15644
911.718	15492
911.833	15545
911.947	15477
912.062	15412
912.176	15549
912.291	15504
912.405	15637
912.519	15759
912.633	15732
912.748	15580
912.862	15507
912.976	15466
913.09	15241
913.204	15214
913.318	15355
913.431	15447
913.545	15504
913.659	15416
913.772	15321
913.886	15142
914	15184
914.113	15226
914.226	15340
914.34	15249
914.453	15097
914.566	15169
914.68	15055
914.793	14921
914.906	14826
915.019	14735
915.132	14781
915.245	14826
915.358	14834
915.47	14830
915.583	14762
915.696	14758
915.809	14895
915.921	14807
916.034	14689
916.146	14613
916.259	14640
916.371	14735
916.483	14750
916.595	14613
916.708	14552
916.82	14731
916.932	14602
917.044	14587
917.156	14423
917.268	14484
917.38	14442
917.491	14480
917.603	14419
917.715	14568
917.826	14473
917.938	14412
918.049	14294
918.161	14324
918.272	14507
918.384	14552
918.495	14396
918.606	14252
918.717	14221
918.828	14142
918.939	14183
919.05	14164
919.161	14191
919.272	14001
919.383	14107
919.494	14210
919.604	14434
919.715	14157
919.826	14001
919.936	14084
920.047	14206
920.157	14180
920.267	14377
920.378	14221
920.488	14134
920.598	14282
920.708	14400
920.818	14313
920.928	14210
921.038	14473
921.148	14351
921.258	14252
921.368	14027
921.477	13967
921.587	13822
921.697	13841
921.806	13913
921.916	13791
922.025	13632
922.134	13559
922.244	13639
922.353	13590
922.462	13483
922.571	13350
922.68	13232
922.789	13247
922.898	13251
923.007	13225
923.116	13251
923.224	13259
923.333	13141
923.442	13133
923.55	13053
923.659	13057
923.767	13042
923.876	13053
923.984	13088
924.092	12954
924.201	13004
924.309	13137
924.417	12928
924.525	12886
924.633	12977
924.741	13864
924.849	12681
924.956	12844
925.064	12681
925.172	12597
925.279	12563
925.387	12707
925.494	12604
925.602	12783
925.709	12738
925.816	12574
925.924	12551
926.031	12753
926.138	12658
926.245	12574
926.352	12452
926.459	12665
926.566	12563
926.673	12540
926.779	12384
926.886	12441
926.993	12319
927.099	12194
927.206	12178
927.312	12117
927.419	12205
927.525	12266
927.631	12254
927.737	12194
927.843	12060
927.95	11977
928.056	11939
928.162	12019
928.267	12129
928.373	12684
928.479	12083
928.585	11996
928.69	12022
928.796	12003
928.901	11889
929.007	11680
929.112	11958
929.218	11802
929.323	11851
929.428	11756
929.533	11897
929.638	11802
929.743	11722
929.848	11798
929.953	11737
930.058	11627
930.163	11467
930.267	11478
930.372	11611
930.477	11463
930.581	11710
930.685	11516
930.79	11398
930.894	11315
930.998	11326
931.103	11459
931.207	11067
931.311	11041
931.415	10889
931.519	10854
931.623	10744
