Data from test_V78500241_2637.txt Node
Date: Fri Mar 25 15:28:13 CST 2022
User: usil
Spectrometer: V785-0024
Trigger mode: 0
Integration Time (sec): 4.000000E-1
Scans to average: 1
Nonlinearity correction enabled: false
Boxcar width: 0
Storing dark spectrum: false
XAxis mode: Wavelengths
Number of Pixels in Spectrum: 1024
>>>>>Begin Spectral Data<<<<<
801.071	27081
801.214	27138
801.356	26944
801.499	26872
801.641	26636
801.783	26640
801.926	26716
802.068	26678
802.211	26541
802.353	26632
802.496	26286
802.638	26244
802.78	26339
802.923	26347
803.065	26096
803.208	26267
803.35	26355
803.492	26412
803.635	26575
803.777	26499
803.919	26533
804.061	26849
804.204	26415
804.346	26465
804.488	26434
804.63	26492
804.773	26351
804.915	26438
805.057	26514
805.199	26476
805.341	26545
805.483	26640
805.626	26606
805.768	26393
805.91	26473
806.052	26621
806.194	26533
806.336	26750
806.478	26511
806.62	26689
806.762	26663
806.904	26838
807.046	27070
807.188	26883
807.33	26975
807.472	27036
807.614	26982
807.756	26819
807.898	26861
808.04	26785
808.182	26849
808.324	26891
808.465	26830
808.607	27150
808.749	27108
808.891	27275
809.033	27275
809.174	27195
809.316	27176
809.458	27260
809.6	27089
809.741	27302
809.883	27359
810.025	27504
810.166	27466
810.308	27439
810.45	27199
810.591	27237
810.733	27184
810.875	27108
811.016	27013
811.158	27207
811.299	27340
811.441	27188
811.582	27233
811.724	27233
811.865	27150
812.007	27100
812.148	27222
812.29	27233
812.431	27283
812.573	27313
812.714	27523
812.855	27564
812.997	27580
813.138	27953
813.279	27663
813.421	27591
813.562	27477
813.703	27386
813.845	27207
813.986	27104
814.127	26933
814.268	26876
814.41	26861
814.551	26594
814.692	26864
814.833	26670
814.974	26815
815.115	26826
815.256	26667
815.397	26556
815.539	26781
815.68	26648
815.821	26629
815.962	26640
816.103	26651
816.244	26339
816.385	26484
816.526	26343
816.666	26191
816.807	26046
816.948	26115
817.089	26157
817.23	26218
817.371	26035
817.512	26046
817.653	25970
817.793	25940
817.934	26088
818.075	26050
818.216	26043
818.356	25963
818.497	26016
818.638	25769
818.778	25784
818.919	25902
819.06	25898
819.2	26008
819.341	26020
819.481	26012
819.622	26202
819.762	26404
819.903	26275
820.043	26347
820.184	26259
820.324	26012
820.465	26195
820.605	26298
820.746	26164
820.886	26157
821.026	26256
821.167	26031
821.307	26100
821.447	26016
821.588	25890
821.728	25849
821.868	25708
822.008	25529
822.149	25472
822.289	25457
822.429	25232
822.569	25141
822.709	25247
822.849	25084
822.99	25072
823.13	25019
823.27	24909
823.41	24856
823.55	24665
823.69	24825
823.83	24741
823.97	24608
824.11	24711
824.25	24612
824.389	24684
824.529	24684
824.669	24821
824.809	24787
824.949	24798
825.089	24642
825.228	24673
825.368	24433
825.508	24597
825.648	24521
825.787	24547
825.927	24631
826.067	24464
826.206	24448
826.346	24597
826.485	24601
826.625	24574
826.765	24608
826.904	24513
827.044	24319
827.183	24251
827.323	24323
827.462	24384
827.601	24254
827.741	24129
827.88	24194
828.02	24167
828.159	24133
828.298	24258
828.437	24330
828.577	24076
828.716	24327
828.855	24110
828.994	24007
829.134	24060
829.273	23988
829.412	23889
829.551	23855
829.69	23977
829.829	23977
829.968	23946
830.107	24125
830.246	23935
830.385	23901
830.524	23863
830.663	23863
830.802	23699
830.941	23589
831.08	23611
831.219	23627
831.357	23710
831.496	23756
831.635	23649
831.774	23562
831.913	23330
832.051	23379
832.19	23299
832.329	23467
832.467	23311
832.606	23159
832.744	23254
832.883	23273
833.022	23406
833.16	23258
833.299	23440
833.437	23204
833.576	23326
833.714	23341
833.852	23436
833.991	23341
834.129	23433
834.267	23280
834.406	23391
834.544	23242
834.682	23174
834.821	23360
834.959	23284
835.097	23231
835.235	23269
835.373	23242
835.511	23170
835.65	23235
835.788	23147
835.926	23048
836.064	22934
836.202	22999
836.34	23254
836.478	23216
836.615	23132
836.753	23143
836.891	23261
837.029	23006
837.167	23151
837.305	22995
837.443	23079
837.58	22930
837.718	23044
837.856	23121
837.993	23014
838.131	23086
838.269	22866
838.406	22877
838.544	22873
838.681	22573
838.819	22500
838.956	22478
839.094	22455
839.231	22485
839.369	22778
839.506	22885
839.643	22736
839.781	22489
839.918	22322
840.055	22527
840.193	22584
840.33	22440
840.467	22447
840.604	22440
840.742	22710
840.879	22325
841.016	22459
841.153	22424
841.29	22485
841.427	22455
841.564	22424
841.701	22478
841.838	22386
841.975	22249
842.112	22462
842.249	22223
842.385	22238
842.522	22402
842.659	22295
842.796	22158
842.933	22219
843.069	22226
843.206	22116
843.343	22192
843.479	22238
843.616	22116
843.752	21774
843.889	21983
844.025	22078
844.162	22006
844.298	22063
844.435	21930
844.571	21953
844.708	22116
844.844	22078
844.98	22059
845.117	22105
845.253	21819
845.389	21907
845.525	21842
845.661	21739
845.798	21701
845.934	21747
846.07	21808
846.206	21755
846.342	21800
846.478	21652
846.614	21515
846.75	21359
846.886	21428
847.022	21549
847.158	21481
847.294	21462
847.429	21511
847.565	21458
847.701	21568
847.837	21161
847.972	21203
848.108	21207
848.244	21256
848.379	21066
848.515	20921
848.65	21066
848.786	20967
848.921	21077
849.057	21256
849.192	21119
849.328	20990
849.463	21062
849.598	20921
849.734	20941
849.869	20941
850.004	20845
850.14	20845
850.275	20796
850.41	20845
850.545	20651
850.68	20720
850.815	20838
850.95	20750
851.085	20864
851.22	20895
851.355	20815
851.49	20727
851.625	20845
851.76	20838
851.895	20670
852.03	20651
852.165	20834
852.299	20918
852.434	20868
852.569	20815
852.703	20788
852.838	20853
852.973	20857
853.107	20929
853.242	20796
853.376	20587
853.511	20556
853.645	20560
853.78	20636
853.914	20674
854.048	20526
854.183	20617
854.317	20629
854.451	20815
854.585	20640
854.72	20663
854.854	20807
854.988	20522
855.122	20678
855.256	20632
855.39	20750
855.524	20655
855.658	20663
855.792	20568
855.926	20686
856.06	20769
856.194	20720
856.327	20632
856.461	20583
856.595	20552
856.729	20571
856.862	20693
856.996	20632
857.13	20697
857.263	20796
857.397	20777
857.53	20583
857.664	20777
857.797	20579
857.931	20667
858.064	20758
858.197	20667
858.331	20655
858.464	20499
858.597	20533
858.731	20609
858.864	20617
858.997	20583
859.13	20560
859.263	20678
859.396	20636
859.529	20564
859.662	20674
859.795	20541
859.928	20583
860.061	20796
860.194	20899
860.327	20625
860.46	20716
860.592	20785
860.725	20716
860.858	20716
860.99	20594
861.123	20708
861.256	20552
861.388	20674
861.521	21325
861.653	20503
861.786	20442
861.918	20465
862.05	20587
862.183	20644
862.315	20556
862.447	20583
862.58	20480
862.712	20252
862.844	20191
862.976	20320
863.108	20275
863.24	20861
863.372	20221
863.504	20225
863.636	20431
863.768	20389
863.9	20229
864.032	20305
864.164	20275
864.296	20370
864.428	20389
864.559	20476
864.691	20431
864.823	20339
864.954	20339
865.086	20275
865.217	20267
865.349	20248
865.48	20271
865.612	20317
865.743	20248
865.875	20233
866.006	20259
866.137	20282
866.269	20298
866.4	20172
866.531	20202
866.662	20176
866.793	20176
866.924	20221
867.055	20161
867.186	20103
867.317	20199
867.448	20081
867.579	20221
867.71	20088
867.841	20092
867.972	20244
868.103	20199
868.233	20172
868.364	20130
868.495	20237
868.625	20351
868.756	20579
868.886	20263
869.017	20419
869.147	20549
869.278	20587
869.408	20522
869.539	20476
869.669	20488
869.799	20431
869.929	20571
870.06	20560
870.19	20697
870.32	20701
870.45	20731
870.58	20864
870.71	20971
870.84	21020
870.97	20834
871.1	20788
871.23	21146
871.36	21036
871.489	20975
871.619	21135
871.749	20998
871.879	21009
872.008	21108
872.138	20963
872.267	21066
872.397	20971
872.526	20815
872.656	20921
872.785	20823
872.915	21032
873.044	21043
873.173	21127
873.303	21222
873.432	21123
873.561	21066
873.69	20960
873.819	21051
873.948	21192
874.077	21013
874.206	20994
874.335	21077
874.464	21211
874.593	21211
874.722	21157
874.851	21344
874.979	21363
875.108	21283
875.237	21252
875.365	21252
875.494	21138
875.623	21405
875.751	21268
875.88	21241
876.008	21268
876.136	21473
876.265	21770
876.393	21739
876.521	21778
876.65	21652
876.778	21686
876.906	21736
877.034	21610
877.162	21652
877.29	21606
877.418	21679
877.546	21717
877.674	21564
877.802	21679
877.93	21705
878.058	21591
878.185	21473
878.313	21511
878.441	21667
878.568	21443
878.696	21561
878.824	21755
878.951	21698
879.079	21759
879.206	21968
879.333	21846
879.461	21656
879.588	21675
879.715	21835
879.842	21945
879.97	21717
880.097	21534
880.224	21428
880.351	21530
880.478	21610
880.605	21344
880.732	21462
880.859	21599
880.986	21488
881.112	21542
881.239	21260
881.366	21211
881.493	21142
881.619	20929
881.746	21138
881.872	21047
881.999	20937
882.125	21013
882.252	21142
882.378	21176
882.505	21058
882.631	20963
882.757	20796
882.883	20826
883.01	20712
883.136	20727
883.262	20758
883.388	20560
883.514	20758
883.64	20750
883.766	20663
883.892	20583
884.018	20545
884.143	20629
884.269	20834
884.395	20518
884.52	20404
884.646	20434
884.772	20221
884.897	20332
885.023	20473
885.148	20488
885.274	20480
885.399	20457
885.524	20507
885.65	20492
885.775	20442
885.9	20339
886.025	20457
886.15	20552
886.275	20317
886.4	20271
886.525	20339
886.65	20263
886.775	20298
886.9	20469
887.025	20651
887.149	20301
887.274	20317
887.399	20244
887.523	20138
887.648	20183
887.773	20058
887.897	20183
888.021	20206
888.146	20191
888.27	20244
888.395	20267
888.519	20164
888.643	20298
888.767	20263
888.891	20130
889.015	20043
889.139	20092
889.263	20020
889.387	20027
889.511	20191
889.635	20115
889.759	19917
889.883	19936
890.006	20005
890.13	20092
890.254	19978
890.377	19944
890.501	19670
890.624	19734
890.748	19845
890.871	19681
890.995	19540
891.118	19495
891.241	19620
891.364	19628
891.488	19616
891.611	19651
891.734	19575
891.857	19632
891.98	19563
892.103	19761
892.226	19563
892.349	19476
892.471	19362
892.594	19559
892.717	19487
892.839	19343
892.962	19506
893.085	19480
893.207	19419
893.33	19400
893.452	19377
893.575	19632
893.697	19582
893.819	19628
893.941	19685
894.064	19674
894.186	19472
894.308	19529
894.43	19578
894.552	19578
894.674	19571
894.796	19362
894.918	19544
895.04	19506
895.161	19594
895.283	19487
895.405	19472
895.526	19487
895.648	19556
895.769	19476
895.891	19460
896.012	19586
896.134	19491
896.255	19578
896.376	19453
896.498	19441
896.619	19575
896.74	19540
896.861	19521
896.982	19928
897.103	20126
897.224	19776
897.345	19807
897.466	19677
897.587	19712
897.708	20005
897.828	19655
897.949	19628
898.07	19559
898.19	19666
898.311	19845
898.431	19677
898.552	19719
898.672	19909
898.792	19860
898.913	19632
899.033	19704
899.153	19480
899.273	19457
899.393	19506
899.513	19537
899.633	19502
899.753	19544
899.873	19472
899.993	19529
900.113	19460
900.232	19514
900.352	19384
900.472	19221
900.591	19308
900.711	19225
900.83	19209
900.95	19278
901.069	19365
901.189	19114
901.308	18977
901.427	18962
901.546	18817
901.665	18829
901.784	18840
901.904	18768
902.023	18627
902.141	18525
902.26	18410
902.379	18627
902.498	18494
902.617	18433
902.735	18448
902.854	18289
902.973	18334
903.091	18045
903.21	18083
903.328	17996
903.446	18041
903.565	17893
903.683	17942
903.801	17802
903.919	17870
904.038	17859
904.156	17566
904.274	17775
904.392	17577
904.51	17634
904.627	17691
904.745	17615
904.863	17726
904.981	17379
905.098	17326
905.216	17315
905.334	17364
905.451	17387
905.569	17277
905.686	17265
905.803	17307
905.921	17178
906.038	17136
906.155	17094
906.272	16976
906.389	17045
906.506	16866
906.623	16854
906.74	16835
906.857	16706
906.974	16679
907.091	16850
907.208	16923
907.324	16839
907.441	16759
907.557	16603
907.674	16592
907.79	16527
907.907	16554
908.023	16649
908.139	16542
908.256	16588
908.372	16443
908.488	16440
908.604	16291
908.72	16329
908.836	16284
908.952	16265
909.068	16295
909.184	16379
909.3	16204
909.415	16382
909.531	16276
909.647	16120
909.762	15979
909.878	16036
909.993	16071
910.108	16010
910.224	16036
910.339	15983
910.454	15964
910.57	15816
910.685	15774
910.8	15983
910.915	15934
911.03	15785
911.145	15724
911.259	15618
911.374	15614
911.489	15572
911.604	15545
911.718	15332
911.833	15542
911.947	15272
912.062	15241
912.176	15405
912.291	15420
912.405	15458
912.519	15534
912.633	15549
912.748	15424
912.862	15313
912.976	15252
913.09	15154
913.204	15093
913.318	15211
913.431	15245
913.545	15252
913.659	15325
913.772	15184
913.886	15028
914	14937
914.113	15066
914.226	15100
914.34	15043
914.453	14952
914.566	15009
914.68	14899
914.793	14883
914.906	14667
915.019	14674
915.132	14552
915.245	14533
915.358	14602
915.47	14571
915.583	14606
915.696	14754
915.809	14762
915.921	14796
916.034	14549
916.146	14461
916.259	14568
916.371	14594
916.483	14598
916.595	14488
916.708	14396
916.82	14450
916.932	14415
917.044	14431
917.156	14465
917.268	14240
917.38	14374
917.491	14278
917.603	14362
917.715	14317
917.826	14370
917.938	14130
918.049	14161
918.161	14324
918.272	14385
918.384	14347
918.495	14294
918.606	14081
918.717	14035
918.828	14092
918.939	14123
919.05	13986
919.161	14058
919.272	13917
919.383	13909
919.494	14157
919.604	14294
919.715	14035
919.826	13852
919.936	14001
920.047	14062
920.157	14024
920.267	14267
920.378	14142
920.488	13936
920.598	14115
920.708	14328
920.818	14214
920.928	14176
921.038	14343
921.148	14259
921.258	14027
921.368	13894
921.477	13765
921.587	13814
921.697	13674
921.806	13845
921.916	13616
922.025	13476
922.134	13422
922.244	13346
922.353	13457
922.462	13373
922.571	13274
922.68	13114
922.789	13179
922.898	13099
923.007	13069
923.116	13129
923.224	13050
923.333	13069
923.442	12886
923.55	12909
923.659	12958
923.767	13038
923.876	12894
923.984	12932
924.092	12726
924.201	12867
924.309	12901
924.417	12901
924.525	12726
924.633	12829
924.741	13719
924.849	12551
924.956	12608
925.064	12608
925.172	12471
925.279	12448
925.387	12540
925.494	12513
925.602	12650
925.709	12536
925.816	12410
925.924	12399
926.031	12521
926.138	12483
926.245	12475
926.352	12418
926.459	12555
926.566	12544
926.673	12346
926.779	12228
926.886	12182
926.993	12167
927.099	12091
927.206	12076
927.312	12015
927.419	12106
927.525	12091
927.631	12148
927.737	11958
927.843	11878
927.95	11851
928.056	11889
928.162	11961
928.267	11946
928.373	12513
928.479	11992
928.585	11764
928.69	11904
928.796	11965
928.901	11832
929.007	11649
929.112	11874
929.218	11703
929.323	11775
929.428	11668
929.533	11897
929.638	11566
929.743	11653
929.848	11691
929.953	11600
930.058	11452
930.163	11372
930.267	11360
930.372	11448
930.477	11345
930.581	11577
930.685	11391
930.79	11326
930.894	11364
930.998	11231
931.103	11421
931.207	11056
931.311	10869
931.415	10896
931.519	10721
931.623	10641
