Data from test_V78500241_2051.txt Node
Date: Fri Mar 25 15:24:08 CST 2022
User: usil
Spectrometer: V785-0024
Trigger mode: 0
Integration Time (sec): 4.000000E-1
Scans to average: 1
Nonlinearity correction enabled: false
Boxcar width: 0
Storing dark spectrum: false
XAxis mode: Wavelengths
Number of Pixels in Spectrum: 1024
>>>>>Begin Spectral Data<<<<<
801.071	27827
801.214	27606
801.356	27534
801.499	27427
801.641	27329
801.783	27370
801.926	27435
802.068	27313
802.211	27302
802.353	27264
802.496	26899
802.638	26960
802.78	27039
802.923	26842
803.065	26823
803.208	26800
803.35	27005
803.492	27119
803.635	27180
803.777	27039
803.919	27184
804.061	27447
804.204	27195
804.346	27058
804.488	27085
804.63	27055
804.773	27089
804.915	27127
805.057	27237
805.199	27070
805.341	27275
805.483	27329
805.626	27336
805.768	27150
805.91	27393
806.052	27393
806.194	27112
806.336	27466
806.478	27287
806.62	27165
806.762	27279
806.904	27473
807.046	27819
807.188	27720
807.33	27694
807.472	27816
807.614	27572
807.756	27583
807.898	27511
808.04	27618
808.182	27431
808.324	27534
808.465	27660
808.607	27846
808.749	27880
808.891	28032
809.033	28044
809.174	28135
809.316	27819
809.458	27956
809.6	27937
809.741	27956
809.883	27941
810.025	28082
810.166	28135
810.308	28120
810.45	28120
810.591	28074
810.733	27911
810.875	27789
811.016	27667
811.158	27682
811.299	27979
811.441	28044
811.582	28067
811.724	27895
811.865	27846
812.007	27972
812.148	27846
812.29	27972
812.431	28021
812.573	28299
812.714	28276
812.855	28238
812.997	28573
813.138	28653
813.279	28538
813.421	28527
813.562	28356
813.703	28249
813.845	28032
813.986	27846
814.127	27637
814.268	27671
814.41	27545
814.551	27641
814.692	27644
814.833	27317
814.974	27629
815.115	27671
815.256	27359
815.397	27310
815.539	27443
815.68	27325
815.821	27169
815.962	27458
816.103	27233
816.244	27233
816.385	27226
816.526	27214
816.666	26994
816.807	26830
816.948	26925
817.089	27020
817.23	26902
817.371	27070
817.512	26849
817.653	26773
817.793	26868
817.934	26792
818.075	26853
818.216	26857
818.356	26758
818.497	26750
818.638	26636
818.778	26511
818.919	26575
819.06	26743
819.2	26670
819.341	26857
819.481	26937
819.622	27032
819.762	27146
819.903	27081
820.043	27001
820.184	27017
820.324	26929
820.465	27112
820.605	26891
820.746	26918
820.886	26765
821.026	26956
821.167	26921
821.307	26948
821.447	26891
821.588	26758
821.728	26655
821.868	26457
822.008	26339
822.149	26317
822.289	26240
822.429	26058
822.569	26024
822.709	25955
822.849	25909
822.99	25894
823.13	25811
823.27	25689
823.41	25670
823.55	25426
823.69	25582
823.83	25609
823.97	25597
824.11	25339
824.25	25392
824.389	25479
824.529	25689
824.669	25411
824.809	25582
824.949	25487
825.089	25559
825.228	25392
825.368	25251
825.508	25251
825.648	25217
825.787	25354
825.927	25297
826.067	25259
826.206	25316
826.346	25434
826.485	25304
826.625	25388
826.765	25331
826.904	25476
827.044	25072
827.183	25160
827.323	25065
827.462	25091
827.601	24966
827.741	25000
827.88	25008
828.02	24875
828.159	24996
828.298	25000
828.437	25069
828.577	25023
828.716	25103
828.855	24951
828.994	24833
829.134	24669
829.273	24833
829.412	24722
829.551	24589
829.69	24814
829.829	24802
829.968	24730
830.107	24882
830.246	24722
830.385	24821
830.524	24574
830.663	24570
830.802	24380
830.941	24350
831.08	24357
831.219	24521
831.357	24494
831.496	24517
831.635	24346
831.774	24342
831.913	24311
832.051	24209
832.19	24216
832.329	24155
832.467	23988
832.606	23908
832.744	23958
832.883	24007
833.022	23824
833.16	24022
833.299	24163
833.437	24102
833.576	23942
833.714	24129
833.852	24091
833.991	24068
834.129	24167
834.267	24148
834.406	24064
834.544	24133
834.682	24045
834.821	24038
834.959	24319
835.097	23969
835.235	24091
835.373	24091
835.511	24068
835.65	23969
835.788	23965
835.926	23779
836.064	23695
836.202	23718
836.34	23828
836.478	23946
836.615	23931
836.753	23893
836.891	23931
837.029	23874
837.167	23882
837.305	23733
837.443	23790
837.58	23817
837.718	23767
837.856	23798
837.993	23703
838.131	23771
838.269	23608
838.406	23741
838.544	23501
838.681	23452
838.819	23299
838.956	23280
839.094	23109
839.231	23250
839.369	23459
839.506	23623
839.643	23459
839.781	23166
839.918	23254
840.055	23239
840.193	23200
840.33	23208
840.467	23250
840.604	23075
840.742	23410
840.879	23037
841.016	23018
841.153	23064
841.29	23216
841.427	23178
841.564	23197
841.701	23189
841.838	23060
841.975	23025
842.112	23117
842.249	22896
842.385	23025
842.522	23105
842.659	22854
842.796	22809
842.933	22953
843.069	22927
843.206	22892
843.343	22984
843.479	22835
843.616	22801
843.752	22706
843.889	22763
844.025	22763
844.162	22717
844.298	22729
844.435	22736
844.571	22580
844.708	22675
844.844	22763
844.98	22740
845.117	22797
845.253	22573
845.389	22500
845.525	22550
845.661	22478
845.798	22462
845.934	22333
846.07	22322
846.206	22455
846.342	22405
846.478	22466
846.614	22249
846.75	21994
846.886	22116
847.022	22173
847.158	22223
847.294	22090
847.429	22196
847.565	22147
847.701	22367
847.837	21892
847.972	21945
848.108	21854
848.244	21892
848.379	21774
848.515	21724
848.65	21686
848.786	21656
848.921	21743
849.057	21831
849.192	21819
849.328	21724
849.463	21603
849.598	21701
849.734	21675
849.869	21504
850.004	21549
850.14	21580
850.275	21458
850.41	21393
850.545	21511
850.68	21458
850.815	21447
850.95	21496
851.085	21618
851.22	21496
851.355	21473
851.49	21530
851.625	21481
851.76	21374
851.895	21439
852.03	21374
852.165	21355
852.299	21424
852.434	21557
852.569	21572
852.703	21370
852.838	21561
852.973	21603
853.107	21629
853.242	21363
853.376	21416
853.511	21203
853.645	21329
853.78	21511
853.914	21287
854.048	21370
854.183	21211
854.317	21214
854.451	21450
854.585	21321
854.72	21401
854.854	21348
854.988	21329
855.122	21359
855.256	21249
855.39	21283
855.524	21443
855.658	21416
855.792	21325
855.926	21291
856.06	21351
856.194	21389
856.327	21252
856.461	21249
856.595	21142
856.729	21291
856.862	21458
856.996	21382
857.13	21401
857.263	21351
857.397	21348
857.53	21214
857.664	21310
857.797	21317
857.931	21458
858.064	21275
858.197	21329
858.331	21336
858.464	21131
858.597	21237
858.731	21260
858.864	21211
858.997	21161
859.13	21340
859.263	21325
859.396	21370
859.529	21329
859.662	21272
859.795	21264
859.928	21306
860.061	21393
860.194	21500
860.327	21260
860.46	21443
860.592	21435
860.725	21443
860.858	21466
860.99	21355
861.123	21264
861.256	21351
861.388	21336
861.521	21915
861.653	21161
861.786	21017
861.918	21138
862.05	21218
862.183	21264
862.315	21157
862.447	21226
862.58	21279
862.712	21176
862.844	20948
862.976	21135
863.108	21085
863.24	21469
863.372	21005
863.504	21028
863.636	20971
863.768	21066
863.9	20921
864.032	20933
864.164	20986
864.296	21032
864.428	21165
864.559	21005
864.691	21036
864.823	21043
864.954	20971
865.086	21024
865.217	20891
865.349	20975
865.48	20963
865.612	20929
865.743	20979
865.875	20937
866.006	20823
866.137	20895
866.269	20937
866.4	20910
866.531	20880
866.662	20792
866.793	20754
866.924	20804
867.055	20853
867.186	20823
867.317	20861
867.448	20834
867.579	20773
867.71	20765
867.841	20781
867.972	20826
868.103	20872
868.233	20842
868.364	20857
868.495	20921
868.625	21001
868.756	21138
868.886	20956
869.017	21020
869.147	21169
869.278	21123
869.408	21100
869.539	21001
869.669	21100
869.799	21169
869.929	21233
870.06	21188
870.19	21393
870.32	21397
870.45	21408
870.58	21462
870.71	21580
870.84	21542
870.97	21412
871.1	21496
871.23	21557
871.36	21705
871.489	21625
871.619	21690
871.749	21648
871.879	21656
872.008	21789
872.138	21652
872.267	21633
872.397	21545
872.526	21454
872.656	21507
872.785	21485
872.915	21644
873.044	21819
873.173	21644
873.303	21736
873.432	21827
873.561	21770
873.69	21747
873.819	21679
873.948	21785
874.077	21770
874.206	21622
874.335	21675
874.464	21713
874.593	21907
874.722	22002
874.851	21998
874.979	21922
875.108	21964
875.237	21911
875.365	21956
875.494	21983
875.623	21945
875.751	21918
875.88	21915
876.008	22078
876.136	22067
876.265	22329
876.393	22455
876.521	22436
876.65	22417
876.778	22329
876.906	22242
877.034	22314
877.162	22379
877.29	22162
877.418	22188
877.546	22272
877.674	22314
877.802	22215
877.93	22211
878.058	22257
878.185	22192
878.313	22177
878.441	22299
878.568	22112
878.696	22291
878.824	22318
878.951	22344
879.079	22379
879.206	22436
879.333	22474
879.461	22249
879.588	22447
879.715	22519
879.842	22615
879.97	22352
880.097	22128
880.224	22166
880.351	22147
880.478	22067
880.605	22048
880.732	22074
880.859	22398
880.986	22124
881.112	22158
881.239	21873
881.366	21808
881.493	21736
881.619	21766
881.746	21800
881.872	21652
881.999	21572
882.125	21587
882.252	21766
882.378	21633
882.505	21774
882.631	21488
882.757	21447
882.883	21443
883.01	21420
883.136	21332
883.262	21070
883.388	21195
883.514	21279
883.64	21389
883.766	21348
883.892	21173
884.018	21150
884.143	21393
884.269	21367
884.395	21077
884.52	21017
884.646	21074
884.772	21024
884.897	20842
885.023	20948
885.148	21104
885.274	21146
885.399	21096
885.524	20960
885.65	20982
885.775	21036
885.9	21131
886.025	21195
886.15	21108
886.275	21013
886.4	20967
886.525	20918
886.65	20906
886.775	20834
886.9	21074
887.025	21245
887.149	20971
887.274	20785
887.399	20834
887.523	20785
887.648	20750
887.773	20708
887.897	20861
888.021	20708
888.146	20769
888.27	20910
888.395	20971
888.519	20838
888.643	20773
888.767	20823
888.891	20686
889.015	20568
889.139	20716
889.263	20484
889.387	20758
889.511	20739
889.635	20705
889.759	20606
889.883	20488
890.006	20564
890.13	20705
890.254	20450
890.377	20533
890.501	20324
890.624	20252
890.748	20286
890.871	20393
890.995	20206
891.118	20103
891.241	20161
891.364	20111
891.488	20404
891.611	20081
891.734	20191
891.857	20301
891.98	20157
892.103	20294
892.226	20153
892.349	20122
892.471	20005
892.594	19974
892.717	20119
892.839	20073
892.962	20126
893.085	20142
893.207	20100
893.33	19963
893.452	20081
893.575	20077
893.697	20005
893.819	20214
893.941	20267
894.064	20138
894.186	20039
894.308	20062
894.43	20062
894.552	20218
894.674	20206
894.796	19890
894.918	20027
895.04	20077
895.161	20081
895.283	20088
895.405	20046
895.526	20031
895.648	19951
895.769	20027
895.891	20024
896.012	20225
896.134	20259
896.255	20077
896.376	20050
896.498	20126
896.619	20084
896.74	20157
896.861	20100
896.982	20374
897.103	20537
897.224	20317
897.345	20328
897.466	20157
897.587	20313
897.708	20313
897.828	20313
897.949	20126
898.07	20035
898.19	20298
898.311	20282
898.431	20202
898.552	20301
898.672	20343
898.792	20332
898.913	20290
899.033	20229
899.153	20084
899.273	20020
899.393	20050
899.513	19970
899.633	20100
899.753	20054
899.873	20005
899.993	20005
900.113	19982
900.232	19947
900.352	19928
900.472	19917
900.591	19761
900.711	19932
900.83	19765
900.95	19978
901.069	19856
901.189	19655
901.308	19582
901.427	19430
901.546	19388
901.665	19400
901.784	19346
901.904	19251
902.023	19179
902.141	19038
902.26	18932
902.379	18966
902.498	18905
902.617	18833
902.735	18951
902.854	18856
902.973	18844
903.091	18631
903.21	18570
903.328	18540
903.446	18475
903.565	18353
903.683	18369
903.801	18213
903.919	18327
904.038	18281
904.156	18152
904.274	18197
904.392	18049
904.51	18102
904.627	18091
904.745	18224
904.863	18220
904.981	18041
905.098	17828
905.216	17885
905.334	17840
905.451	17851
905.569	17703
905.686	17798
905.803	17794
905.921	17649
906.038	17737
906.155	17729
906.272	17551
906.389	17562
906.506	17440
906.623	17387
906.74	17478
906.857	17284
906.974	17269
907.091	17330
907.208	17509
907.324	17429
907.441	17242
907.557	17185
907.674	17086
907.79	17098
907.907	17075
908.023	17086
908.139	16919
908.256	17048
908.372	16923
908.488	16900
908.604	16911
908.72	16824
908.836	16809
908.952	16744
909.068	16816
909.184	16839
909.3	16771
909.415	16831
909.531	16828
909.647	16546
909.762	16634
909.878	16402
909.993	16519
910.108	16504
910.224	16390
910.339	16489
910.454	16421
910.57	16322
910.685	16238
910.8	16573
910.915	16402
911.03	16325
911.145	16143
911.259	16097
911.374	15983
911.489	15968
911.604	15960
911.718	15797
911.833	15850
911.947	15747
912.062	15660
912.176	15682
912.291	15774
912.405	15800
912.519	15964
912.633	16032
912.748	15827
912.862	15751
912.976	15762
913.09	15618
913.204	15538
913.318	15652
913.431	15724
913.545	15785
913.659	15641
913.772	15637
913.886	15572
914	15443
914.113	15553
914.226	15515
914.34	15481
914.453	15203
914.566	15466
914.68	15340
914.793	15321
914.906	15161
915.019	15055
915.132	14963
915.245	15039
915.358	15017
915.47	15077
915.583	15104
915.696	15184
915.809	15165
915.921	15203
916.034	14998
916.146	14887
916.259	14925
916.371	14994
916.483	15100
916.595	14861
916.708	14876
916.82	14906
916.932	14826
917.044	14944
917.156	14823
917.268	14792
917.38	14765
917.491	14667
917.603	14663
917.715	14830
917.826	14788
917.938	14594
918.049	14537
918.161	14712
918.272	14788
918.384	14777
918.495	14659
918.606	14457
918.717	14412
918.828	14454
918.939	14370
919.05	14442
919.161	14488
919.272	14237
919.383	14309
919.494	14495
919.604	14758
919.715	14495
919.826	14457
919.936	14343
920.047	14492
920.157	14442
920.267	14636
920.378	14457
920.488	14427
920.598	14613
920.708	14743
920.818	14499
920.928	14480
921.038	14670
921.148	14655
921.258	14358
921.368	14351
921.477	14164
921.587	14142
921.697	14031
921.806	14172
921.916	14065
922.025	13841
922.134	13887
922.244	13826
922.353	13887
922.462	13723
922.571	13651
922.68	13377
922.789	13525
922.898	13514
923.007	13373
923.116	13605
923.224	13403
923.333	13468
923.442	13259
923.55	13278
923.659	13247
923.767	13320
923.876	13308
923.984	13213
924.092	13304
924.201	13259
924.309	13217
924.417	13126
924.525	13156
924.633	13107
924.741	13887
924.849	12943
924.956	13042
925.064	12916
925.172	12833
925.279	12806
925.387	12833
925.494	12852
925.602	12993
925.709	12951
925.816	12757
925.924	12806
926.031	12962
926.138	12833
926.245	12749
926.352	12768
926.459	12844
926.566	12894
926.673	12730
926.779	12597
926.886	12585
926.993	12486
927.099	12460
927.206	12395
927.312	12350
927.419	12517
927.525	12441
927.631	12403
927.737	12273
927.843	12338
927.95	12136
928.056	12247
928.162	12270
928.267	12346
928.373	12947
928.479	12304
928.585	12098
928.69	12243
928.796	12254
928.901	12171
929.007	12072
929.112	12243
929.218	12098
929.323	12110
929.428	12079
929.533	12106
929.638	12011
929.743	11973
929.848	11980
929.953	11946
930.058	11866
930.163	11649
930.267	11729
930.372	11859
930.477	11570
930.581	11863
930.685	11630
930.79	11478
930.894	11627
930.998	11512
931.103	11691
931.207	11303
931.311	11322
931.415	11166
931.519	10923
931.623	10942
