Data from test_V78500241_3421.txt Node
Date: Fri Mar 25 15:33:40 CST 2022
User: usil
Spectrometer: V785-0024
Trigger mode: 0
Integration Time (sec): 4.000000E-1
Scans to average: 1
Nonlinearity correction enabled: false
Boxcar width: 0
Storing dark spectrum: false
XAxis mode: Wavelengths
Number of Pixels in Spectrum: 1024
>>>>>Begin Spectral Data<<<<<
801.071	27294
801.214	27165
801.356	27001
801.499	26940
801.641	26769
801.783	26807
801.926	26842
802.068	26921
802.211	26674
802.353	26648
802.496	26465
802.638	26503
802.78	26355
802.923	26301
803.065	26202
803.208	26290
803.35	26450
803.492	26552
803.635	26640
803.777	26438
803.919	26575
804.061	26994
804.204	26678
804.346	26590
804.488	26450
804.63	26476
804.773	26370
804.915	26541
805.057	26621
805.199	26518
805.341	26594
805.483	26693
805.626	26701
805.768	26552
805.91	26686
806.052	26727
806.194	26499
806.336	26800
806.478	26781
806.62	26514
806.762	26788
806.904	27135
807.046	27184
807.188	27093
807.33	27180
807.472	27123
807.614	27032
807.756	27036
807.898	27032
808.04	26891
808.182	26815
808.324	26777
808.465	26971
808.607	27154
808.749	27222
808.891	27268
809.033	27370
809.174	27291
809.316	27135
809.458	27291
809.6	27150
809.741	27393
809.883	27310
810.025	27526
810.166	27488
810.308	27485
810.45	27568
810.591	27466
810.733	27252
810.875	27298
811.016	27237
811.158	27108
811.299	27378
811.441	27363
811.582	27321
811.724	27237
811.865	27283
812.007	27283
812.148	27310
812.29	27370
812.431	27450
812.573	27526
812.714	27755
812.855	27698
812.997	27816
813.138	27907
813.279	27945
813.421	27732
813.562	27660
813.703	27488
813.845	27344
813.986	27199
814.127	26906
814.268	26963
814.41	26933
814.551	26929
814.692	26963
814.833	26724
814.974	26906
815.115	26895
815.256	26678
815.397	26788
815.539	26754
815.68	26571
815.821	26731
815.962	26693
816.103	26636
816.244	26632
816.385	26377
816.526	26358
816.666	26332
816.807	26115
816.948	26263
817.089	26256
817.23	26126
817.371	26145
817.512	26206
817.653	26119
817.793	26221
817.934	26195
818.075	26180
818.216	26210
818.356	26065
818.497	26081
818.638	26043
818.778	25776
818.919	25906
819.06	25860
819.2	26039
819.341	26058
819.481	26050
819.622	26294
819.762	26453
819.903	26404
820.043	26351
820.184	26229
820.324	26134
820.465	26176
820.605	26278
820.746	26248
820.886	26012
821.026	26214
821.167	26046
821.307	26492
821.447	26138
821.588	26058
821.728	25966
821.868	25830
822.008	25700
822.149	25620
822.289	25556
822.429	25483
822.569	25304
822.709	25403
822.849	25270
822.99	25133
823.13	25141
823.27	25072
823.41	25000
823.55	24901
823.69	24867
823.83	24909
823.97	24802
824.11	24749
824.25	24749
824.389	24768
824.529	24783
824.669	24711
824.809	24890
824.949	24863
825.089	24787
825.228	24939
825.368	24608
825.508	24612
825.648	24635
825.787	24711
825.927	24692
826.067	24703
826.206	24642
826.346	24608
826.485	24646
826.625	24578
826.765	24681
826.904	24703
827.044	24517
827.183	24505
827.323	24353
827.462	24334
827.601	24437
827.741	24346
827.88	24300
828.02	24186
828.159	24403
828.298	24277
828.437	24410
828.577	24281
828.716	24483
828.855	24190
828.994	24083
829.134	24060
829.273	24148
829.412	24022
829.551	24144
829.69	23946
829.829	24110
829.968	24194
830.107	24152
830.246	24045
830.385	23958
830.524	23961
830.663	23920
830.802	23817
830.941	23608
831.08	23691
831.219	23813
831.357	23805
831.496	23794
831.635	23760
831.774	23547
831.913	23501
832.051	23440
832.19	23482
832.329	23368
832.467	23414
832.606	23444
832.744	23299
832.883	23315
833.022	23284
833.16	23345
833.299	23296
833.437	23326
833.576	23471
833.714	23436
833.852	23383
833.991	23444
834.129	23516
834.267	23421
834.406	23448
834.544	23478
834.682	23509
834.821	23505
834.959	23585
835.097	23490
835.235	23486
835.373	23376
835.511	23474
835.65	23303
835.788	23395
835.926	23113
836.064	23242
836.202	23102
836.34	23280
836.478	23353
836.615	23185
836.753	23242
836.891	23376
837.029	23322
837.167	23223
837.305	23151
837.443	23242
837.58	23033
837.718	23162
837.856	23025
837.993	23010
838.131	23124
838.269	23083
838.406	23018
838.544	22968
838.681	22736
838.819	22778
838.956	22561
839.094	22618
839.231	22744
839.369	22877
839.506	23094
839.643	22892
839.781	22675
839.918	22489
840.055	22797
840.193	22550
840.33	22577
840.467	22504
840.604	22588
840.742	22812
840.879	22497
841.016	22462
841.153	22428
841.29	22569
841.427	22417
841.564	22622
841.701	22489
841.838	22497
841.975	22466
842.112	22382
842.249	22485
842.385	22238
842.522	22512
842.659	22455
842.796	22261
842.933	22398
843.069	22337
843.206	22295
843.343	22337
843.479	22394
843.616	22409
843.752	22105
843.889	22032
844.025	22173
844.162	22082
844.298	22154
844.435	22093
844.571	22082
844.708	22211
844.844	22291
844.98	22318
845.117	22143
845.253	21998
845.389	21964
845.525	21953
845.661	21975
845.798	21819
845.934	22040
846.07	21838
846.206	21892
846.342	22010
846.478	21835
846.614	21580
846.75	21389
846.886	21500
847.022	21694
847.158	21652
847.294	21599
847.429	21526
847.565	21507
847.701	21743
847.837	21393
847.972	21226
848.108	21317
848.244	21378
848.379	21268
848.515	21294
848.65	21192
848.786	21226
848.921	21116
849.057	21249
849.192	21135
849.328	21154
849.463	21119
849.598	21062
849.734	21013
849.869	20857
850.004	20937
850.14	20921
850.275	20937
850.41	20823
850.545	20948
850.68	20826
850.815	20887
850.95	20891
851.085	21020
851.22	21020
851.355	20853
851.49	20963
851.625	21032
851.76	20933
851.895	20785
852.03	20883
852.165	20849
852.299	20777
852.434	20944
852.569	20891
852.703	20906
852.838	20872
852.973	21024
853.107	20963
853.242	20830
853.376	20746
853.511	20746
853.645	20754
853.78	20910
853.914	20735
854.048	20655
854.183	20754
854.317	20682
854.451	20864
854.585	20731
854.72	20727
854.854	20861
854.988	20781
855.122	20720
855.256	20613
855.39	20686
855.524	20800
855.658	20811
855.792	20651
855.926	20708
856.06	20785
856.194	20891
856.327	20769
856.461	20655
856.595	20590
856.729	20735
856.862	20845
856.996	20902
857.13	20830
857.263	20872
857.397	20853
857.53	20678
857.664	20743
857.797	20857
857.931	20853
858.064	20857
858.197	20902
858.331	20785
858.464	20678
858.597	20613
858.731	20708
858.864	20689
858.997	20587
859.13	20781
859.263	20735
859.396	20834
859.529	20674
859.662	20727
859.795	20796
859.928	20674
860.061	20895
860.194	20929
860.327	20815
860.46	20800
860.592	20929
860.725	20944
860.858	20891
860.99	20815
861.123	20617
861.256	20533
861.388	20693
861.521	21420
861.653	20621
861.786	20541
861.918	20617
862.05	20613
862.183	20746
862.315	20781
862.447	20769
862.58	20518
862.712	20469
862.844	20450
862.976	20575
863.108	20541
863.24	20956
863.372	20469
863.504	20568
863.636	20423
863.768	20579
863.9	20552
864.032	20389
864.164	20419
864.296	20545
864.428	20469
864.559	20473
864.691	20568
864.823	20476
864.954	20431
865.086	20415
865.217	20332
865.349	20328
865.48	20294
865.612	20317
865.743	20465
865.875	20427
866.006	20301
866.137	20294
866.269	20381
866.4	20396
866.531	20415
866.662	20282
866.793	20301
866.924	20320
867.055	20290
867.186	20488
867.317	20317
867.448	20195
867.579	20237
867.71	20100
867.841	20294
867.972	20355
868.103	20377
868.233	20366
868.364	20336
868.495	20355
868.625	20438
868.756	20781
868.886	20541
869.017	20526
869.147	20598
869.278	20579
869.408	20492
869.539	20408
869.669	20537
869.799	20609
869.929	20659
870.06	20613
870.19	20739
870.32	20861
870.45	20937
870.58	21074
870.71	21123
870.84	21043
870.97	20971
871.1	20910
871.23	21096
871.36	21146
871.489	21096
871.619	21146
871.749	21089
871.879	21237
872.008	21233
872.138	21268
872.267	21142
872.397	21195
872.526	21043
872.656	21001
872.785	20880
872.915	21066
873.044	21340
873.173	21154
873.303	21207
873.432	21272
873.561	21214
873.69	21222
873.819	21237
873.948	21245
874.077	21195
874.206	21104
874.335	21203
874.464	21237
874.593	21412
874.722	21420
874.851	21370
874.979	21450
875.108	21424
875.237	21294
875.365	21408
875.494	21348
875.623	21553
875.751	21519
875.88	21466
876.008	21507
876.136	21545
876.265	21800
876.393	22010
876.521	21960
876.65	21774
876.778	21857
876.906	21762
877.034	21633
877.162	21797
877.29	21580
877.418	21797
877.546	21720
877.674	21823
877.802	21797
877.93	21747
878.058	21671
878.185	21625
878.313	21720
878.441	21766
878.568	21511
878.696	21667
878.824	21812
878.951	21968
879.079	21956
879.206	21972
879.333	21941
879.461	21857
879.588	21865
879.715	22070
879.842	21926
879.97	21838
880.097	21515
880.224	21568
880.351	21686
880.478	21698
880.605	21553
880.732	21568
880.859	21823
880.986	21641
881.112	21561
881.239	21610
881.366	21344
881.493	21230
881.619	21131
881.746	21173
881.872	21116
881.999	21184
882.125	21032
882.252	21310
882.378	21119
882.505	21241
882.631	20914
882.757	20921
882.883	21051
883.01	20887
883.136	20834
883.262	20693
883.388	20693
883.514	20838
883.64	20906
883.766	20743
883.892	20621
884.018	20708
884.143	20880
884.269	20861
884.395	20629
884.52	20495
884.646	20560
884.772	20499
884.897	20442
885.023	20480
885.148	20575
885.274	20682
885.399	20667
885.524	20522
885.65	20556
885.775	20545
885.9	20454
886.025	20640
886.15	20434
886.275	20492
886.4	20465
886.525	20571
886.65	20419
886.775	20381
886.9	20689
887.025	20785
887.149	20526
887.274	20374
887.399	20134
887.523	20259
887.648	20206
887.773	20286
887.897	20385
888.021	20259
888.146	20278
888.27	20320
888.395	20385
888.519	20286
888.643	20286
888.767	20362
888.891	20119
889.015	20218
889.139	20202
889.263	20065
889.387	20183
889.511	20267
889.635	20278
889.759	20046
889.883	20119
890.006	20157
890.13	20309
890.254	20092
890.377	20027
890.501	19803
890.624	19826
890.748	19898
890.871	19833
890.995	19670
891.118	19616
891.241	19750
891.364	19803
891.488	19791
891.611	19662
891.734	19670
891.857	19712
891.98	19666
892.103	19700
892.226	19731
892.349	19601
892.471	19594
892.594	19590
892.717	19605
892.839	19521
892.962	19609
893.085	19639
893.207	19590
893.33	19518
893.452	19529
893.575	19609
893.697	19544
893.819	19761
893.941	19761
894.064	19871
894.186	19635
894.308	19609
894.43	19826
894.552	19784
894.674	19723
894.796	19460
894.918	19616
895.04	19556
895.161	19742
895.283	19590
895.405	19548
895.526	19510
895.648	19670
895.769	19613
895.891	19563
896.012	19613
896.134	19750
896.255	19746
896.376	19597
896.498	19658
896.619	19632
896.74	19624
896.861	19674
896.982	19894
897.103	20073
897.224	19841
897.345	19837
897.466	19784
897.587	19875
897.708	19970
897.828	19860
897.949	19803
898.07	19677
898.19	19731
898.311	19841
898.431	19750
898.552	19776
898.672	20027
898.792	19856
898.913	19822
899.033	19719
899.153	19616
899.273	19540
899.393	19552
899.513	19601
899.633	19457
899.753	19666
899.873	19518
899.993	19605
900.113	19441
900.232	19704
900.352	19556
900.472	19373
900.591	19324
900.711	19392
900.83	19335
900.95	19464
901.069	19419
901.189	19263
901.308	19046
901.427	18916
901.546	18970
901.665	18852
901.784	18943
901.904	18795
902.023	18696
902.141	18547
902.26	18559
902.379	18551
902.498	18429
902.617	18384
902.735	18639
902.854	18426
902.973	18399
903.091	18144
903.21	18136
903.328	18216
903.446	18163
903.565	18003
903.683	17954
903.801	17958
903.919	17965
904.038	17950
904.156	17836
904.274	17878
904.392	17676
904.51	17729
904.627	17722
904.745	17668
904.863	17756
904.981	17573
905.098	17425
905.216	17398
905.334	17474
905.451	17452
905.569	17410
905.686	17376
905.803	17406
905.921	17185
906.038	17383
906.155	17246
906.272	17075
906.389	17041
906.506	16965
906.623	16953
906.74	16915
906.857	16797
906.974	16881
907.091	16972
907.208	17052
907.324	16858
907.441	16942
907.557	16767
907.674	16637
907.79	16653
907.907	16519
908.023	16748
908.139	16763
908.256	16660
908.372	16554
908.488	16455
908.604	16447
908.72	16348
908.836	16329
908.952	16360
909.068	16500
909.184	16516
909.3	16436
909.415	16428
909.531	16371
909.647	16105
909.762	16067
909.878	16166
909.993	16051
910.108	16120
910.224	16029
910.339	15972
910.454	15926
910.57	15922
910.685	15884
910.8	16112
910.915	16055
911.03	15930
911.145	15618
911.259	15838
911.374	15835
911.489	15610
911.604	15629
911.718	15458
911.833	15481
911.947	15393
912.062	15294
912.176	15542
912.291	15553
912.405	15595
912.519	15606
912.633	15694
912.748	15526
912.862	15450
912.976	15272
913.09	15203
913.204	15233
913.318	15252
913.431	15382
913.545	15397
913.659	15393
913.772	15321
913.886	15119
914	15104
914.113	15150
914.226	15192
914.34	15097
914.453	15009
914.566	15024
914.68	14952
914.793	14918
914.906	14872
915.019	14678
915.132	14629
915.245	14762
915.358	14663
915.47	14716
915.583	14655
915.696	14781
915.809	14758
915.921	14853
916.034	14655
916.146	14682
916.259	14503
916.371	14655
916.483	14651
916.595	14602
916.708	14571
916.82	14613
916.932	14492
917.044	14488
917.156	14606
917.268	14431
917.38	14271
917.491	14347
917.603	14431
917.715	14374
917.826	14434
917.938	14351
918.049	14259
918.161	14347
918.272	14362
918.384	14374
918.495	14244
918.606	14229
918.717	14046
918.828	14183
918.939	14218
919.05	14058
919.161	14088
919.272	13997
919.383	14016
919.494	14119
919.604	14461
919.715	14100
919.826	14050
919.936	14088
920.047	14252
920.157	14123
920.267	14290
920.378	14123
920.488	14096
920.598	14298
920.708	14431
920.818	14336
920.928	14142
921.038	14415
921.148	14305
921.258	14138
921.368	13959
921.477	13921
921.587	13894
921.697	13727
921.806	13894
921.916	13662
922.025	13597
922.134	13502
922.244	13468
922.353	13594
922.462	13438
922.571	13388
922.68	13149
922.789	13228
922.898	13217
923.007	13076
923.116	13209
923.224	13149
923.333	13118
923.442	13046
923.55	12962
923.659	12947
923.767	13118
923.876	12882
923.984	13091
924.092	13008
924.201	12882
924.309	12905
924.417	13000
924.525	12856
924.633	12817
924.741	13769
924.849	12669
924.956	12791
925.064	12574
925.172	12521
925.279	12585
925.387	12582
925.494	12544
925.602	12711
925.709	12760
925.816	12566
925.924	12555
926.031	12620
926.138	12509
926.245	12650
926.352	12456
926.459	12604
926.566	12597
926.673	12429
926.779	12285
926.886	12311
926.993	12201
927.099	12163
927.206	12079
927.312	12213
927.419	12148
927.525	12152
927.631	12197
927.737	12022
927.843	12079
927.95	11843
928.056	11866
928.162	12007
928.267	12106
928.373	12570
928.479	12057
928.585	11824
928.69	11980
928.796	12034
928.901	11893
929.007	11805
929.112	11931
929.218	11771
929.323	11775
929.428	11710
929.533	11923
929.638	11703
929.743	11707
929.848	11741
929.953	11665
930.058	11562
930.163	11425
930.267	11478
930.372	11547
930.477	11349
930.581	11627
930.685	11440
930.79	11353
930.894	11398
930.998	11337
931.103	11455
931.207	11075
931.311	10980
931.415	10946
931.519	10725
931.623	10755
