Data from test_V78500241_2750.txt Node
Date: Fri Mar 25 15:29:00 CST 2022
User: usil
Spectrometer: V785-0024
Trigger mode: 0
Integration Time (sec): 4.000000E-1
Scans to average: 1
Nonlinearity correction enabled: false
Boxcar width: 0
Storing dark spectrum: false
XAxis mode: Wavelengths
Number of Pixels in Spectrum: 1024
>>>>>Begin Spectral Data<<<<<
801.071	26929
801.214	26773
801.356	26663
801.499	26522
801.641	26298
801.783	26492
801.926	26450
802.068	26358
802.211	26309
802.353	26358
802.496	26031
802.638	26092
802.78	25970
802.923	25906
803.065	25970
803.208	26008
803.35	26024
803.492	26168
803.635	26237
803.777	26126
803.919	26187
804.061	26537
804.204	26233
804.346	26054
804.488	26096
804.63	26202
804.773	25978
804.915	26107
805.057	26233
805.199	26031
805.341	26267
805.483	26248
805.626	26317
805.768	26237
805.91	26263
806.052	26199
806.194	26130
806.336	26427
806.478	26195
806.62	26427
806.762	26362
806.904	26480
807.046	26724
807.188	26785
807.33	26648
807.472	26853
807.614	26526
807.756	26564
807.898	26549
808.04	26385
808.182	26381
808.324	26419
808.465	26530
808.607	26644
808.749	26975
808.891	27085
809.033	26975
809.174	26940
809.316	26811
809.458	26762
809.6	26845
809.741	26986
809.883	27036
810.025	27039
810.166	27146
810.308	27058
810.45	27062
810.591	27108
810.733	27009
810.875	26914
811.016	26804
811.158	26727
811.299	26895
811.441	27062
811.582	27028
811.724	26891
811.865	26823
812.007	26720
812.148	26804
812.29	26823
812.431	27020
812.573	26986
812.714	27135
812.855	27374
812.997	27389
813.138	27526
813.279	27458
813.421	27367
813.562	27222
813.703	27077
813.845	26952
813.986	26811
814.127	26575
814.268	26503
814.41	26583
814.551	26473
814.692	26621
814.833	26461
814.974	26457
815.115	26423
815.256	26393
815.397	26415
815.539	26453
815.68	26328
815.821	26134
815.962	26374
816.103	26256
816.244	26161
816.385	25959
816.526	26012
816.666	25830
816.807	25601
816.948	25898
817.089	25799
817.23	25795
817.371	25731
817.512	25552
817.653	25594
817.793	25647
817.934	25723
818.075	25833
818.216	25769
818.356	25563
818.497	25647
818.638	25422
818.778	25540
818.919	25533
819.06	25559
819.2	25521
819.341	25662
819.481	25734
819.622	25750
819.762	26035
819.903	26035
820.043	25883
820.184	25841
820.324	25803
820.465	25883
820.605	26005
820.746	25765
820.886	25761
821.026	25731
821.167	25772
821.307	25841
821.447	25746
821.588	25510
821.728	25518
821.868	25206
822.008	25095
822.149	25202
822.289	25114
822.429	25061
822.569	24962
822.709	24814
822.849	24764
822.99	24631
823.13	24620
823.27	24639
823.41	24456
823.55	24479
823.69	24532
823.83	24525
823.97	24433
824.11	24350
824.25	24171
824.389	24426
824.529	24285
824.669	24327
824.809	24464
824.949	24391
825.089	24357
825.228	24433
825.368	24205
825.508	24190
825.648	24125
825.787	24140
825.927	24205
826.067	24178
826.206	24190
826.346	24194
826.485	24178
826.625	24140
826.765	24159
826.904	24213
827.044	23961
827.183	23866
827.323	24003
827.462	23977
827.601	23817
827.741	23790
827.88	23866
828.02	23710
828.159	23790
828.298	23931
828.437	23912
828.577	23908
828.716	23946
828.855	23840
828.994	23566
829.134	23501
829.273	23668
829.412	23615
829.551	23630
829.69	23516
829.829	23687
829.968	23729
830.107	23619
830.246	23657
830.385	23615
830.524	23524
830.663	23455
830.802	23448
830.941	23140
831.08	23018
831.219	23299
831.357	23231
831.496	23459
831.635	23140
831.774	23132
831.913	23067
832.051	23006
832.19	22965
832.329	23044
832.467	22919
832.606	22820
832.744	22759
832.883	22881
833.022	22778
833.16	22843
833.299	22889
833.437	22885
833.576	22976
833.714	22934
833.852	22942
833.991	22942
834.129	23014
834.267	23060
834.406	22946
834.544	22930
834.682	22976
834.821	22934
834.959	23003
835.097	22911
835.235	22934
835.373	22923
835.511	22972
835.65	22774
835.788	22847
835.926	22512
836.064	22637
836.202	22733
836.34	22790
836.478	22805
836.615	22710
836.753	22774
836.891	22828
837.029	22759
837.167	22675
837.305	22668
837.443	22679
837.58	22584
837.718	22793
837.856	22740
837.993	22531
838.131	22573
838.269	22512
838.406	22538
838.544	22459
838.681	22166
838.819	22325
838.956	22200
839.094	22070
839.231	22188
839.369	22261
839.506	22409
839.643	22352
839.781	22188
839.918	22044
840.055	22040
840.193	22090
840.33	22013
840.467	22116
840.604	22116
840.742	22348
840.879	21903
841.016	22048
841.153	21918
841.29	22051
841.427	22116
841.564	22112
841.701	22051
841.838	22010
841.975	21964
842.112	21846
842.249	21884
842.385	21770
842.522	22025
842.659	21915
842.796	21888
842.933	21869
843.069	21755
843.206	21774
843.343	21865
843.479	21823
843.616	21679
843.752	21675
843.889	21564
844.025	21781
844.162	21583
844.298	21690
844.435	21595
844.571	21496
844.708	21564
844.844	21762
844.98	21682
845.117	21523
845.253	21481
845.389	21534
845.525	21466
845.661	21450
845.798	21298
845.934	21370
846.07	21264
846.206	21287
846.342	21431
846.478	21306
846.614	21192
846.75	21131
846.886	21081
847.022	21085
847.158	21173
847.294	21161
847.429	21074
847.565	20998
847.701	21260
847.837	20754
847.972	20697
848.108	21020
848.244	20853
848.379	20629
848.515	20613
848.65	20549
848.786	20705
848.921	20701
849.057	20678
849.192	20735
849.328	20720
849.463	20530
849.598	20568
849.734	20511
849.869	20381
850.004	20408
850.14	20507
850.275	20377
850.41	20339
850.545	20370
850.68	20476
850.815	20442
850.95	20328
851.085	20495
851.22	20495
851.355	20362
851.49	20347
851.625	20442
851.76	20351
851.895	20263
852.03	20351
852.165	20438
852.299	20454
852.434	20423
852.569	20381
852.703	20396
852.838	20507
852.973	20526
853.107	20438
853.242	20298
853.376	20305
853.511	20092
853.645	20259
853.78	20320
853.914	20309
854.048	20138
854.183	20237
854.317	20271
854.451	20396
854.585	20176
854.72	20221
854.854	20305
854.988	20286
855.122	20263
855.256	20096
855.39	20332
855.524	20381
855.658	20286
855.792	20153
855.926	20320
856.06	20355
856.194	20298
856.327	20298
856.461	20206
856.595	20153
856.729	20317
856.862	20454
856.996	20221
857.13	20290
857.263	20301
857.397	20374
857.53	20161
857.664	20381
857.797	20332
857.931	20385
858.064	20229
858.197	20389
858.331	20282
858.464	20298
858.597	20161
858.731	20195
858.864	20172
858.997	20206
859.13	20233
859.263	20248
859.396	20377
859.529	20275
859.662	20237
859.795	20172
859.928	20259
860.061	20514
860.194	20408
860.327	20412
860.46	20278
860.592	20294
860.725	20336
860.858	20282
860.99	20282
861.123	20096
861.256	20164
861.388	20355
861.521	20750
861.653	20107
861.786	20065
861.918	20084
862.05	20187
862.183	20138
862.315	20221
862.447	20290
862.58	20122
862.712	20005
862.844	19986
862.976	20115
863.108	20012
863.24	20518
863.372	19875
863.504	19951
863.636	20001
863.768	20062
863.9	19932
864.032	19921
864.164	19947
864.296	20043
864.428	20130
864.559	20134
864.691	20069
864.823	19898
864.954	19944
865.086	19830
865.217	19852
865.349	19856
865.48	19856
865.612	20001
865.743	20088
865.875	20016
866.006	19978
866.137	19803
866.269	19875
866.4	19951
866.531	19936
866.662	19868
866.793	19818
866.924	19841
867.055	19776
867.186	19704
867.317	19750
867.448	19727
867.579	19689
867.71	19712
867.841	19772
867.972	19761
868.103	19788
868.233	19894
868.364	19719
868.495	19959
868.625	20027
868.756	20240
868.886	19921
869.017	20043
869.147	20187
869.278	20195
869.408	20054
869.539	20088
869.669	20157
869.799	20142
869.929	20176
870.06	20119
870.19	20309
870.32	20370
870.45	20408
870.58	20507
870.71	20575
870.84	20495
870.97	20446
871.1	20336
871.23	20583
871.36	20568
871.489	20686
871.619	20606
871.749	20629
871.879	20708
872.008	20724
872.138	20678
872.267	20667
872.397	20560
872.526	20594
872.656	20583
872.785	20442
872.915	20651
873.044	20716
873.173	20716
873.303	20834
873.432	20758
873.561	20804
873.69	20655
873.819	20724
873.948	20727
874.077	20689
874.206	20651
874.335	20720
874.464	20758
874.593	20842
874.722	20891
874.851	20948
874.979	20944
875.108	21028
875.237	20861
875.365	20876
875.494	20941
875.623	20921
875.751	20811
875.88	20956
876.008	21055
876.136	21089
876.265	21192
876.393	21469
876.521	21424
876.65	21374
876.778	21431
876.906	21230
877.034	21233
877.162	21310
877.29	21222
877.418	21363
877.546	21329
877.674	21230
877.802	21279
877.93	21291
878.058	21317
878.185	21230
878.313	21211
878.441	21291
878.568	21127
878.696	21150
878.824	21321
878.951	21374
879.079	21504
879.206	21633
879.333	21435
879.461	21363
879.588	21370
879.715	21507
879.842	21667
879.97	21302
880.097	21032
880.224	21203
880.351	21058
880.478	21222
880.605	21104
880.732	21233
880.859	21393
880.986	21176
881.112	21127
881.239	21085
881.366	20853
881.493	20663
881.619	20731
881.746	20750
881.872	20743
881.999	20609
882.125	20682
882.252	20648
882.378	20674
882.505	20834
882.631	20571
882.757	20389
882.883	20423
883.01	20404
883.136	20389
883.262	20301
883.388	20271
883.514	20476
883.64	20469
883.766	20385
883.892	20271
884.018	20271
884.143	20374
884.269	20431
884.395	20187
884.52	20069
884.646	20122
884.772	20096
884.897	20001
885.023	20069
885.148	20115
885.274	20229
885.399	20142
885.524	20020
885.65	20020
885.775	20130
885.9	19989
886.025	20195
886.15	20096
886.275	19993
886.4	19940
886.525	20039
886.65	19947
886.775	19898
886.9	20199
887.025	20282
887.149	20046
887.274	19928
887.399	19902
887.523	19864
887.648	19875
887.773	19727
887.897	19875
888.021	19909
888.146	19887
888.27	19974
888.395	19951
888.519	19860
888.643	19986
888.767	19826
888.891	19849
889.015	19677
889.139	19704
889.263	19540
889.387	19719
889.511	19868
889.635	19757
889.759	19597
889.883	19655
890.006	19670
890.13	19658
890.254	19594
890.377	19616
890.501	19346
890.624	19415
890.748	19411
890.871	19339
890.995	19156
891.118	19213
891.241	19285
891.364	19236
891.488	19396
891.611	19270
891.734	19312
891.857	19259
891.98	19194
892.103	19247
892.226	19350
892.349	19175
892.471	19091
892.594	19088
892.717	19270
892.839	19190
892.962	19213
893.085	19183
893.207	19164
893.33	19110
893.452	19084
893.575	19187
893.697	19137
893.819	19339
893.941	19491
894.064	19244
894.186	19152
894.308	19129
894.43	19324
894.552	19225
894.674	19236
894.796	19148
894.918	19069
895.04	19137
895.161	19312
895.283	19228
895.405	19107
895.526	19308
895.648	19107
895.769	19213
895.891	19187
896.012	19251
896.134	19236
896.255	19183
896.376	19187
896.498	19179
896.619	19209
896.74	19110
896.861	19274
896.982	19430
897.103	19620
897.224	19521
897.345	19426
897.466	19365
897.587	19472
897.708	19620
897.828	19476
897.949	19396
898.07	19190
898.19	19381
898.311	19472
898.431	19274
898.552	19407
898.672	19453
898.792	19540
898.913	19438
899.033	19320
899.153	19343
899.273	19061
899.393	19091
899.513	19327
899.633	19301
899.753	19331
899.873	19031
899.993	19194
900.113	19103
900.232	19209
900.352	19156
900.472	18939
900.591	18871
900.711	18981
900.83	18833
900.95	19141
901.069	19099
901.189	18859
901.308	18700
901.427	18525
901.546	18540
901.665	18631
901.784	18547
901.904	18448
902.023	18376
902.141	18239
902.26	18140
902.379	18178
902.498	18140
902.617	18121
902.735	18087
902.854	18163
902.973	17954
903.091	17726
903.21	17748
903.328	17920
903.446	17783
903.565	17630
903.683	17592
903.801	17528
903.919	17638
904.038	17562
904.156	17349
904.274	17497
904.392	17482
904.51	17296
904.627	17368
904.745	17372
904.863	17299
904.981	17094
905.098	17124
905.216	17113
905.334	17060
905.451	17121
905.569	16972
905.686	17041
905.803	17052
905.921	16854
906.038	16976
906.155	16854
906.272	16694
906.389	16839
906.506	16558
906.623	16679
906.74	16577
906.857	16493
906.974	16516
907.091	16664
907.208	16630
907.324	16626
907.441	16481
907.557	16325
907.674	16276
907.79	16291
907.907	16344
908.023	16333
908.139	16287
908.256	16253
908.372	16295
908.488	16158
908.604	16074
908.72	16086
908.836	15983
908.952	15991
909.068	16059
909.184	16166
909.3	16090
909.415	16090
909.531	15972
909.647	15808
909.762	15781
909.878	15732
909.993	15831
910.108	15701
910.224	15698
910.339	15705
910.454	15679
910.57	15667
910.685	15507
910.8	15800
910.915	15652
911.03	15504
911.145	15279
911.259	15344
911.374	15355
911.489	15230
911.604	15226
911.718	15119
911.833	15070
911.947	15043
912.062	15062
912.176	15165
912.291	15199
912.405	15173
912.519	15359
912.633	15332
912.748	15165
912.862	15081
912.976	14883
913.09	14830
913.204	14918
913.318	14998
913.431	14990
913.545	14994
913.659	15066
913.772	14963
913.886	14781
914	14667
914.113	14823
914.226	14910
914.34	14876
914.453	14632
914.566	14796
914.68	14663
914.793	14610
914.906	14571
915.019	14442
915.132	14423
915.245	14415
915.358	14408
915.47	14415
915.583	14400
915.696	14454
915.809	14469
915.921	14526
916.034	14381
916.146	14301
916.259	14267
916.371	14389
916.483	14362
916.595	14206
916.708	14267
916.82	14225
916.932	14123
917.044	14221
917.156	14111
917.268	14027
917.38	14027
917.491	13986
917.603	14096
917.715	14187
917.826	14172
917.938	13982
918.049	13883
918.161	14001
918.272	14157
918.384	14115
918.495	13963
918.606	13849
918.717	13753
918.828	13780
918.939	13936
919.05	13822
919.161	13807
919.272	13514
919.383	13651
919.494	13837
919.604	14012
919.715	13738
919.826	13753
919.936	13811
920.047	13849
920.157	13757
920.267	13993
920.378	13788
920.488	13776
920.598	13928
920.708	14202
920.818	13936
920.928	14005
921.038	14092
921.148	14031
921.258	13807
921.368	13655
921.477	13594
921.587	13578
921.697	13460
921.806	13609
921.916	13449
922.025	13274
922.134	13301
922.244	13141
922.353	13240
922.462	13129
922.571	13012
922.68	12920
922.789	12897
922.898	12913
923.007	12894
923.116	12973
923.224	12882
923.333	12871
923.442	12779
923.55	12692
923.659	12646
923.767	12779
923.876	12616
923.984	12764
924.092	12551
924.201	12673
924.309	12536
924.417	12608
924.525	12528
924.633	12574
924.741	13491
924.849	12346
924.956	12578
925.064	12365
925.172	12243
925.279	12296
925.387	12365
925.494	12285
925.602	12445
925.709	12350
925.816	12228
925.924	12190
926.031	12323
926.138	12243
926.245	12342
926.352	12201
926.459	12380
926.566	12361
926.673	12213
926.779	12019
926.886	12102
926.993	11942
927.099	11920
927.206	11843
927.312	11870
927.419	11939
927.525	11965
927.631	11954
927.737	11779
927.843	11813
927.95	11665
928.056	11718
928.162	11733
928.267	11722
928.373	12258
928.479	11866
928.585	11543
928.69	11714
928.796	11775
928.901	11672
929.007	11509
929.112	11642
929.218	11570
929.323	11509
929.428	11543
929.533	11634
929.638	11410
929.743	11414
929.848	11497
929.953	11406
930.058	11322
930.163	11193
930.267	11227
930.372	11258
930.477	11113
930.581	11372
930.685	11246
930.79	11113
930.894	11071
930.998	11056
931.103	11178
931.207	10839
931.311	10797
931.415	10717
931.519	10497
931.623	10508
