Data from test_V78500241_2502.txt Node
Date: Fri Mar 25 15:27:16 CST 2022
User: usil
Spectrometer: V785-0024
Trigger mode: 0
Integration Time (sec): 4.000000E-1
Scans to average: 1
Nonlinearity correction enabled: false
Boxcar width: 0
Storing dark spectrum: false
XAxis mode: Wavelengths
Number of Pixels in Spectrum: 1024
>>>>>Begin Spectral Data<<<<<
801.071	27329
801.214	27249
801.356	26906
801.499	27043
801.641	26826
801.783	26716
801.926	26731
802.068	26804
802.211	26659
802.353	26727
802.496	26404
802.638	26385
802.78	26370
802.923	26202
803.065	26202
803.208	26317
803.35	26358
803.492	26564
803.635	26568
803.777	26499
803.919	26549
804.061	26845
804.204	26571
804.346	26613
804.488	26446
804.63	26651
804.773	26355
804.915	26526
805.057	26800
805.199	26568
805.341	26564
805.483	26629
805.626	26693
805.768	26450
805.91	26495
806.052	26609
806.194	26545
806.336	26743
806.478	26629
806.62	26545
806.762	26693
806.904	26834
807.046	27062
807.188	26963
807.33	27017
807.472	27013
807.614	26967
807.756	26849
807.898	26823
808.04	26834
808.182	26807
808.324	26807
808.465	26937
808.607	27150
808.749	27203
808.891	27268
809.033	27268
809.174	27298
809.316	27074
809.458	27218
809.6	27275
809.741	27287
809.883	27336
810.025	27580
810.166	27435
810.308	27416
810.45	27458
810.591	27420
810.733	27256
810.875	27176
811.016	27089
811.158	27100
811.299	27355
811.441	27408
811.582	27507
811.724	27367
811.865	27237
812.007	27131
812.148	27310
812.29	27260
812.431	27260
812.573	27504
812.714	27572
812.855	27713
812.997	27907
813.138	27953
813.279	27812
813.421	27671
813.562	27660
813.703	27469
813.845	27462
813.986	27154
814.127	27077
814.268	26944
814.41	26880
814.551	26971
814.692	26998
814.833	26819
814.974	26750
815.115	26891
815.256	26594
815.397	26731
815.539	26792
815.68	26549
815.821	26735
815.962	26720
816.103	26651
816.244	26556
816.385	26415
816.526	26332
816.666	26122
816.807	26157
816.948	26320
817.089	26351
817.23	26187
817.371	26176
817.512	26305
817.653	26107
817.793	25978
817.934	26111
818.075	26149
818.216	26206
818.356	26233
818.497	25875
818.638	25963
818.778	25807
818.919	25803
819.06	25940
819.2	26107
819.341	26043
819.481	26134
819.622	26286
819.762	26377
819.903	26252
820.043	26172
820.184	26317
820.324	26027
820.465	26286
820.605	26366
820.746	26084
820.886	26157
821.026	26237
821.167	26077
821.307	26157
821.447	26164
821.588	25879
821.728	25902
821.868	25700
822.008	25635
822.149	25594
822.289	25510
822.429	25468
822.569	25335
822.709	25247
822.849	25175
822.99	25209
823.13	25057
823.27	24966
823.41	24981
823.55	24886
823.69	24947
823.83	24829
823.97	24764
824.11	24681
824.25	24715
824.389	24593
824.529	24738
824.669	24673
824.809	24814
824.949	24734
825.089	24817
825.228	24905
825.368	24593
825.508	24593
825.648	24616
825.787	24601
825.927	24700
826.067	24532
826.206	24692
826.346	24585
826.485	24768
826.625	24753
826.765	24677
826.904	24753
827.044	24464
827.183	24353
827.323	24346
827.462	24502
827.601	24357
827.741	24342
827.88	24334
828.02	24243
828.159	24262
828.298	24308
828.437	24380
828.577	24266
828.716	24475
828.855	24220
828.994	24018
829.134	24034
829.273	24034
829.412	24053
829.551	24018
829.69	24095
829.829	24091
829.968	24098
830.107	24205
830.246	24087
830.385	24091
830.524	23984
830.663	23836
830.802	23843
830.941	23634
831.08	23634
831.219	23840
831.357	23843
831.496	23840
831.635	23802
831.774	23505
831.913	23653
832.051	23429
832.19	23448
832.329	23455
832.467	23337
832.606	23303
832.744	23250
832.883	23277
833.022	23212
833.16	23459
833.299	23376
833.437	23455
833.576	23482
833.714	23414
833.852	23463
833.991	23512
834.129	23589
834.267	23501
834.406	23410
834.544	23448
834.682	23509
834.821	23353
834.959	23596
835.097	23490
835.235	23463
835.373	23429
835.511	23368
835.65	23162
835.788	23231
835.926	23128
836.064	23124
836.202	23147
836.34	23261
836.478	23261
836.615	23185
836.753	23231
836.891	23277
837.029	23261
837.167	23178
837.305	23170
837.443	23292
837.58	23159
837.718	23071
837.856	23124
837.993	23117
838.131	23064
838.269	23033
838.406	22995
838.544	22877
838.681	22812
838.819	22729
838.956	22603
839.094	22512
839.231	22725
839.369	22873
839.506	22957
839.643	22908
839.781	22733
839.918	22542
840.055	22607
840.193	22504
840.33	22481
840.467	22580
840.604	22740
840.742	22984
840.879	22421
841.016	22417
841.153	22432
841.29	22706
841.427	22554
841.564	22478
841.701	22611
841.838	22478
841.975	22462
842.112	22436
842.249	22432
842.385	22390
842.522	22615
842.659	22371
842.796	22261
842.933	22303
843.069	22246
843.206	22147
843.343	22303
843.479	22253
843.616	22363
843.752	22051
843.889	22040
844.025	22207
844.162	21892
844.298	22158
844.435	22086
844.571	21846
844.708	22135
844.844	22249
844.98	22204
845.117	22169
845.253	22025
845.389	21888
845.525	21857
845.661	21934
845.798	21701
845.934	21850
846.07	21686
846.206	21823
846.342	21922
846.478	21717
846.614	21637
846.75	21534
846.886	21511
847.022	21622
847.158	21477
847.294	21526
847.429	21557
847.565	21644
847.701	21838
847.837	21211
847.972	21287
848.108	21329
848.244	21382
848.379	21222
848.515	21108
848.65	21264
848.786	21154
848.921	21214
849.057	21230
849.192	21135
849.328	21085
849.463	21146
849.598	21058
849.734	20990
849.869	20941
850.004	20941
850.14	20899
850.275	20960
850.41	20739
850.545	20834
850.68	20804
850.815	20895
850.95	20842
851.085	21028
851.22	21013
851.355	20960
851.49	20941
851.625	20864
851.76	20906
851.895	20849
852.03	20880
852.165	20990
852.299	20952
852.434	21154
852.569	20937
852.703	20925
852.838	21070
852.973	20918
853.107	21036
853.242	20849
853.376	20765
853.511	20613
853.645	20659
853.78	20807
853.914	20708
854.048	20686
854.183	20712
854.317	20796
854.451	20823
854.585	20777
854.72	20708
854.854	20765
854.988	20682
855.122	20769
855.256	20533
855.39	20750
855.524	20762
855.658	20743
855.792	20773
855.926	20678
856.06	20705
856.194	20773
856.327	20716
856.461	20674
856.595	20693
856.729	20629
856.862	20887
856.996	20861
857.13	20727
857.263	20830
857.397	20811
857.53	20640
857.664	20792
857.797	20640
857.931	20800
858.064	20712
858.197	20815
858.331	20663
858.464	20590
858.597	20659
858.731	20636
858.864	20670
858.997	20606
859.13	20708
859.263	20705
859.396	20693
859.529	20686
859.662	20758
859.795	20750
859.928	20701
860.061	20956
860.194	21055
860.327	20636
860.46	20800
860.592	20864
860.725	20872
860.858	20792
860.99	20682
861.123	20735
861.256	20674
861.388	20727
861.521	21260
861.653	20598
861.786	20499
861.918	20484
862.05	20579
862.183	20651
862.315	20731
862.447	20636
862.58	20560
862.712	20355
862.844	20476
862.976	20545
863.108	20583
863.24	21039
863.372	20412
863.504	20358
863.636	20549
863.768	20423
863.9	20427
864.032	20374
864.164	20457
864.296	20549
864.428	20556
864.559	20587
864.691	20461
864.823	20602
864.954	20415
865.086	20461
865.217	20389
865.349	20210
865.48	20328
865.612	20324
865.743	20324
865.875	20301
866.006	20290
866.137	20282
866.269	20408
866.4	20225
866.531	20278
866.662	20183
866.793	20233
866.924	20271
867.055	20210
867.186	20423
867.317	20393
867.448	20202
867.579	20214
867.71	20187
867.841	20073
867.972	20286
868.103	20263
868.233	20457
868.364	20202
868.495	20339
868.625	20545
868.756	20549
868.886	20518
869.017	20461
869.147	20655
869.278	20606
869.408	20568
869.539	20552
869.669	20724
869.799	20454
869.929	20762
870.06	20632
870.19	20796
870.32	20640
870.45	20849
870.58	20842
870.71	20975
870.84	20948
870.97	20944
871.1	20895
871.23	21138
871.36	21070
871.489	21032
871.619	21169
871.749	21066
871.879	21062
872.008	21195
872.138	21108
872.267	21074
872.397	20994
872.526	20925
872.656	20998
872.785	20975
872.915	21055
873.044	21302
873.173	21176
873.303	21302
873.432	21169
873.561	21287
873.69	21104
873.819	21116
873.948	21245
874.077	21100
874.206	21081
874.335	21116
874.464	21199
874.593	21264
874.722	21310
874.851	21321
874.979	21272
875.108	21439
875.237	21317
875.365	21336
875.494	21420
875.623	21405
875.751	21428
875.88	21363
876.008	21488
876.136	21564
876.265	21835
876.393	21850
876.521	21884
876.65	21873
876.778	21778
876.906	21739
877.034	21679
877.162	21641
877.29	21698
877.418	21717
877.546	21656
877.674	21701
877.802	21747
877.93	21743
878.058	21701
878.185	21523
878.313	21587
878.441	21679
878.568	21557
878.696	21652
878.824	21793
878.951	21755
879.079	21991
879.206	21953
879.333	21892
879.461	21838
879.588	21937
879.715	21850
879.842	21987
879.97	21770
880.097	21625
880.224	21568
880.351	21603
880.478	21580
880.605	21549
880.732	21587
880.859	21751
880.986	21515
881.112	21530
881.239	21504
881.366	21249
881.493	21199
881.619	21138
881.746	21268
881.872	21192
881.999	21218
882.125	21036
882.252	21127
882.378	21127
882.505	21233
882.631	21036
882.757	20861
882.883	20998
883.01	20887
883.136	20750
883.262	20724
883.388	20682
883.514	20845
883.64	20998
883.766	20762
883.892	20659
884.018	20716
884.143	20902
884.269	20899
884.395	20495
884.52	20431
884.646	20625
884.772	20355
884.897	20377
885.023	20442
885.148	20625
885.274	20606
885.399	20640
885.524	20552
885.65	20450
885.775	20503
885.9	20404
886.025	20594
886.15	20636
886.275	20454
886.4	20423
886.525	20518
886.65	20377
886.775	20374
886.9	20670
887.025	20712
887.149	20419
887.274	20343
887.399	20358
887.523	20275
887.648	20130
887.773	20240
887.897	20290
888.021	20259
888.146	20202
888.27	20298
888.395	20427
888.519	20339
888.643	20153
888.767	20320
888.891	20191
889.015	19970
889.139	20096
889.263	20092
889.387	20278
889.511	20149
889.635	20084
889.759	20043
889.883	20031
890.006	20065
890.13	20130
890.254	20069
890.377	19974
890.501	19883
890.624	19746
890.748	19890
890.871	19670
890.995	19635
891.118	19643
891.241	19670
891.364	19582
891.488	19731
891.611	19689
891.734	19689
891.857	19696
891.98	19628
892.103	19609
892.226	19681
892.349	19537
892.471	19400
892.594	19506
892.717	19708
892.839	19666
892.962	19605
893.085	19605
893.207	19559
893.33	19521
893.452	19480
893.575	19578
893.697	19624
893.819	19788
893.941	19826
894.064	19712
894.186	19411
894.308	19533
894.43	19696
894.552	19769
894.674	19639
894.796	19403
894.918	19544
895.04	19594
895.161	19578
895.283	19578
895.405	19472
895.526	19624
895.648	19609
895.769	19578
895.891	19571
896.012	19601
896.134	19632
896.255	19708
896.376	19590
896.498	19578
896.619	19658
896.74	19518
896.861	19685
896.982	19852
897.103	19993
897.224	19856
897.345	19746
897.466	19738
897.587	19814
897.708	19913
897.828	19830
897.949	19769
898.07	19597
898.19	19738
898.311	19894
898.431	19788
898.552	19871
898.672	19738
898.792	19887
898.913	19864
899.033	19841
899.153	19597
899.273	19586
899.393	19613
899.513	19662
899.633	19723
899.753	19655
899.873	19373
899.993	19586
900.113	19540
900.232	19457
900.352	19411
900.472	19339
900.591	19304
900.711	19304
900.83	19285
900.95	19392
901.069	19411
901.189	19304
901.308	19091
901.427	18951
901.546	18985
901.665	18958
901.784	18878
901.904	18829
902.023	18730
902.141	18460
902.26	18418
902.379	18544
902.498	18407
902.617	18403
902.735	18544
902.854	18521
902.973	18372
903.091	18174
903.21	18152
903.328	18133
903.446	18030
903.565	17889
903.683	18003
903.801	17851
903.919	17866
904.038	18049
904.156	17707
904.274	17783
904.392	17665
904.51	17684
904.627	17741
904.745	17729
904.863	17794
904.981	17433
905.098	17299
905.216	17372
905.334	17448
905.451	17436
905.569	17391
905.686	17436
905.803	17372
905.921	17140
906.038	17239
906.155	17193
906.272	17105
906.389	17105
906.506	17041
906.623	16980
906.74	17083
906.857	16774
906.974	16736
907.091	16987
907.208	16991
907.324	17041
907.441	16881
907.557	16630
907.674	16607
907.79	16618
907.907	16694
908.023	16755
908.139	16599
908.256	16710
908.372	16481
908.488	16580
908.604	16390
908.72	16375
908.836	16287
908.952	16390
909.068	16409
909.184	16413
909.3	16424
909.415	16337
909.531	16424
909.647	16139
909.762	16150
909.878	16059
909.993	16059
910.108	16036
910.224	15994
910.339	16013
910.454	15960
910.57	15876
910.685	15842
910.8	16147
910.915	16017
911.03	15994
911.145	15842
911.259	15759
911.374	15637
911.489	15603
911.604	15686
911.718	15428
911.833	15591
911.947	15481
912.062	15340
912.176	15530
912.291	15386
912.405	15622
912.519	15667
912.633	15614
912.748	15447
912.862	15397
912.976	15294
913.09	15093
913.204	15222
913.318	15313
913.431	15306
913.545	15408
913.659	15344
913.772	15264
913.886	15093
914	14986
914.113	15188
914.226	15138
914.34	15024
914.453	14933
914.566	15043
914.68	14933
914.793	14883
914.906	14708
915.019	14610
915.132	14636
915.245	14636
915.358	14712
915.47	14705
915.583	14720
915.696	14724
915.809	14648
915.921	14758
916.034	14606
916.146	14545
916.259	14526
916.371	14583
916.483	14632
916.595	14431
916.708	14511
916.82	14511
916.932	14454
917.044	14492
917.156	14431
917.268	14366
917.38	14328
917.491	14298
917.603	14385
917.715	14530
917.826	14347
917.938	14202
918.049	14187
918.161	14225
918.272	14404
918.384	14377
918.495	14301
918.606	14202
918.717	14058
918.828	14130
918.939	14214
919.05	14012
919.161	14172
919.272	14024
919.383	13951
919.494	14176
919.604	14275
919.715	14020
919.826	14069
919.936	14005
920.047	14180
920.157	14031
920.267	14271
920.378	14039
920.488	13967
920.598	14256
920.708	14366
920.818	14233
920.928	14221
921.038	14347
921.148	14358
921.258	14172
921.368	13986
921.477	13902
921.587	13875
921.697	13681
921.806	13791
921.916	13616
922.025	13525
922.134	13468
922.244	13468
922.353	13453
922.462	13297
922.571	13255
922.68	13175
922.789	13156
922.898	13164
923.007	12996
923.116	13091
923.224	13175
923.333	13107
923.442	13080
923.55	12916
923.659	12947
923.767	13088
923.876	12886
923.984	12977
924.092	12882
924.201	12970
924.309	12829
924.417	12844
924.525	12795
924.633	12856
924.741	13746
924.849	12703
924.956	12798
925.064	12597
925.172	12536
925.279	12585
925.387	12570
925.494	12540
925.602	12722
925.709	12566
925.816	12452
925.924	12490
926.031	12608
926.138	12547
926.245	12597
926.352	12475
926.459	12467
926.566	12551
926.673	12429
926.779	12277
926.886	12315
926.993	12163
927.099	12182
927.206	12087
927.312	12030
927.419	12144
927.525	12087
927.631	12095
927.737	11996
927.843	12034
927.95	11897
928.056	11927
928.162	12003
928.267	12110
928.373	12612
928.479	12019
928.585	11885
928.69	11935
928.796	11935
928.901	11824
929.007	11767
929.112	11836
929.218	11786
929.323	11775
929.428	11813
929.533	11836
929.638	11630
929.743	11676
929.848	11707
929.953	11710
930.058	11570
930.163	11444
930.267	11425
930.372	11535
930.477	11402
930.581	11558
930.685	11490
930.79	11330
930.894	11341
930.998	11299
931.103	11414
931.207	11067
931.311	10927
931.415	10892
931.519	10729
931.623	10736
