Data from test_V78500241_1611.txt Node
Date: Fri Mar 25 15:21:04 CST 2022
User: usil
Spectrometer: V785-0024
Trigger mode: 0
Integration Time (sec): 4.000000E-1
Scans to average: 1
Nonlinearity correction enabled: false
Boxcar width: 0
Storing dark spectrum: false
XAxis mode: Wavelengths
Number of Pixels in Spectrum: 1024
>>>>>Begin Spectral Data<<<<<
801.071	27603
801.214	27686
801.356	27416
801.499	27241
801.641	27157
801.783	27104
801.926	27176
802.068	27256
802.211	27131
802.353	27249
802.496	27013
802.638	26948
802.78	26807
802.923	26720
803.065	26758
803.208	26830
803.35	26948
803.492	27020
803.635	27024
803.777	26960
803.919	27173
804.061	27378
804.204	27123
804.346	27043
804.488	27051
804.63	27001
804.773	26967
804.915	27024
805.057	27188
805.199	26994
805.341	27135
805.483	27329
805.626	27340
805.768	27013
805.91	27150
806.052	27195
806.194	27157
806.336	27447
806.478	27192
806.62	27017
806.762	27142
806.904	27443
807.046	27637
807.188	27595
807.33	27660
807.472	27644
807.614	27405
807.756	27447
807.898	27515
808.04	27378
808.182	27416
808.324	27306
808.465	27519
808.607	27629
808.749	27800
808.891	27732
809.033	27903
809.174	27816
809.316	27724
809.458	27846
809.6	27850
809.741	27930
809.883	27914
810.025	28177
810.166	28150
810.308	28322
810.45	28109
810.591	27983
810.733	27899
810.875	27804
811.016	27625
811.158	27713
811.299	27800
811.441	27979
811.582	27827
811.724	27857
811.865	27728
812.007	27781
812.148	27679
812.29	27751
812.431	28109
812.573	28177
812.714	28200
812.855	28341
812.997	28367
813.138	28512
813.279	28493
813.421	28223
813.562	28219
813.703	28048
813.845	28082
813.986	27644
814.127	27595
814.268	27481
814.41	27576
814.551	27405
814.692	27709
814.833	27424
814.974	27553
815.115	27469
815.256	27378
815.397	27351
815.539	27382
815.68	27287
815.821	27195
815.962	27447
816.103	27332
816.244	27176
816.385	27096
816.526	27062
816.666	26925
816.807	26842
816.948	26788
817.089	26823
817.23	26815
817.371	26644
817.512	26864
817.653	26739
817.793	26689
817.934	26686
818.075	26788
818.216	26838
818.356	26785
818.497	26667
818.638	26442
818.778	26495
818.919	26590
819.06	26507
819.2	26735
819.341	26826
819.481	26663
819.622	26880
819.762	26994
819.903	26971
820.043	26967
820.184	26933
820.324	26906
820.465	27096
820.605	26872
820.746	26819
820.886	26754
821.026	26925
821.167	26853
821.307	26868
821.447	26807
821.588	26682
821.728	26552
821.868	26404
822.008	26199
822.149	26237
822.289	26134
822.429	25917
822.569	25894
822.709	25989
822.849	25765
822.99	25757
823.13	25765
823.27	25727
823.41	25616
823.55	25335
823.69	25552
823.83	25613
823.97	25567
824.11	25331
824.25	25377
824.389	25362
824.529	25487
824.669	25266
824.809	25468
824.949	25396
825.089	25350
825.228	25434
825.368	25168
825.508	25236
825.648	25316
825.787	25255
825.927	25293
826.067	25126
826.206	25141
826.346	25343
826.485	25206
826.625	25114
826.765	25301
826.904	25225
827.044	25118
827.183	24916
827.323	24924
827.462	24913
827.601	24901
827.741	25061
827.88	24932
828.02	24867
828.159	24924
828.298	24985
828.437	25088
828.577	24852
828.716	25046
828.855	24920
828.994	24764
829.134	24658
829.273	24700
829.412	24677
829.551	24551
829.69	24711
829.829	24741
829.968	24688
830.107	24673
830.246	24791
830.385	24669
830.524	24559
830.663	24460
830.802	24346
830.941	24262
831.08	24228
831.219	24266
831.357	24372
831.496	24578
831.635	24270
831.774	24095
831.913	24155
832.051	23942
832.19	24068
832.329	24136
832.467	23870
832.606	23859
832.744	23901
832.883	23908
833.022	23939
833.16	24015
833.299	23889
833.437	24053
833.576	23965
833.714	24049
833.852	24072
833.991	24117
834.129	24125
834.267	24095
834.406	24060
834.544	23931
834.682	23988
834.821	23965
834.959	24049
835.097	23817
835.235	23882
835.373	23973
835.511	24026
835.65	23950
835.788	23893
835.926	23726
836.064	23585
836.202	23726
836.34	23855
836.478	23984
836.615	23729
836.753	23870
836.891	23779
837.029	23863
837.167	23771
837.305	23737
837.443	23684
837.58	23710
837.718	23657
837.856	23684
837.993	23566
838.131	23668
838.269	23577
838.406	23577
838.544	23516
838.681	23433
838.819	23307
838.956	23170
839.094	23250
839.231	23197
839.369	23170
839.506	23577
839.643	23288
839.781	23090
839.918	23083
840.055	23204
840.193	23079
840.33	23067
840.467	23056
840.604	23083
840.742	23269
840.879	22892
841.016	23052
841.153	22904
841.29	23083
841.427	23041
841.564	23056
841.701	23056
841.838	23060
841.975	22763
842.112	22847
842.249	22858
842.385	22866
842.522	22942
842.659	22793
842.796	22710
842.933	22839
843.069	22653
843.206	22854
843.343	22854
843.479	22850
843.616	22824
843.752	22508
843.889	22656
844.025	22740
844.162	22493
844.298	22687
844.435	22561
844.571	22569
844.708	22561
844.844	22740
844.98	22698
845.117	22645
845.253	22455
845.389	22470
845.525	22481
845.661	22375
845.798	22360
845.934	22367
846.07	22303
846.206	22223
846.342	22436
846.478	22284
846.614	22112
846.75	21937
846.886	22055
847.022	22154
847.158	22078
847.294	22147
847.429	22143
847.565	22158
847.701	22272
847.837	21850
847.972	21759
848.108	21869
848.244	21876
848.379	21759
848.515	21538
848.65	21675
848.786	21545
848.921	21682
849.057	21762
849.192	21534
849.328	21728
849.463	21660
849.598	21595
849.734	21572
849.869	21526
850.004	21382
850.14	21389
850.275	21504
850.41	21386
850.545	21321
850.68	21214
850.815	21443
850.95	21389
851.085	21587
851.22	21469
851.355	21401
851.49	21321
851.625	21386
851.76	21428
851.895	21249
852.03	21332
852.165	21405
852.299	21431
852.434	21382
852.569	21283
852.703	21431
852.838	21500
852.973	21447
853.107	21488
853.242	21256
853.376	21310
853.511	21214
853.645	21142
853.78	21291
853.914	21268
854.048	21226
854.183	21207
854.317	21302
854.451	21412
854.585	21241
854.72	21211
854.854	21363
854.988	21157
855.122	21249
855.256	21062
855.39	21173
855.524	21332
855.658	21245
855.792	21116
855.926	21294
856.06	21283
856.194	21230
856.327	21310
856.461	21245
856.595	21192
856.729	21173
856.862	21344
856.996	21321
857.13	21195
857.263	21298
857.397	21241
857.53	21211
857.664	21108
857.797	21237
857.931	21298
858.064	21279
858.197	21329
858.331	21226
858.464	21154
858.597	21146
858.731	21100
858.864	21256
858.997	21211
859.13	21230
859.263	21298
859.396	21294
859.529	21241
859.662	21066
859.795	21116
859.928	21256
860.061	21355
860.194	21488
860.327	21218
860.46	21135
860.592	21344
860.725	21485
860.858	21424
860.99	21180
861.123	21154
861.256	21146
861.388	21279
861.521	21945
861.653	21138
861.786	20929
861.918	21157
862.05	21055
862.183	21207
862.315	21161
862.447	21184
862.58	21081
862.712	20921
862.844	20952
862.976	21024
863.108	20941
863.24	21344
863.372	20921
863.504	20861
863.636	20948
863.768	21028
863.9	21005
864.032	20807
864.164	21009
864.296	20979
864.428	21036
864.559	20944
864.691	21020
864.823	20902
864.954	20906
865.086	20986
865.217	20982
865.349	20750
865.48	20804
865.612	20830
865.743	21013
865.875	20887
866.006	20842
866.137	21017
866.269	20811
866.4	20834
866.531	20743
866.662	20754
866.793	20758
866.924	20785
867.055	20830
867.186	20678
867.317	20788
867.448	20849
867.579	20670
867.71	20648
867.841	20701
867.972	20716
868.103	20708
868.233	20758
868.364	20754
868.495	20826
868.625	21096
868.756	21062
868.886	21005
869.017	20979
869.147	21104
869.278	21119
869.408	20933
869.539	21032
869.669	21180
869.799	20979
869.929	21001
870.06	21055
870.19	21317
870.32	21272
870.45	21363
870.58	21435
870.71	21500
870.84	21526
870.97	21233
871.1	21412
871.23	21454
871.36	21637
871.489	21534
871.619	21622
871.749	21610
871.879	21622
872.008	21679
872.138	21610
872.267	21557
872.397	21481
872.526	21447
872.656	21408
872.785	21466
872.915	21660
873.044	21747
873.173	21625
873.303	21553
873.432	21652
873.561	21675
873.69	21644
873.819	21614
873.948	21663
874.077	21663
874.206	21625
874.335	21625
874.464	21663
874.593	21869
874.722	21804
874.851	21804
874.979	21895
875.108	21861
875.237	21759
875.365	21747
875.494	21869
875.623	21934
875.751	21869
875.88	22025
876.008	21960
876.136	22025
876.265	22226
876.393	22402
876.521	22280
876.65	22303
876.778	22219
876.906	22207
877.034	22181
877.162	22234
877.29	22120
877.418	22143
877.546	22200
877.674	22200
877.802	22135
877.93	22063
878.058	22230
878.185	22109
878.313	22135
878.441	22143
878.568	21819
878.696	22173
878.824	22211
878.951	22268
879.079	22310
879.206	22398
879.333	22295
879.461	22192
879.588	22310
879.715	22394
879.842	22371
879.97	22375
880.097	21994
880.224	22010
880.351	22025
880.478	22029
880.605	21911
880.732	22078
880.859	22287
880.986	22139
881.112	22078
881.239	21880
881.366	21755
881.493	21618
881.619	21561
881.746	21591
881.872	21599
881.999	21629
882.125	21545
882.252	21572
882.378	21519
882.505	21682
882.631	21435
882.757	21329
882.883	21405
883.01	21355
883.136	21260
883.262	21214
883.388	21154
883.514	21287
883.64	21325
883.766	21161
883.892	20849
884.018	21055
884.143	21184
884.269	21321
884.395	20990
884.52	20868
884.646	20990
884.772	20918
884.897	20849
885.023	20914
885.148	21020
885.274	21028
885.399	21104
885.524	20921
885.65	20937
885.775	20975
885.9	20872
886.025	21093
886.15	20944
886.275	20986
886.4	20731
886.525	20838
886.65	20861
886.775	20887
886.9	20937
887.025	20994
887.149	20811
887.274	20777
887.399	20743
887.523	20602
887.648	20587
887.773	20609
887.897	20872
888.021	20811
888.146	20632
888.27	20686
888.395	20781
888.519	20667
888.643	20693
888.767	20590
888.891	20568
889.015	20465
889.139	20568
889.263	20469
889.387	20632
889.511	20750
889.635	20667
889.759	20469
889.883	20533
890.006	20575
890.13	20568
890.254	20446
890.377	20381
890.501	20347
890.624	20142
890.748	20336
890.871	20084
890.995	20046
891.118	20012
891.241	20035
891.364	20138
891.488	20191
891.611	20107
891.734	20069
891.857	20157
891.98	20065
892.103	20130
892.226	19963
892.349	20035
892.471	19849
892.594	20039
892.717	20031
892.839	19898
892.962	19963
893.085	20016
893.207	20005
893.33	19944
893.452	19909
893.575	20008
893.697	19913
893.819	20058
893.941	20115
894.064	20035
894.186	19849
894.308	19906
894.43	20081
894.552	20084
894.674	20096
894.796	19940
894.918	19890
895.04	19928
895.161	20119
895.283	20035
895.405	19883
895.526	19978
895.648	19928
895.769	20024
895.891	20039
896.012	20115
896.134	19993
896.255	20016
896.376	19894
896.498	20016
896.619	19940
896.74	20001
896.861	20035
896.982	20282
897.103	20450
897.224	20275
897.345	20221
897.466	20138
897.587	20237
897.708	20252
897.828	20324
897.949	20058
898.07	20092
898.19	20142
898.311	20172
898.431	20183
898.552	20107
898.672	20157
898.792	20294
898.913	20153
899.033	20043
899.153	20035
899.273	19890
899.393	19906
899.513	19963
899.633	20043
899.753	19955
899.873	19822
899.993	20065
900.113	19913
900.232	19932
900.352	19860
900.472	19666
900.591	19712
900.711	19750
900.83	19651
900.95	19753
901.069	19791
901.189	19597
901.308	19373
901.427	19358
901.546	19316
901.665	19297
901.784	19377
901.904	19194
902.023	19137
902.141	18993
902.26	18897
902.379	18852
902.498	18958
902.617	18749
902.735	18837
902.854	18859
902.973	18772
903.091	18570
903.21	18536
903.328	18521
903.446	18395
903.565	18346
903.683	18403
903.801	18270
903.919	18209
904.038	18281
904.156	18152
904.274	18121
904.392	18045
904.51	18007
904.627	18041
904.745	18083
904.863	18140
904.981	17973
905.098	17824
905.216	17786
905.334	17756
905.451	17760
905.569	17714
905.686	17790
905.803	17691
905.921	17532
906.038	17630
906.155	17543
906.272	17474
906.389	17554
906.506	17337
906.623	17311
906.74	17330
906.857	17197
906.974	17204
907.091	17391
907.208	17455
907.324	17231
907.441	17189
907.557	17052
907.674	17113
907.79	16911
907.907	16965
908.023	17033
908.139	16980
908.256	16953
908.372	16904
908.488	16866
908.604	16946
908.72	16721
908.836	16774
908.952	16618
909.068	16809
909.184	16809
909.3	16717
909.415	16748
909.531	16691
909.647	16447
909.762	16409
909.878	16489
909.993	16382
910.108	16443
910.224	16394
910.339	16382
910.454	16204
910.57	16344
910.685	16150
910.8	16337
910.915	16451
911.03	16257
911.145	16074
911.259	16032
911.374	15991
911.489	15846
911.604	15918
911.718	15781
911.833	15774
911.947	15671
912.062	15629
912.176	15663
912.291	15736
912.405	15778
912.519	15857
912.633	15850
912.748	15778
912.862	15797
912.976	15644
913.09	15496
913.204	15469
913.318	15622
913.431	15701
913.545	15606
913.659	15667
913.772	15545
913.886	15473
914	15431
914.113	15435
914.226	15507
914.34	15416
914.453	15298
914.566	15450
914.68	15256
914.793	15195
914.906	15024
915.019	14967
915.132	14925
915.245	14956
915.358	15017
915.47	15051
915.583	14948
915.696	15074
915.809	15135
915.921	15226
916.034	14944
916.146	14853
916.259	14982
916.371	15009
916.483	14948
916.595	14895
916.708	14781
916.82	14777
916.932	14823
917.044	14769
917.156	14804
917.268	14693
917.38	14670
917.491	14617
917.603	14712
917.715	14727
917.826	14686
917.938	14564
918.049	14469
918.161	14537
918.272	14743
918.384	14693
918.495	14560
918.606	14450
918.717	14408
918.828	14450
918.939	14465
919.05	14370
919.161	14355
919.272	14244
919.383	14286
919.494	14366
919.604	14590
919.715	14457
919.826	14324
919.936	14396
920.047	14480
920.157	14351
920.267	14522
920.378	14408
920.488	14366
920.598	14571
920.708	14686
920.818	14495
920.928	14442
921.038	14769
921.148	14610
921.258	14305
921.368	14172
921.477	14119
921.587	14145
921.697	13989
921.806	14130
921.916	13940
922.025	13761
922.134	13791
922.244	13643
922.353	13776
922.462	13689
922.571	13468
922.68	13419
922.789	13381
922.898	13422
923.007	13320
923.116	13324
923.224	13304
923.333	13441
923.442	13259
923.55	13255
923.659	13278
923.767	13301
923.876	13145
923.984	13282
924.092	13202
924.201	13152
924.309	13190
924.417	13129
924.525	13076
924.633	13065
924.741	14012
924.849	12741
924.956	12977
925.064	12859
925.172	12760
925.279	12791
925.387	12829
925.494	12875
925.602	12890
925.709	12886
925.816	12753
925.924	12856
926.031	12856
926.138	12787
926.245	12806
926.352	12578
926.459	12760
926.566	12829
926.673	12711
926.779	12601
926.886	12604
926.993	12414
927.099	12460
927.206	12346
927.312	12296
927.419	12448
927.525	12422
927.631	12418
927.737	12270
927.843	12285
927.95	12163
928.056	12330
928.162	12311
928.267	12216
928.373	12928
928.479	12197
928.585	12076
928.69	12148
928.796	12270
928.901	12117
929.007	12015
929.112	12087
929.218	12125
929.323	11996
929.428	11950
929.533	12186
929.638	11969
929.743	11958
929.848	12030
929.953	11999
930.058	11790
930.163	11756
930.267	11714
930.372	11813
930.477	11741
930.581	11855
930.685	11748
930.79	11562
930.894	11566
930.998	11501
931.103	11623
931.207	11296
931.311	11330
931.415	11189
931.519	10995
931.623	10972
