Data from test_V78500241_2798.txt Node
Date: Fri Mar 25 15:29:20 CST 2022
User: usil
Spectrometer: V785-0024
Trigger mode: 0
Integration Time (sec): 4.000000E-1
Scans to average: 1
Nonlinearity correction enabled: false
Boxcar width: 0
Storing dark spectrum: false
XAxis mode: Wavelengths
Number of Pixels in Spectrum: 1024
>>>>>Begin Spectral Data<<<<<
801.071	27245
801.214	27161
801.356	26944
801.499	26895
801.641	26712
801.783	26621
801.926	26769
802.068	26720
802.211	26571
802.353	26644
802.496	26358
802.638	26202
802.78	26351
802.923	26214
803.065	26225
803.208	26259
803.35	26218
803.492	26537
803.635	26571
803.777	26511
803.919	26518
804.061	26811
804.204	26499
804.346	26457
804.488	26374
804.63	26560
804.773	26450
804.915	26434
805.057	26495
805.199	26457
805.341	26396
805.483	26788
805.626	26552
805.768	26499
805.91	26594
806.052	26636
806.194	26530
806.336	26708
806.478	26461
806.62	26533
806.762	26678
806.904	26918
807.046	27058
807.188	26933
807.33	26948
807.472	27093
807.614	26921
807.756	26910
807.898	26872
808.04	26746
808.182	26872
808.324	26811
808.465	26872
808.607	27135
808.749	27180
808.891	27344
809.033	27431
809.174	27272
809.316	27043
809.458	27222
809.6	27009
809.741	27237
809.883	27374
810.025	27332
810.166	27488
810.308	27447
810.45	27405
810.591	27405
810.733	27207
810.875	27142
811.016	27116
811.158	27100
811.299	27272
811.441	27450
811.582	27340
811.724	27294
811.865	27203
812.007	27074
812.148	27150
812.29	27112
812.431	27283
812.573	27408
812.714	27603
812.855	27652
812.997	27808
813.138	27793
813.279	27827
813.421	27618
813.562	27511
813.703	27340
813.845	27313
813.986	27085
814.127	26937
814.268	26971
814.41	26731
814.551	26838
814.692	26918
814.833	26693
814.974	26727
815.115	26811
815.256	26697
815.397	26617
815.539	26583
815.68	26545
815.821	26507
815.962	26663
816.103	26663
816.244	26499
816.385	26377
816.526	26457
816.666	26233
816.807	26012
816.948	26122
817.089	26142
817.23	26142
817.371	26088
817.512	26069
817.653	26050
817.793	26020
817.934	26069
818.075	26065
818.216	26153
818.356	26107
818.497	26100
818.638	25803
818.778	25738
818.919	25940
819.06	25849
819.2	25928
819.341	26054
819.481	25989
819.622	26233
819.762	26446
819.903	26324
820.043	26267
820.184	26263
820.324	26092
820.465	26206
820.605	26103
820.746	26153
820.886	25966
821.026	26081
821.167	26005
821.307	26195
821.447	26008
821.588	25894
821.728	25849
821.868	25776
822.008	25567
822.149	25613
822.289	25666
822.429	25274
822.569	25236
822.709	25236
822.849	25027
822.99	25133
823.13	25061
823.27	25088
823.41	24916
823.55	24768
823.69	24833
823.83	24829
823.97	24768
824.11	24745
824.25	24555
824.389	24597
824.529	24707
824.669	24574
824.809	24749
824.949	24764
825.089	24703
825.228	24700
825.368	24563
825.508	24456
825.648	24593
825.787	24521
825.927	24681
826.067	24616
826.206	24418
826.346	24551
826.485	24574
826.625	24563
826.765	24658
826.904	24627
827.044	24243
827.183	24281
827.323	24110
827.462	24270
827.601	24346
827.741	24213
827.88	24308
828.02	24110
828.159	24178
828.298	24308
828.437	24289
828.577	24235
828.716	24388
828.855	24243
828.994	23889
829.134	23923
829.273	24015
829.412	23980
829.551	23863
829.69	23988
829.829	23969
829.968	23992
830.107	23999
830.246	24011
830.385	23942
830.524	23798
830.663	23649
830.802	23764
830.941	23505
831.08	23604
831.219	23695
831.357	23786
831.496	23707
831.635	23493
831.774	23467
831.913	23467
832.051	23425
832.19	23337
832.329	23322
832.467	23239
832.606	23185
832.744	23242
832.883	23204
833.022	23193
833.16	23147
833.299	23200
833.437	23231
833.576	23315
833.714	23162
833.852	23258
833.991	23330
834.129	23379
834.267	23311
834.406	23353
834.544	23376
834.682	23277
834.821	23250
834.959	23463
835.097	23318
835.235	23212
835.373	23265
835.511	23341
835.65	23079
835.788	23170
835.926	22820
836.064	22892
836.202	22961
836.34	23170
836.478	23307
836.615	23147
836.753	23223
836.891	23216
837.029	23235
837.167	23056
837.305	22923
837.443	22930
837.58	22942
837.718	23060
837.856	22968
837.993	22919
838.131	22923
838.269	22736
838.406	22896
838.544	22740
838.681	22653
838.819	22626
838.956	22436
839.094	22478
839.231	22474
839.369	22577
839.506	22786
839.643	22675
839.781	22497
839.918	22409
840.055	22474
840.193	22367
840.33	22451
840.467	22382
840.604	22519
840.742	22687
840.879	22276
841.016	22230
841.153	22322
841.29	22390
841.427	22333
841.564	22428
841.701	22424
841.838	22249
841.975	22234
842.112	22344
842.249	22272
842.385	22181
842.522	22344
842.659	22200
842.796	22021
842.933	22173
843.069	22082
843.206	22093
843.343	22181
843.479	22116
843.616	22158
843.752	21895
843.889	21895
844.025	22093
844.162	21873
844.298	21987
844.435	21941
844.571	21915
844.708	22013
844.844	22078
844.98	22116
845.117	21956
845.253	21934
845.389	21823
845.525	21774
845.661	21846
845.798	21580
845.934	21739
846.07	21663
846.206	21694
846.342	21747
846.478	21720
846.614	21519
846.75	21298
846.886	21393
847.022	21504
847.158	21386
847.294	21485
847.429	21401
847.565	21249
847.701	21618
847.837	21066
847.972	21165
848.108	21199
848.244	21195
848.379	20982
848.515	20971
848.65	20902
848.786	20952
848.921	21070
849.057	21116
849.192	21028
849.328	21055
849.463	20861
849.598	20933
849.734	20815
849.869	20891
850.004	20724
850.14	20731
850.275	20842
850.41	20617
850.545	20670
850.68	20724
850.815	20834
850.95	20792
851.085	20921
851.22	20830
851.355	20857
851.49	20636
851.625	20750
851.76	20609
851.895	20667
852.03	20655
852.165	20743
852.299	20636
852.434	21001
852.569	20785
852.703	20758
852.838	20796
852.973	20876
853.107	20872
853.242	20629
853.376	20640
853.511	20514
853.645	20476
853.78	20629
853.914	20530
854.048	20541
854.183	20571
854.317	20564
854.451	20655
854.585	20640
854.72	20609
854.854	20613
854.988	20492
855.122	20697
855.256	20396
855.39	20533
855.524	20522
855.658	20648
855.792	20613
855.926	20587
856.06	20670
856.194	20492
856.327	20560
856.461	20412
856.595	20442
856.729	20587
856.862	20583
856.996	20499
857.13	20648
857.263	20724
857.397	20564
857.53	20495
857.664	20663
857.797	20518
857.931	20708
858.064	20556
858.197	20571
858.331	20579
858.464	20530
858.597	20412
858.731	20556
858.864	20533
858.997	20636
859.13	20495
859.263	20613
859.396	20651
859.529	20583
859.662	20625
859.795	20419
859.928	20549
860.061	20777
860.194	20758
860.327	20617
860.46	20686
860.592	20621
860.725	20686
860.858	20788
860.99	20537
861.123	20419
861.256	20499
861.388	20545
861.521	21176
861.653	20480
861.786	20396
861.918	20469
862.05	20396
862.183	20564
862.315	20545
862.447	20499
862.58	20415
862.712	20408
862.844	20434
862.976	20427
863.108	20377
863.24	20746
863.372	20240
863.504	20355
863.636	20244
863.768	20282
863.9	20267
864.032	20157
864.164	20313
864.296	20233
864.428	20457
864.559	20351
864.691	20210
864.823	20351
864.954	20134
865.086	20221
865.217	20202
865.349	20111
865.48	20134
865.612	20168
865.743	20271
865.875	20221
866.006	20214
866.137	20229
866.269	20126
866.4	20138
866.531	20149
866.662	20176
866.793	20119
866.924	20172
867.055	20043
867.186	20206
867.317	20180
867.448	20008
867.579	20065
867.71	20043
867.841	20081
867.972	20206
868.103	20065
868.233	20115
868.364	20130
868.495	20267
868.625	20301
868.756	20514
868.886	20180
869.017	20282
869.147	20427
869.278	20541
869.408	20355
869.539	20374
869.669	20469
869.799	20457
869.929	20575
870.06	20526
870.19	20796
870.32	20560
870.45	20663
870.58	20769
870.71	20857
870.84	20811
870.97	20743
871.1	20720
871.23	20948
871.36	20967
871.489	20861
871.619	21077
871.749	20880
871.879	20982
872.008	21005
872.138	20963
872.267	21005
872.397	20853
872.526	20750
872.656	20872
872.785	20724
872.915	20887
873.044	21047
873.173	20982
873.303	20952
873.432	21013
873.561	21051
873.69	20933
873.819	20941
873.948	21085
874.077	21009
874.206	20925
874.335	20963
874.464	21207
874.593	21131
874.722	21150
874.851	21249
874.979	21348
875.108	21173
875.237	21294
875.365	21199
875.494	21207
875.623	21416
875.751	21165
875.88	21291
876.008	21397
876.136	21481
876.265	21553
876.393	21686
876.521	21759
876.65	21835
876.778	21682
876.906	21530
877.034	21538
877.162	21561
877.29	21545
877.418	21637
877.546	21492
877.674	21648
877.802	21606
877.93	21523
878.058	21576
878.185	21473
878.313	21587
878.441	21466
878.568	21450
878.696	21542
878.824	21603
878.951	21686
879.079	21671
879.206	21945
879.333	21736
879.461	21580
879.588	21644
879.715	21865
879.842	21759
879.97	21679
880.097	21336
880.224	21568
880.351	21431
880.478	21534
880.605	21370
880.732	21408
880.859	21625
880.986	21374
881.112	21412
881.239	21329
881.366	21230
881.493	21093
881.619	20842
881.746	21017
881.872	20937
881.999	20952
882.125	20838
882.252	21058
882.378	21066
882.505	21100
882.631	20914
882.757	20689
882.883	20674
883.01	20735
883.136	20598
883.262	20590
883.388	20480
883.514	20765
883.64	20689
883.766	20705
883.892	20431
884.018	20571
884.143	20697
884.269	20838
884.395	20469
884.52	20351
884.646	20396
884.772	20309
884.897	20252
885.023	20370
885.148	20385
885.274	20473
885.399	20434
885.524	20355
885.65	20320
885.775	20355
885.9	20332
886.025	20507
886.15	20492
886.275	20377
886.4	20221
886.525	20313
886.65	20244
886.775	20271
886.9	20389
887.025	20564
887.149	20294
887.274	20126
887.399	20012
887.523	20183
887.648	20111
887.773	19982
887.897	20046
888.021	20153
888.146	20088
888.27	20320
888.395	20191
888.519	20244
888.643	20187
888.767	20191
888.891	20088
889.015	19913
889.139	19978
889.263	19940
889.387	20046
889.511	20202
889.635	20115
889.759	20081
889.883	19864
890.006	19989
890.13	19944
890.254	19871
890.377	19925
890.501	19727
890.624	19753
890.748	19898
890.871	19670
890.995	19571
891.118	19537
891.241	19548
891.364	19487
891.488	19655
891.611	19582
891.734	19495
891.857	19597
891.98	19578
892.103	19460
892.226	19616
892.349	19502
892.471	19343
892.594	19495
892.717	19575
892.839	19327
892.962	19422
893.085	19514
893.207	19453
893.33	19499
893.452	19365
893.575	19499
893.697	19430
893.819	19628
893.941	19727
894.064	19662
894.186	19495
894.308	19407
894.43	19601
894.552	19635
894.674	19670
894.796	19422
894.918	19426
895.04	19373
895.161	19586
895.283	19483
895.405	19480
895.526	19373
895.648	19457
895.769	19525
895.891	19468
896.012	19468
896.134	19491
896.255	19449
896.376	19411
896.498	19502
896.619	19548
896.74	19518
896.861	19559
896.982	19932
897.103	19940
897.224	19746
897.345	19681
897.466	19537
897.587	19727
897.708	20027
897.828	19772
897.949	19582
898.07	19567
898.19	19624
898.311	19750
898.431	19700
898.552	19731
898.672	19670
898.792	19712
898.913	19556
899.033	19628
899.153	19518
899.273	19411
899.393	19521
899.513	19548
899.633	19544
899.753	19419
899.873	19430
899.993	19480
900.113	19434
900.232	19480
900.352	19343
900.472	19377
900.591	19183
900.711	19293
900.83	19251
900.95	19407
901.069	19240
901.189	19255
901.308	18977
901.427	18894
901.546	18901
901.665	18871
901.784	18947
901.904	18673
902.023	18589
902.141	18490
902.26	18479
902.379	18517
902.498	18414
902.617	18502
902.735	18426
902.854	18372
902.973	18216
903.091	18011
903.21	18155
903.328	18026
903.446	17988
903.565	17897
903.683	17863
903.801	17786
903.919	17923
904.038	17832
904.156	17649
904.274	17657
904.392	17585
904.51	17596
904.627	17653
904.745	17779
904.863	17634
904.981	17379
905.098	17208
905.216	17315
905.334	17417
905.451	17265
905.569	17269
905.686	17341
905.803	17254
905.921	17025
906.038	17193
906.155	17117
906.272	17056
906.389	17105
906.506	16797
906.623	16968
906.74	16820
906.857	16767
906.974	16691
907.091	16908
907.208	17025
907.324	16885
907.441	16790
907.557	16637
907.674	16535
907.79	16504
907.907	16459
908.023	16577
908.139	16497
908.256	16436
908.372	16535
908.488	16409
908.604	16295
908.72	16265
908.836	16367
908.952	16299
909.068	16299
909.184	16356
909.3	16162
909.415	16318
909.531	16337
909.647	16158
909.762	16051
909.878	16048
909.993	15926
910.108	16010
910.224	15926
910.339	15915
910.454	15850
910.57	15869
910.685	15724
910.8	15930
910.915	15941
911.03	15884
911.145	15713
911.259	15568
911.374	15637
911.489	15523
911.604	15591
911.718	15325
911.833	15408
911.947	15351
912.062	15161
912.176	15405
912.291	15397
912.405	15435
912.519	15625
912.633	15545
912.748	15408
912.862	15310
912.976	15233
913.09	15085
913.204	15123
913.318	15100
913.431	15344
913.545	15363
913.659	15294
913.772	15123
913.886	14979
914	15036
914.113	15077
914.226	15043
914.34	15058
914.453	14861
914.566	15028
914.68	14895
914.793	14876
914.906	14640
915.019	14495
915.132	14583
915.245	14590
915.358	14655
915.47	14651
915.583	14556
915.696	14621
915.809	14693
915.921	14735
916.034	14556
916.146	14469
916.259	14385
916.371	14667
916.483	14587
916.595	14415
916.708	14533
916.82	14473
916.932	14396
917.044	14488
917.156	14423
917.268	14214
917.38	14248
917.491	14286
917.603	14298
917.715	14313
917.826	14320
917.938	14229
918.049	14100
918.161	14244
918.272	14339
918.384	14263
918.495	14237
918.606	14130
918.717	14031
918.828	14062
918.939	14035
919.05	13906
919.161	14005
919.272	13917
919.383	13826
919.494	14119
919.604	14221
919.715	14092
919.826	13936
919.936	13974
920.047	14157
920.157	14081
920.267	14244
920.378	14020
920.488	14058
920.598	14240
920.708	14263
920.818	14180
920.928	14233
921.038	14370
921.148	14210
921.258	13982
921.368	13894
921.477	13776
921.587	13772
921.697	13609
921.806	13803
921.916	13700
922.025	13289
922.134	13445
922.244	13365
922.353	13422
922.462	13343
922.571	13209
922.68	13190
922.789	13065
922.898	13027
923.007	13050
923.116	13095
923.224	13091
923.333	13061
923.442	12920
923.55	12966
923.659	12901
923.767	12924
923.876	12821
923.984	12943
924.092	12783
924.201	12821
924.309	12806
924.417	12840
924.525	12719
924.633	12719
924.741	13559
924.849	12582
924.956	12719
925.064	12536
925.172	12479
925.279	12475
925.387	12509
925.494	12604
925.602	12620
925.709	12498
925.816	12555
925.924	12490
926.031	12525
926.138	12471
926.245	12551
926.352	12369
926.459	12429
926.566	12471
926.673	12330
926.779	12251
926.886	12235
926.993	12155
927.099	12117
927.206	12057
927.312	11992
927.419	12144
927.525	12117
927.631	12117
927.737	12041
927.843	11980
927.95	11836
928.056	11965
928.162	11897
928.267	12026
928.373	12578
928.479	11939
928.585	11767
928.69	11916
928.796	11961
928.901	11874
929.007	11638
929.112	11805
929.218	11786
929.323	11798
929.428	11638
929.533	11752
929.638	11665
929.743	11551
929.848	11653
929.953	11623
930.058	11551
930.163	11368
930.267	11315
930.372	11543
930.477	11337
930.581	11661
930.685	11459
930.79	11208
930.894	11315
930.998	11231
931.103	11318
931.207	11071
931.311	10991
931.415	10942
931.519	10710
931.623	10618
