Data from test_V78500241_1351.txt Node
Date: Fri Mar 25 15:19:15 CST 2022
User: usil
Spectrometer: V785-0024
Trigger mode: 0
Integration Time (sec): 4.000000E-1
Scans to average: 1
Nonlinearity correction enabled: false
Boxcar width: 0
Storing dark spectrum: false
XAxis mode: Wavelengths
Number of Pixels in Spectrum: 1024
>>>>>Begin Spectral Data<<<<<
801.071	28109
801.214	27949
801.356	27694
801.499	27823
801.641	27591
801.783	27545
801.926	27606
802.068	27682
802.211	27576
802.353	27431
802.496	27237
802.638	27340
802.78	27214
802.923	27154
803.065	27157
803.208	27180
803.35	27287
803.492	27348
803.635	27477
803.777	27252
803.919	27325
804.061	27751
804.204	27481
804.346	27485
804.488	27184
804.63	27439
804.773	27408
804.915	27557
805.057	27515
805.199	27473
805.341	27625
805.483	27679
805.626	27538
805.768	27405
805.91	27549
806.052	27572
806.194	27500
806.336	27701
806.478	27633
806.62	27625
806.762	27709
806.904	27823
807.046	28086
807.188	27895
807.33	27998
807.472	28090
807.614	27926
807.756	28074
807.898	27922
808.04	27934
808.182	27797
808.324	27892
808.465	27816
808.607	28158
808.749	28261
808.891	28306
809.033	28367
809.174	28363
809.316	28230
809.458	28295
809.6	28291
809.741	28481
809.883	28485
810.025	28603
810.166	28542
810.308	28497
810.45	28592
810.591	28401
810.733	28177
810.875	28280
811.016	28219
811.158	28257
811.299	28207
811.441	28401
811.582	28272
811.724	28325
811.865	28200
812.007	28124
812.148	28185
812.29	28284
812.431	28561
812.573	28565
812.714	28607
812.855	28668
812.997	29003
813.138	29056
813.279	28957
813.421	28873
813.562	28873
813.703	28698
813.845	28546
813.986	28135
814.127	28021
814.268	27994
814.41	28090
814.551	28002
814.692	27945
814.833	27979
814.974	27975
815.115	27953
815.256	27808
815.397	27926
815.539	27701
815.68	27895
815.821	27732
815.962	27755
816.103	27793
816.244	27667
816.385	27469
816.526	27469
816.666	27469
816.807	27348
816.948	27416
817.089	27355
817.23	27226
817.371	27226
817.512	27203
817.653	27310
817.793	27233
817.934	27233
818.075	27165
818.216	27336
818.356	27161
818.497	27127
818.638	26910
818.778	26956
818.919	26960
819.06	27043
819.2	27169
819.341	27260
819.481	27150
819.622	27348
819.762	27610
819.903	27633
820.043	27458
820.184	27435
820.324	27252
820.465	27310
820.605	27401
820.746	27401
820.886	27260
821.026	27230
821.167	27370
821.307	27431
821.447	27169
821.588	27260
821.728	27066
821.868	26864
822.008	26659
822.149	26708
822.289	26644
822.429	26389
822.569	26282
822.709	26419
822.849	26176
822.99	26389
823.13	26199
823.27	26214
823.41	26122
823.55	25894
823.69	26157
823.83	26145
823.97	26001
824.11	25887
824.25	25875
824.389	25944
824.529	26119
824.669	25875
824.809	26001
824.949	25887
825.089	25944
825.228	25856
825.368	25662
825.508	25727
825.648	25753
825.787	25757
825.927	25837
826.067	25738
826.206	25738
826.346	25814
826.485	25799
826.625	25784
826.765	25913
826.904	25814
827.044	25544
827.183	25590
827.323	25540
827.462	25609
827.601	25460
827.741	25521
827.88	25601
828.02	25472
828.159	25457
828.298	25521
828.437	25472
828.577	25460
828.716	25537
828.855	25343
828.994	25266
829.134	25171
829.273	25289
829.412	25206
829.551	25069
829.69	25183
829.829	25171
829.968	25297
830.107	25164
830.246	25088
830.385	25107
830.524	25141
830.663	24962
830.802	24890
830.941	24787
831.08	24677
831.219	24703
831.357	24897
831.496	25042
831.635	24779
831.774	24749
831.913	24696
832.051	24623
832.19	24601
832.329	24608
832.467	24452
832.606	24353
832.744	24429
832.883	24456
833.022	24452
833.16	24612
833.299	24498
833.437	24544
833.576	24601
833.714	24281
833.852	24448
833.991	24536
834.129	24551
834.267	24608
834.406	24601
834.544	24585
834.682	24585
834.821	24505
834.959	24646
835.097	24365
835.235	24483
835.373	24509
835.511	24517
835.65	24410
835.788	24479
835.926	24342
836.064	24015
836.202	24197
836.34	24467
836.478	24467
836.615	24308
836.753	24384
836.891	24467
837.029	24490
837.167	24205
837.305	24232
837.443	24262
837.58	24220
837.718	24281
837.856	24121
837.993	24224
838.131	24121
838.269	24030
838.406	24159
838.544	23996
838.681	23840
838.819	23821
838.956	23680
839.094	23665
839.231	23695
839.369	23821
839.506	24038
839.643	23866
839.781	23573
839.918	23649
840.055	23604
840.193	23745
840.33	23661
840.467	23531
840.604	23661
840.742	23760
840.879	23436
841.016	23471
841.153	23395
841.29	23608
841.427	23482
841.564	23634
841.701	23436
841.838	23471
841.975	23505
842.112	23596
842.249	23330
842.385	23391
842.522	23471
842.659	23330
842.796	23379
842.933	23349
843.069	23261
843.206	23379
843.343	23337
843.479	23417
843.616	23303
843.752	23208
843.889	23204
844.025	23227
844.162	23105
844.298	23200
844.435	23151
844.571	23037
844.708	23223
844.844	23231
844.98	23261
845.117	23151
845.253	22953
845.389	23006
845.525	23052
845.661	22839
845.798	22949
845.934	22999
846.07	22877
846.206	22850
846.342	22968
846.478	22869
846.614	22584
846.75	22542
846.886	22569
847.022	22653
847.158	22626
847.294	22516
847.429	22599
847.565	22508
847.701	22908
847.837	22280
847.972	22352
848.108	22390
848.244	22386
848.379	22177
848.515	22169
848.65	22158
848.786	22169
848.921	22192
849.057	22287
849.192	22192
849.328	22230
849.463	22147
849.598	22013
849.734	22010
849.869	21968
850.004	21895
850.14	22002
850.275	21922
850.41	21835
850.545	21892
850.68	21781
850.815	21968
850.95	21945
851.085	22082
851.22	22013
851.355	22006
851.49	21941
851.625	21907
851.76	21842
851.895	21926
852.03	21838
852.165	21804
852.299	21937
852.434	22055
852.569	21865
852.703	21975
852.838	21865
852.973	22025
853.107	21975
853.242	21808
853.376	21781
853.511	21709
853.645	21690
853.78	21907
853.914	21713
854.048	21713
854.183	21648
854.317	21823
854.451	21949
854.585	21637
854.72	21652
854.854	21762
854.988	21641
855.122	21774
855.256	21507
855.39	21789
855.524	21835
855.658	21774
855.792	21713
855.926	21743
856.06	21827
856.194	21926
856.327	21660
856.461	21587
856.595	21728
856.729	21755
856.862	21854
856.996	21804
857.13	21778
857.263	21903
857.397	21804
857.53	21667
857.664	21850
857.797	21793
857.931	21892
858.064	21629
858.197	21892
858.331	21599
858.464	21603
858.597	21545
858.731	21656
858.864	21736
858.997	21743
859.13	21778
859.263	21800
859.396	21732
859.529	21743
859.662	21747
859.795	21770
859.928	21690
860.061	21865
860.194	21930
860.327	21781
860.46	21694
860.592	21930
860.725	21854
860.858	21880
860.99	21690
861.123	21610
861.256	21755
861.388	21759
861.521	22230
861.653	21606
861.786	21576
861.918	21572
862.05	21603
862.183	21625
862.315	21587
862.447	21599
862.58	21637
862.712	21564
862.844	21477
862.976	21564
863.108	21469
863.24	21842
863.372	21359
863.504	21344
863.636	21420
863.768	21466
863.9	21378
864.032	21245
864.164	21420
864.296	21378
864.428	21557
864.559	21614
864.691	21568
864.823	21477
864.954	21355
865.086	21462
865.217	21386
865.349	21207
865.48	21332
865.612	21287
865.743	21504
865.875	21332
866.006	21310
866.137	21370
866.269	21298
866.4	21287
866.531	21268
866.662	21207
866.793	21218
866.924	21184
867.055	21306
867.186	21291
867.317	21184
867.448	21173
867.579	21020
867.71	21074
867.841	21112
867.972	21306
868.103	21268
868.233	21306
868.364	21233
868.495	21336
868.625	21496
868.756	21595
868.886	21511
869.017	21576
869.147	21564
869.278	21564
869.408	21401
869.539	21450
869.669	21557
869.799	21477
869.929	21622
870.06	21564
870.19	21838
870.32	21743
870.45	21816
870.58	21918
870.71	22013
870.84	21846
870.97	21964
871.1	21873
871.23	22002
871.36	21998
871.489	22002
871.619	22105
871.749	22086
871.879	22040
872.008	22139
872.138	22051
872.267	22131
872.397	22010
872.526	21956
872.656	21930
872.785	22002
872.915	22128
873.044	22147
873.173	22074
873.303	22154
873.432	21987
873.561	22265
873.69	22276
873.819	22124
873.948	22105
874.077	22200
874.206	22154
874.335	22120
874.464	22303
874.593	22306
874.722	22265
874.851	22344
874.979	22303
875.108	22394
875.237	22295
875.365	22093
875.494	22333
875.623	22341
875.751	22261
875.88	22295
876.008	22352
876.136	22424
876.265	22656
876.393	22839
876.521	22710
876.65	22965
876.778	22725
876.906	22603
877.034	22611
877.162	22634
877.29	22683
877.418	22664
877.546	22664
877.674	22588
877.802	22618
877.93	22713
878.058	22596
878.185	22500
878.313	22615
878.441	22596
878.568	22504
878.696	22637
878.824	22752
878.951	22767
879.079	22835
879.206	22908
879.333	22812
879.461	22637
879.588	22782
879.715	22915
879.842	22877
879.97	22717
880.097	22390
880.224	22531
880.351	22470
880.478	22455
880.605	22413
880.732	22440
880.859	22599
880.986	22538
881.112	22497
881.239	22287
881.366	22139
881.493	22143
881.619	22006
881.746	22226
881.872	22078
881.999	22036
882.125	21937
882.252	22147
882.378	22029
882.505	22112
882.631	21975
882.757	21736
882.883	21827
883.01	21629
883.136	21717
883.262	21591
883.388	21580
883.514	21675
883.64	21709
883.766	21739
883.892	21466
884.018	21625
884.143	21576
884.269	21854
884.395	21412
884.52	21329
884.646	21462
884.772	21230
884.897	21344
885.023	21256
885.148	21599
885.274	21507
885.399	21367
885.524	21401
885.65	21348
885.775	21374
885.9	21321
886.025	21405
886.15	21389
886.275	21424
886.4	21386
886.525	21378
886.65	21325
886.775	21241
886.9	21458
887.025	21492
887.149	21313
887.274	21100
887.399	21036
887.523	21055
887.648	21142
887.773	21028
887.897	21302
888.021	21207
888.146	21119
888.27	21256
888.395	21211
888.519	21230
888.643	21211
888.767	21211
888.891	21093
889.015	20918
889.139	21093
889.263	20872
889.387	20967
889.511	21108
889.635	21081
889.759	20918
889.883	20994
890.006	20895
890.13	21028
890.254	20807
890.377	20982
890.501	20674
890.624	20613
890.748	20701
890.871	20514
890.995	20457
891.118	20294
891.241	20400
891.364	20450
891.488	20564
891.611	20609
891.734	20537
891.857	20507
891.98	20469
892.103	20575
892.226	20587
892.349	20522
892.471	20263
892.594	20412
892.717	20419
892.839	20339
892.962	20503
893.085	20469
893.207	20347
893.33	20290
893.452	20305
893.575	20336
893.697	20256
893.819	20438
893.941	20511
894.064	20556
894.186	20412
894.308	20313
894.43	20473
894.552	20549
894.674	20351
894.796	20218
894.918	20389
895.04	20507
895.161	20358
895.283	20431
895.405	20317
895.526	20377
895.648	20450
895.769	20278
895.891	20415
896.012	20457
896.134	20396
896.255	20423
896.376	20358
896.498	20393
896.619	20434
896.74	20362
896.861	20480
896.982	20678
897.103	20807
897.224	20632
897.345	20617
897.466	20530
897.587	20663
897.708	20777
897.828	20594
897.949	20587
898.07	20518
898.19	20533
898.311	20617
898.431	20492
898.552	20476
898.672	20701
898.792	20629
898.913	20575
899.033	20423
899.153	20355
899.273	20256
899.393	20374
899.513	20313
899.633	20343
899.753	20404
899.873	20389
899.993	20362
900.113	20275
900.232	20385
900.352	20172
900.472	20130
900.591	20103
900.711	20142
900.83	20134
900.95	20248
901.069	20176
901.189	20020
901.308	19814
901.427	19677
901.546	19780
901.665	19693
901.784	19590
901.904	19620
902.023	19403
902.141	19194
902.26	19244
902.379	19247
902.498	19156
902.617	19107
902.735	19251
902.854	19213
902.973	19118
903.091	18985
903.21	18897
903.328	18943
903.446	18875
903.565	18616
903.683	18646
903.801	18639
903.919	18521
904.038	18585
904.156	18433
904.274	18506
904.392	18391
904.51	18418
904.627	18467
904.745	18464
904.863	18414
904.981	18182
905.098	18163
905.216	18057
905.334	18136
905.451	18049
905.569	18049
905.686	18125
905.803	18083
905.921	17935
906.038	17999
906.155	17904
906.272	17897
906.389	17813
906.506	17604
906.623	17684
906.74	17547
906.857	17570
906.974	17478
907.091	17726
907.208	17714
907.324	17589
907.441	17512
907.557	17493
907.674	17379
907.79	17269
907.907	17368
908.023	17330
908.139	17315
908.256	17311
908.372	17280
908.488	17315
908.604	17109
908.72	17018
908.836	17067
908.952	17075
909.068	17170
909.184	17117
909.3	17113
909.415	17060
909.531	17014
909.647	16847
909.762	16801
909.878	16729
909.993	16816
910.108	16824
910.224	16698
910.339	16767
910.454	16702
910.57	16603
910.685	16504
910.8	16774
910.915	16698
911.03	16538
911.145	16337
911.259	16390
911.374	16402
911.489	16303
911.604	16207
911.718	16029
911.833	16101
911.947	16010
912.062	15922
912.176	16090
912.291	16116
912.405	16139
912.519	16169
912.633	16200
912.748	16128
912.862	16109
912.976	15937
913.09	15873
913.204	15873
913.318	15915
913.431	16010
913.545	15949
913.659	16021
913.772	15895
913.886	15804
914	15713
914.113	15675
914.226	15907
914.34	15694
914.453	15545
914.566	15762
914.68	15587
914.793	15606
914.906	15332
915.019	15359
915.132	15241
915.245	15374
915.358	15382
915.47	15302
915.583	15382
915.696	15268
915.809	15416
915.921	15405
916.034	15249
916.146	15161
916.259	15154
916.371	15340
916.483	15264
916.595	15089
916.708	15135
916.82	15085
916.932	15123
917.044	15119
917.156	15070
917.268	14986
917.38	15009
917.491	15013
917.603	14948
917.715	15051
917.826	14929
917.938	14876
918.049	14781
918.161	14925
918.272	14982
918.384	15017
918.495	14948
918.606	14830
918.717	14735
918.828	14754
918.939	14777
919.05	14564
919.161	14705
919.272	14556
919.383	14560
919.494	14849
919.604	14887
919.715	14667
919.826	14602
919.936	14727
920.047	14602
920.157	14724
920.267	14914
920.378	14796
920.488	14636
920.598	14861
920.708	14979
920.818	14686
920.928	14765
921.038	14891
921.148	14979
921.258	14602
921.368	14484
921.477	14438
921.587	14366
921.697	14347
921.806	14442
921.916	14138
922.025	14092
922.134	14100
922.244	13951
922.353	14069
922.462	13909
922.571	13814
922.68	13689
922.789	13788
922.898	13708
923.007	13597
923.116	13693
923.224	13772
923.333	13571
923.442	13480
923.55	13559
923.659	13647
923.767	13533
923.876	13468
923.984	13502
924.092	13365
924.201	13468
924.309	13453
924.417	13430
924.525	13407
924.633	13320
924.741	14054
924.849	13126
924.956	13244
925.064	13206
925.172	12993
925.279	13065
925.387	13149
925.494	13164
925.602	13247
925.709	13194
925.816	12977
925.924	13072
926.031	13141
926.138	13057
926.245	13069
926.352	12875
926.459	13053
926.566	13042
926.673	13015
926.779	12745
926.886	12875
926.993	12650
927.099	12665
927.206	12642
927.312	12604
927.419	12764
927.525	12585
927.631	12681
927.737	12551
927.843	12498
927.95	12395
928.056	12483
928.162	12566
928.267	12460
928.373	13137
928.479	12486
928.585	12327
928.69	12391
928.796	12456
928.901	12399
929.007	12186
929.112	12342
929.218	12251
929.323	12289
929.428	12129
929.533	12304
929.638	12049
929.743	12076
929.848	12140
929.953	12152
930.058	12041
930.163	11893
930.267	11916
930.372	12083
930.477	11771
930.581	12087
930.685	11961
930.79	11809
930.894	11771
930.998	11748
931.103	11790
931.207	11543
931.311	11406
931.415	11337
931.519	11265
931.623	11124
