Data from test_V78500241_408.txt Node
Date: Fri Mar 25 15:12:42 CST 2022
User: usil
Spectrometer: V785-0024
Trigger mode: 0
Integration Time (sec): 4.000000E-1
Scans to average: 1
Nonlinearity correction enabled: false
Boxcar width: 0
Storing dark spectrum: false
XAxis mode: Wavelengths
Number of Pixels in Spectrum: 1024
>>>>>Begin Spectral Data<<<<<
801.071	27047
801.214	26948
801.356	26857
801.499	26872
801.641	26625
801.783	26712
801.926	26769
802.068	26762
802.211	26613
802.353	26408
802.496	26347
802.638	26336
802.78	26225
802.923	26145
803.065	26187
803.208	26164
803.35	26210
803.492	26438
803.635	26389
803.777	26263
803.919	26530
804.061	26861
804.204	26575
804.346	26324
804.488	26358
804.63	26370
804.773	26233
804.915	26389
805.057	26518
805.199	26434
805.341	26537
805.483	26514
805.626	26526
805.768	26389
805.91	26522
806.052	26629
806.194	26377
806.336	26712
806.478	26446
806.62	26533
806.762	26575
806.904	26815
807.046	27036
807.188	26921
807.33	27005
807.472	26849
807.614	26899
807.756	26838
807.898	26872
808.04	26621
808.182	26659
808.324	26762
808.465	26868
808.607	26956
808.749	27047
808.891	27146
809.033	27302
809.174	27203
809.316	27036
809.458	27112
809.6	27138
809.741	27287
809.883	27260
810.025	27287
810.166	27386
810.308	27272
810.45	27473
810.591	27458
810.733	27085
810.875	27058
811.016	27009
811.158	27055
811.299	27131
811.441	27100
811.582	27157
811.724	27001
811.865	27005
812.007	27207
812.148	26971
812.29	27017
812.431	27150
812.573	27427
812.714	27488
812.855	27561
812.997	27682
813.138	27888
813.279	27720
813.421	27675
813.562	27660
813.703	27389
813.845	27332
813.986	27089
814.127	26842
814.268	26842
814.41	26785
814.551	26750
814.692	26716
814.833	26758
814.974	26674
815.115	26765
815.256	26712
815.397	26632
815.539	26583
815.68	26514
815.821	26571
815.962	26469
816.103	26560
816.244	26385
816.385	26240
816.526	26180
816.666	26119
816.807	26001
816.948	26221
817.089	26206
817.23	26046
817.371	26027
817.512	26058
817.653	25982
817.793	25951
817.934	26115
818.075	26073
818.216	26062
818.356	26088
818.497	25989
818.638	25811
818.778	25639
818.919	25727
819.06	25849
819.2	25833
819.341	25936
819.481	25894
819.622	26176
819.762	26336
819.903	26290
820.043	26263
820.184	26100
820.324	26145
820.465	26328
820.605	26191
820.746	26103
820.886	26084
821.026	25989
821.167	25966
821.307	26130
821.447	26183
821.588	25970
821.728	25822
821.868	25639
822.008	25647
822.149	25343
822.289	25483
822.429	25343
822.569	25114
822.709	25228
822.849	25072
822.99	25065
823.13	25148
823.27	24996
823.41	24932
823.55	24639
823.69	24802
823.83	24779
823.97	24753
824.11	24635
824.25	24532
824.389	24551
824.529	24715
824.669	24616
824.809	24753
824.949	24924
825.089	24669
825.228	24601
825.368	24563
825.508	24563
825.648	24555
825.787	24540
825.927	24528
826.067	24426
826.206	24513
826.346	24486
826.485	24460
826.625	24589
826.765	24642
826.904	24597
827.044	24197
827.183	24270
827.323	24285
827.462	24216
827.601	24228
827.741	24266
827.88	24300
828.02	24159
828.159	24171
828.298	24136
828.437	24232
828.577	24258
828.716	24346
828.855	24144
828.994	23984
829.134	23912
829.273	23984
829.412	23805
829.551	23824
829.69	23908
829.829	24011
829.968	24011
830.107	24026
830.246	23836
830.385	23866
830.524	23870
830.663	23889
830.802	23699
830.941	23585
831.08	23471
831.219	23623
831.357	23611
831.496	23691
831.635	23608
831.774	23543
831.913	23448
832.051	23326
832.19	23360
832.329	23395
832.467	23311
832.606	23181
832.744	23193
832.883	23102
833.022	23189
833.16	23315
833.299	23334
833.437	23273
833.576	23273
833.714	23322
833.852	23383
833.991	23296
834.129	23356
834.267	23436
834.406	23280
834.544	23349
834.682	23284
834.821	23296
834.959	23402
835.097	23341
835.235	23303
835.373	23261
835.511	23216
835.65	23220
835.788	23242
835.926	23083
836.064	22919
836.202	23052
836.34	23318
836.478	23353
836.615	23132
836.753	23246
836.891	23288
837.029	23147
837.167	23079
837.305	23079
837.443	22957
837.58	23006
837.718	23071
837.856	23083
837.993	23056
838.131	22927
838.269	22923
838.406	22946
838.544	22755
838.681	22736
838.819	22683
838.956	22493
839.094	22481
839.231	22626
839.369	22656
839.506	22946
839.643	22786
839.781	22497
839.918	22489
840.055	22405
840.193	22451
840.33	22443
840.467	22493
840.604	22386
840.742	22653
840.879	22295
841.016	22447
841.153	22352
841.29	22508
841.427	22379
841.564	22394
841.701	22436
841.838	22375
841.975	22253
842.112	22398
842.249	22261
842.385	22158
842.522	22398
842.659	22211
842.796	22150
842.933	22242
843.069	22234
843.206	22139
843.343	22276
843.479	22314
843.616	22147
843.752	21922
843.889	22013
844.025	22147
844.162	22063
844.298	22082
844.435	22013
844.571	21945
844.708	22010
844.844	22131
844.98	22135
845.117	22017
845.253	21930
845.389	21842
845.525	21892
845.661	21838
845.798	21747
845.934	21816
846.07	21671
846.206	21751
846.342	21850
846.478	21759
846.614	21477
846.75	21374
846.886	21443
847.022	21595
847.158	21462
847.294	21557
847.429	21515
847.565	21447
847.701	21762
847.837	21127
847.972	21199
848.108	21310
848.244	21306
848.379	21112
848.515	21009
848.65	21009
848.786	21096
848.921	21085
849.057	21291
849.192	21112
849.328	21123
849.463	21096
849.598	20960
849.734	20963
849.869	20891
850.004	20746
850.14	20880
850.275	20762
850.41	20682
850.545	20815
850.68	20883
850.815	20807
850.95	20815
851.085	21032
851.22	20925
851.355	20796
851.49	20849
851.625	20830
851.76	20815
851.895	20686
852.03	20659
852.165	20735
852.299	20811
852.434	20883
852.569	20895
852.703	20716
852.838	20834
852.973	20982
853.107	20960
853.242	20739
853.376	20773
853.511	20537
853.645	20590
853.78	20765
853.914	20716
854.048	20731
854.183	20636
854.317	20689
854.451	20750
854.585	20571
854.72	20701
854.854	20724
854.988	20549
855.122	20606
855.256	20602
855.39	20613
855.524	20659
855.658	20670
855.792	20655
855.926	20625
856.06	20598
856.194	20606
856.327	20785
856.461	20495
856.595	20511
856.729	20663
856.862	20792
856.996	20495
857.13	20693
857.263	20724
857.397	20842
857.53	20598
857.664	20735
857.797	20743
857.931	20579
858.064	20807
858.197	20720
858.331	20632
858.464	20571
858.597	20545
858.731	20617
858.864	20568
858.997	20689
859.13	20712
859.263	20598
859.396	20609
859.529	20659
859.662	20537
859.795	20552
859.928	20708
860.061	20769
860.194	20708
860.327	20724
860.46	20667
860.592	20644
860.725	20868
860.858	20796
860.99	20701
861.123	20629
861.256	20579
861.388	20587
861.521	21302
861.653	20469
861.786	20587
861.918	20530
862.05	20469
862.183	20667
862.315	20575
862.447	20545
862.58	20587
862.712	20374
862.844	20275
862.976	20450
863.108	20514
863.24	20872
863.372	20252
863.504	20427
863.636	20366
863.768	20419
863.9	20259
864.032	20313
864.164	20286
864.296	20332
864.428	20381
864.559	20377
864.691	20457
864.823	20434
864.954	20252
865.086	20469
865.217	20339
865.349	20206
865.48	20286
865.612	20320
865.743	20393
865.875	20320
866.006	20290
866.137	20313
866.269	20343
866.4	20145
866.531	20180
866.662	20115
866.793	20180
866.924	20278
867.055	20115
867.186	20221
867.317	20256
867.448	20172
867.579	20153
867.71	20039
867.841	20221
867.972	20145
868.103	20187
868.233	20206
868.364	20210
868.495	20347
868.625	20446
868.756	20499
868.886	20393
869.017	20374
869.147	20549
869.278	20659
869.408	20484
869.539	20476
869.669	20465
869.799	20522
869.929	20617
870.06	20454
870.19	20667
870.32	20823
870.45	20804
870.58	20902
870.71	21017
870.84	21028
870.97	21009
871.1	20872
871.23	21093
871.36	21077
871.489	20975
871.619	20929
871.749	21066
871.879	21032
872.008	21161
872.138	21085
872.267	21074
872.397	20883
872.526	20948
872.656	20792
872.785	20895
872.915	21055
873.044	21089
873.173	21047
873.303	21108
873.432	21123
873.561	21154
873.69	21051
873.819	21055
873.948	21100
874.077	21028
874.206	21013
874.335	21146
874.464	21180
874.593	21203
874.722	21119
874.851	21336
874.979	21294
875.108	21393
875.237	21241
875.365	21165
875.494	21336
875.623	21378
875.751	21211
875.88	21374
876.008	21447
876.136	21481
876.265	21606
876.393	21778
876.521	21831
876.65	21648
876.778	21686
876.906	21686
877.034	21591
877.162	21629
877.29	21732
877.418	21629
877.546	21583
877.674	21724
877.802	21595
877.93	21660
878.058	21492
878.185	21561
878.313	21637
878.441	21557
878.568	21450
878.696	21568
878.824	21808
878.951	21728
879.079	21831
879.206	22025
879.333	21876
879.461	21656
879.588	21747
879.715	21842
879.842	21854
879.97	21694
880.097	21515
880.224	21367
880.351	21549
880.478	21515
880.605	21405
880.732	21405
880.859	21679
880.986	21439
881.112	21530
881.239	21325
881.366	21214
881.493	21222
881.619	21093
881.746	21184
881.872	21039
881.999	20994
882.125	20941
882.252	20990
882.378	21085
882.505	21211
882.631	21020
882.757	20777
882.883	20796
883.01	20781
883.136	20777
883.262	20716
883.388	20682
883.514	20807
883.64	20876
883.766	20629
883.892	20556
884.018	20632
884.143	20659
884.269	20769
884.395	20571
884.52	20400
884.646	20480
884.772	20389
884.897	20233
885.023	20404
885.148	20492
885.274	20568
885.399	20434
885.524	20469
885.65	20499
885.775	20473
885.9	20339
886.025	20499
886.15	20514
886.275	20454
886.4	20320
886.525	20431
886.65	20362
886.775	20248
886.9	20461
887.025	20655
887.149	20434
887.274	20218
887.399	20229
887.523	20210
887.648	20122
887.773	20126
887.897	20313
888.021	20161
888.146	20180
888.27	20252
888.395	20225
888.519	20248
888.643	20180
888.767	20191
888.891	20058
889.015	20058
889.139	20031
889.263	20062
889.387	20187
889.511	20298
889.635	20153
889.759	19974
889.883	20008
890.006	20043
890.13	20054
890.254	19963
890.377	19936
890.501	19670
890.624	19837
890.748	19799
890.871	19761
890.995	19674
891.118	19445
891.241	19639
891.364	19609
891.488	19681
891.611	19552
891.734	19655
891.857	19662
891.98	19700
892.103	19689
892.226	19472
892.349	19571
892.471	19384
892.594	19548
892.717	19556
892.839	19586
892.962	19556
893.085	19571
893.207	19468
893.33	19301
893.452	19502
893.575	19594
893.697	19358
893.819	19696
893.941	19685
894.064	19635
894.186	19480
894.308	19407
894.43	19616
894.552	19712
894.674	19472
894.796	19438
894.918	19533
895.04	19491
895.161	19605
895.283	19392
895.405	19415
895.526	19510
895.648	19491
895.769	19430
895.891	19571
896.012	19567
896.134	19693
896.255	19514
896.376	19495
896.498	19457
896.619	19563
896.74	19468
896.861	19502
896.982	19887
897.103	20039
897.224	19833
897.345	19795
897.466	19696
897.587	19734
897.708	19788
897.828	19753
897.949	19742
898.07	19449
898.19	19620
898.311	19822
898.431	19575
898.552	19788
898.672	19780
898.792	19841
898.913	19742
899.033	19594
899.153	19537
899.273	19415
899.393	19472
899.513	19586
899.633	19457
899.753	19506
899.873	19480
899.993	19510
900.113	19419
900.232	19518
900.352	19369
900.472	19331
900.591	19156
900.711	19293
900.83	19240
900.95	19388
901.069	19301
901.189	19156
901.308	18981
901.427	18840
901.546	18932
901.665	18837
901.784	18894
901.904	18726
902.023	18620
902.141	18471
902.26	18319
902.379	18433
902.498	18456
902.617	18365
902.735	18391
902.854	18300
902.973	18262
903.091	18026
903.21	18034
903.328	18038
903.446	17950
903.565	17904
903.683	17794
903.801	17840
903.919	17821
904.038	17707
904.156	17703
904.274	17611
904.392	17729
904.51	17539
904.627	17604
904.745	17646
904.863	17661
904.981	17501
905.098	17231
905.216	17402
905.334	17459
905.451	17440
905.569	17189
905.686	17326
905.803	17242
905.921	17045
906.038	17174
906.155	17265
906.272	17041
906.389	17083
906.506	16942
906.623	16896
906.74	16835
906.857	16866
906.974	16889
907.091	16843
907.208	16892
907.324	16915
907.441	16774
907.557	16592
907.674	16508
907.79	16565
907.907	16554
908.023	16546
908.139	16611
908.256	16523
908.372	16443
908.488	16436
908.604	16382
908.72	16238
908.836	16287
908.952	16249
909.068	16382
909.184	16360
909.3	16284
909.415	16249
909.531	16314
909.647	16086
909.762	16067
909.878	16017
909.993	15983
910.108	15994
910.224	15888
910.339	15956
910.454	15789
910.57	15816
910.685	15789
910.8	16048
910.915	16021
911.03	15968
911.145	15766
911.259	15679
911.374	15641
911.489	15492
911.604	15485
911.718	15359
911.833	15359
911.947	15249
912.062	15199
912.176	15386
912.291	15325
912.405	15336
912.519	15561
912.633	15511
912.748	15359
912.862	15321
912.976	15306
913.09	15142
913.204	15081
913.318	15264
913.431	15249
913.545	15249
913.659	15287
913.772	15070
913.886	15047
914	15001
914.113	15108
914.226	15047
914.34	15047
914.453	14967
914.566	15131
914.68	14914
914.793	14765
914.906	14697
915.019	14762
915.132	14689
915.245	14678
915.358	14655
915.47	14564
915.583	14606
915.696	14655
915.809	14815
915.921	14826
916.034	14579
916.146	14571
916.259	14541
916.371	14644
916.483	14590
916.595	14461
916.708	14583
916.82	14526
916.932	14473
917.044	14370
917.156	14431
917.268	14225
917.38	14320
917.491	14240
917.603	14309
917.715	14377
917.826	14324
917.938	14206
918.049	14115
918.161	14199
918.272	14400
918.384	14358
918.495	14244
918.606	14138
918.717	14149
918.828	14073
918.939	14126
919.05	14012
919.161	14134
919.272	13940
919.383	13970
919.494	14176
919.604	14263
919.715	14050
919.826	14005
919.936	13921
920.047	14142
920.157	14088
920.267	14244
920.378	14020
920.488	14031
920.598	14210
920.708	14343
920.818	14290
920.928	14183
921.038	14336
921.148	14240
921.258	14020
921.368	13902
921.477	13765
921.587	13799
921.697	13708
921.806	13795
921.916	13696
922.025	13514
922.134	13377
922.244	13407
922.353	13441
922.462	13460
922.571	13194
922.68	13107
922.789	13065
922.898	13149
923.007	13057
923.116	13110
923.224	13034
923.333	13099
923.442	12932
923.55	12875
923.659	12905
923.767	13095
923.876	12905
923.984	12985
924.092	12760
924.201	12837
924.309	12833
924.417	12829
924.525	12810
924.633	12783
924.741	13712
924.849	12623
924.956	12646
925.064	12574
925.172	12532
925.279	12521
925.387	12509
925.494	12532
925.602	12620
925.709	12582
925.816	12498
925.924	12467
926.031	12585
926.138	12475
926.245	12532
926.352	12464
926.459	12513
926.566	12593
926.673	12410
926.779	12270
926.886	12205
926.993	12133
927.099	12114
927.206	11988
927.312	12095
927.419	12102
927.525	12098
927.631	12140
927.737	11931
927.843	11942
927.95	11809
928.056	11904
928.162	11965
928.267	11973
928.373	12578
928.479	12133
928.585	11798
928.69	11885
928.796	11901
928.901	11840
929.007	11710
929.112	11756
929.218	11638
929.323	11608
929.428	11703
929.533	11737
929.638	11668
929.743	11623
929.848	11668
929.953	11596
930.058	11558
930.163	11341
930.267	11417
930.372	11558
930.477	11364
930.581	11577
930.685	11376
930.79	11322
930.894	11258
930.998	11204
931.103	11364
931.207	11045
931.311	10900
931.415	10896
931.519	10702
931.623	10679
