Data from test_V78500241_553.txt Node
Date: Fri Mar 25 15:13:42 CST 2022
User: usil
Spectrometer: V785-0024
Trigger mode: 0
Integration Time (sec): 4.000000E-1
Scans to average: 1
Nonlinearity correction enabled: false
Boxcar width: 0
Storing dark spectrum: false
XAxis mode: Wavelengths
Number of Pixels in Spectrum: 1024
>>>>>Begin Spectral Data<<<<<
801.071	27161
801.214	27131
801.356	26807
801.499	26804
801.641	26708
801.783	26492
801.926	26659
802.068	26682
802.211	26552
802.353	26484
802.496	26305
802.638	26328
802.78	26271
802.923	26218
803.065	26161
803.208	26195
803.35	26275
803.492	26317
803.635	26381
803.777	26214
803.919	26370
804.061	26769
804.204	26355
804.346	26339
804.488	26324
804.63	26400
804.773	26408
804.915	26400
805.057	26522
805.199	26332
805.341	26556
805.483	26473
805.626	26450
805.768	26381
805.91	26476
806.052	26499
806.194	26469
806.336	26686
806.478	26571
806.62	26408
806.762	26587
806.904	26785
807.046	27020
807.188	26899
807.33	26876
807.472	26940
807.614	26986
807.756	26876
807.898	26762
808.04	26788
808.182	26815
808.324	26887
808.465	26796
808.607	26952
808.749	27116
808.891	27119
809.033	27173
809.174	27325
809.316	27252
809.458	27100
809.6	27127
809.741	27329
809.883	27252
810.025	27340
810.166	27351
810.308	27420
810.45	27332
810.591	27211
810.733	27188
810.875	27070
811.016	26906
811.158	26967
811.299	27116
811.441	27279
811.582	27268
811.724	27043
811.865	27013
812.007	27047
812.148	27176
812.29	27047
812.431	27176
812.573	27447
812.714	27397
812.855	27492
812.997	27728
813.138	27835
813.279	27728
813.421	27808
813.562	27690
813.703	27477
813.845	27321
813.986	27074
814.127	26811
814.268	26845
814.41	26758
814.551	26731
814.692	26944
814.833	26743
814.974	26564
815.115	26872
815.256	26533
815.397	26705
815.539	26613
815.68	26507
815.821	26568
815.962	26518
816.103	26526
816.244	26400
816.385	26332
816.526	26240
816.666	26039
816.807	25879
816.948	26176
817.089	26210
817.23	26092
817.371	26103
817.512	26043
817.653	26088
817.793	26058
817.934	26024
818.075	25909
818.216	25921
818.356	25993
818.497	25864
818.638	25784
818.778	25822
818.919	25753
819.06	25830
819.2	25959
819.341	26100
819.481	25986
819.622	26256
819.762	26301
819.903	26214
820.043	26126
820.184	26290
820.324	26130
820.465	26225
820.605	26065
820.746	26172
820.886	26088
821.026	26187
821.167	26050
821.307	26126
821.447	26164
821.588	25955
821.728	25826
821.868	25571
822.008	25575
822.149	25586
822.289	25426
822.429	25236
822.569	25122
822.709	25076
822.849	24928
822.99	25038
823.13	24996
823.27	24863
823.41	24817
823.55	24677
823.69	24871
823.83	24722
823.97	24688
824.11	24589
824.25	24559
824.389	24635
824.529	24677
824.669	24635
824.809	24730
824.949	24825
825.089	24593
825.228	24684
825.368	24399
825.508	24498
825.648	24437
825.787	24551
825.927	24601
826.067	24528
826.206	24407
826.346	24509
826.485	24486
826.625	24612
826.765	24604
826.904	24467
827.044	24273
827.183	24197
827.323	24201
827.462	24171
827.601	24235
827.741	24243
827.88	24380
828.02	24087
828.159	24144
828.298	24213
828.437	24121
828.577	24064
828.716	24163
828.855	24079
828.994	23908
829.134	23946
829.273	24007
829.412	23927
829.551	23980
829.69	23843
829.829	23885
829.968	23942
830.107	23859
830.246	23859
830.385	23969
830.524	23843
830.663	23714
830.802	23623
830.941	23474
831.08	23417
831.219	23551
831.357	23646
831.496	23676
831.635	23573
831.774	23417
831.913	23311
832.051	23318
832.19	23307
832.329	23379
832.467	23296
832.606	23094
832.744	23197
832.883	23223
833.022	23086
833.16	23178
833.299	23273
833.437	23246
833.576	23242
833.714	23318
833.852	23330
833.991	23326
834.129	23353
834.267	23421
834.406	23406
834.544	23334
834.682	23261
834.821	23250
834.959	23551
835.097	23189
835.235	23322
835.373	23242
835.511	23273
835.65	23044
835.788	23071
835.926	23018
836.064	22984
836.202	23113
836.34	23044
836.478	23231
836.615	23200
836.753	23064
836.891	23246
837.029	23121
837.167	23010
837.305	23086
837.443	22946
837.58	22919
837.718	22995
837.856	23006
837.993	22908
838.131	22976
838.269	22858
838.406	22847
838.544	22759
838.681	22748
838.819	22637
838.956	22504
839.094	22333
839.231	22493
839.369	22660
839.506	22919
839.643	22649
839.781	22474
839.918	22318
840.055	22538
840.193	22360
840.33	22413
840.467	22436
840.604	22329
840.742	22508
840.879	22226
841.016	22280
841.153	22200
841.29	22470
841.427	22398
841.564	22447
841.701	22481
841.838	22379
841.975	22276
842.112	22306
842.249	22097
842.385	22082
842.522	22379
842.659	22124
842.796	22204
842.933	22143
843.069	22051
843.206	21975
843.343	22272
843.479	22139
843.616	22188
843.752	21987
843.889	21968
844.025	22268
844.162	21972
844.298	22013
844.435	21911
844.571	21873
844.708	22040
844.844	21991
844.98	22101
845.117	22116
845.253	21968
845.389	21812
845.525	21827
845.661	21842
845.798	21701
845.934	21637
846.07	21561
846.206	21755
846.342	21728
846.478	21519
846.614	21374
846.75	21317
846.886	21443
847.022	21587
847.158	21492
847.294	21310
847.429	21488
847.565	21458
847.701	21580
847.837	21104
847.972	21009
848.108	21157
848.244	21184
848.379	20982
848.515	21058
848.65	20963
848.786	20948
848.921	20952
849.057	21146
849.192	20998
849.328	21146
849.463	20998
849.598	20921
849.734	20902
849.869	20800
850.004	20781
850.14	20785
850.275	20735
850.41	20613
850.545	20602
850.68	20819
850.815	20689
850.95	20754
851.085	20838
851.22	20792
851.355	20765
851.49	20750
851.625	20807
851.76	20659
851.895	20625
852.03	20705
852.165	20689
852.299	20739
852.434	20872
852.569	20697
852.703	20735
852.838	20899
852.973	20895
853.107	20838
853.242	20549
853.376	20522
853.511	20351
853.645	20583
853.78	20781
853.914	20594
854.048	20518
854.183	20606
854.317	20488
854.451	20746
854.585	20587
854.72	20507
854.854	20655
854.988	20488
855.122	20568
855.256	20514
855.39	20556
855.524	20682
855.658	20667
855.792	20549
855.926	20568
856.06	20594
856.194	20606
856.327	20575
856.461	20469
856.595	20560
856.729	20533
856.862	20697
856.996	20617
857.13	20705
857.263	20689
857.397	20849
857.53	20640
857.664	20522
857.797	20686
857.931	20575
858.064	20636
858.197	20625
858.331	20640
858.464	20579
858.597	20461
858.731	20556
858.864	20575
858.997	20583
859.13	20530
859.263	20541
859.396	20609
859.529	20533
859.662	20404
859.795	20484
859.928	20609
860.061	20640
860.194	20727
860.327	20549
860.46	20568
860.592	20609
860.725	20640
860.858	20701
860.99	20537
861.123	20381
861.256	20552
861.388	20636
861.521	21340
861.653	20549
861.786	20415
861.918	20301
862.05	20438
862.183	20533
862.315	20419
862.447	20541
862.58	20499
862.712	20218
862.844	20290
862.976	20237
863.108	20263
863.24	20648
863.372	20210
863.504	20172
863.636	20305
863.768	20415
863.9	20347
864.032	20195
864.164	20225
864.296	20320
864.428	20393
864.559	20358
864.691	20275
864.823	20305
864.954	20332
865.086	20263
865.217	20214
865.349	20119
865.48	20187
865.612	20233
865.743	20347
865.875	20248
866.006	20153
866.137	20176
866.269	20016
866.4	20138
866.531	20180
866.662	20145
866.793	20221
866.924	20157
867.055	20103
867.186	20172
867.317	20043
867.448	20050
867.579	20050
867.71	20012
867.841	20039
867.972	20149
868.103	20119
868.233	20039
868.364	20149
868.495	20267
868.625	20317
868.756	20465
868.886	20309
869.017	20438
869.147	20511
869.278	20438
869.408	20415
869.539	20328
869.669	20393
869.799	20412
869.929	20537
870.06	20552
870.19	20648
870.32	20625
870.45	20712
870.58	20727
870.71	20906
870.84	20845
870.97	20731
871.1	20826
871.23	21047
871.36	21036
871.489	20880
871.619	20998
871.749	20986
871.879	20944
872.008	21127
872.138	20883
872.267	20880
872.397	20902
872.526	20781
872.656	20838
872.785	20754
872.915	21058
873.044	21070
873.173	21108
873.303	21005
873.432	21074
873.561	21100
873.69	20998
873.819	21104
873.948	21047
874.077	20971
874.206	20826
874.335	20887
874.464	21131
874.593	21199
874.722	21184
874.851	21340
874.979	21230
875.108	21176
875.237	21051
875.365	21138
875.494	21165
875.623	21207
875.751	21138
875.88	21226
876.008	21374
876.136	21321
876.265	21705
876.393	21663
876.521	21766
876.65	21675
876.778	21606
876.906	21450
877.034	21618
877.162	21561
877.29	21500
877.418	21572
877.546	21504
877.674	21591
877.802	21629
877.93	21519
878.058	21397
878.185	21545
878.313	21618
878.441	21549
878.568	21351
878.696	21507
878.824	21549
878.951	21576
879.079	21747
879.206	21846
879.333	21663
879.461	21671
879.588	21709
879.715	21728
879.842	21895
879.97	21701
880.097	21382
880.224	21313
880.351	21405
880.478	21431
880.605	21382
880.732	21428
880.859	21679
880.986	21336
881.112	21458
881.239	21260
881.366	21066
881.493	21062
881.619	20864
881.746	21039
881.872	21020
881.999	21055
882.125	20944
882.252	21001
882.378	21093
882.505	21176
882.631	20967
882.757	20769
882.883	20746
883.01	20663
883.136	20777
883.262	20480
883.388	20545
883.514	20750
883.64	20693
883.766	20617
883.892	20457
884.018	20495
884.143	20613
884.269	20762
884.395	20385
884.52	20370
884.646	20309
884.772	20400
884.897	20313
885.023	20339
885.148	20473
885.274	20473
885.399	20377
885.524	20305
885.65	20332
885.775	20442
885.9	20290
886.025	20533
886.15	20362
886.275	20248
886.4	20199
886.525	20313
886.65	20267
886.775	20294
886.9	20507
887.025	20530
887.149	20332
887.274	20191
887.399	20050
887.523	20153
887.648	20065
887.773	20134
887.897	20229
888.021	20225
888.146	19974
888.27	20218
888.395	20115
888.519	20180
888.643	20142
888.767	20218
888.891	20005
889.015	19970
889.139	20073
889.263	19947
889.387	20016
889.511	20119
889.635	20046
889.759	19944
889.883	19944
890.006	19845
890.13	19993
890.254	19689
890.377	19989
890.501	19685
890.624	19609
890.748	19670
890.871	19518
890.995	19578
891.118	19453
891.241	19540
891.364	19491
891.488	19556
891.611	19567
891.734	19605
891.857	19521
891.98	19613
892.103	19597
892.226	19533
892.349	19472
892.471	19339
892.594	19400
892.717	19548
892.839	19426
892.962	19499
893.085	19460
893.207	19434
893.33	19202
893.452	19377
893.575	19480
893.697	19377
893.819	19681
893.941	19533
894.064	19609
894.186	19491
894.308	19400
894.43	19411
894.552	19521
894.674	19483
894.796	19358
894.918	19365
895.04	19297
895.161	19548
895.283	19464
895.405	19529
895.526	19441
895.648	19441
895.769	19499
895.891	19422
896.012	19381
896.134	19445
896.255	19537
896.376	19460
896.498	19453
896.619	19521
896.74	19350
896.861	19483
896.982	19639
897.103	19860
897.224	19662
897.345	19632
897.466	19643
897.587	19696
897.708	19818
897.828	19685
897.949	19460
898.07	19499
898.19	19540
898.311	19643
898.431	19662
898.552	19571
898.672	19708
898.792	19738
898.913	19635
899.033	19655
899.153	19460
899.273	19438
899.393	19559
899.513	19407
899.633	19495
899.753	19400
899.873	19373
899.993	19415
900.113	19396
900.232	19365
900.352	19304
900.472	19289
900.591	19198
900.711	19187
900.83	19255
900.95	19232
901.069	19228
901.189	19091
901.308	18939
901.427	18738
901.546	18962
901.665	18856
901.784	18795
901.904	18692
902.023	18597
902.141	18441
902.26	18323
902.379	18372
902.498	18330
902.617	18319
902.735	18243
902.854	18334
902.973	18270
903.091	18064
903.21	18053
903.328	17954
903.446	17916
903.565	17802
903.683	17882
903.801	17779
903.919	17832
904.038	17722
904.156	17630
904.274	17741
904.392	17600
904.51	17459
904.627	17490
904.745	17543
904.863	17649
904.981	17398
905.098	17220
905.216	17197
905.334	17360
905.451	17345
905.569	17254
905.686	17406
905.803	17231
905.921	17117
906.038	17174
906.155	17083
906.272	17014
906.389	16953
906.506	16869
906.623	16866
906.74	16862
906.857	16710
906.974	16786
907.091	16877
907.208	16987
907.324	16805
907.441	16713
907.557	16611
907.674	16622
907.79	16596
907.907	16417
908.023	16580
908.139	16493
908.256	16478
908.372	16508
908.488	16333
908.604	16390
908.72	16265
908.836	16284
908.952	16284
909.068	16215
909.184	16367
909.3	16295
909.415	16299
909.531	16234
909.647	16013
909.762	15991
909.878	16086
909.993	15998
910.108	15880
910.224	15915
910.339	16078
910.454	15682
910.57	15884
910.685	15705
910.8	15991
910.915	16006
911.03	15781
911.145	15705
911.259	15610
911.374	15481
911.489	15504
911.604	15443
911.718	15355
911.833	15408
911.947	15146
912.062	15154
912.176	15317
912.291	15321
912.405	15294
912.519	15458
912.633	15584
912.748	15382
912.862	15321
912.976	15180
913.09	15119
913.204	15028
913.318	15127
913.431	15370
913.545	15123
913.659	15237
913.772	15081
913.886	15017
914	14887
914.113	15036
914.226	15055
914.34	15062
914.453	14830
914.566	14990
914.68	14910
914.793	14762
914.906	14663
915.019	14625
915.132	14560
915.245	14552
915.358	14648
915.47	14518
915.583	14545
915.696	14579
915.809	14613
915.921	14708
916.034	14629
916.146	14465
916.259	14530
916.371	14602
916.483	14522
916.595	14442
916.708	14381
916.82	14377
916.932	14358
917.044	14355
917.156	14400
917.268	14317
917.38	14267
917.491	14195
917.603	14237
917.715	14393
917.826	14290
917.938	14187
918.049	14126
918.161	14199
918.272	14362
918.384	14328
918.495	14161
918.606	14058
918.717	14077
918.828	14096
918.939	14039
919.05	13974
919.161	14024
919.272	13753
919.383	13928
919.494	14027
919.604	14263
919.715	13989
919.826	13890
919.936	14031
920.047	14096
920.157	13989
920.267	14138
920.378	14031
920.488	14016
920.598	14115
920.708	14355
920.818	14123
920.928	14138
921.038	14294
921.148	14355
921.258	13936
921.368	13898
921.477	13734
921.587	13727
921.697	13613
921.806	13708
921.916	13632
922.025	13438
922.134	13396
922.244	13320
922.353	13502
922.462	13396
922.571	13247
922.68	13038
922.789	12966
922.898	13027
923.007	12962
923.116	13015
923.224	13004
923.333	12989
923.442	12863
923.55	12772
923.659	12852
923.767	13008
923.876	12856
923.984	12886
924.092	12692
924.201	12840
924.309	12726
924.417	12760
924.525	12692
924.633	12764
924.741	13537
924.849	12559
924.956	12635
925.064	12471
925.172	12391
925.279	12445
925.387	12456
925.494	12483
925.602	12707
925.709	12547
925.816	12334
925.924	12437
926.031	12540
926.138	12464
926.245	12517
926.352	12380
926.459	12494
926.566	12589
926.673	12369
926.779	12205
926.886	12213
926.993	12060
927.099	12011
927.206	12064
927.312	12083
927.419	12133
927.525	12091
927.631	12136
927.737	11942
927.843	11927
927.95	11870
928.056	11786
928.162	11863
928.267	12030
928.373	12486
928.479	12049
928.585	11703
928.69	11935
928.796	11954
928.901	11767
929.007	11714
929.112	11866
929.218	11657
929.323	11718
929.428	11608
929.533	11794
929.638	11551
929.743	11600
929.848	11665
929.953	11623
930.058	11474
930.163	11334
930.267	11349
930.372	11425
930.477	11288
930.581	11524
930.685	11395
930.79	11269
930.894	11242
930.998	11197
931.103	11349
931.207	11056
931.311	10908
931.415	10869
931.519	10672
931.623	10675
