Data from test_V78500241_3036.txt Node
Date: Fri Mar 25 15:31:00 CST 2022
User: usil
Spectrometer: V785-0024
Trigger mode: 0
Integration Time (sec): 4.000000E-1
Scans to average: 1
Nonlinearity correction enabled: false
Boxcar width: 0
Storing dark spectrum: false
XAxis mode: Wavelengths
Number of Pixels in Spectrum: 1024
>>>>>Begin Spectral Data<<<<<
801.071	27226
801.214	27039
801.356	26952
801.499	26849
801.641	26762
801.783	26731
801.926	26880
802.068	26815
802.211	26811
802.353	26705
802.496	26484
802.638	26484
802.78	26343
802.923	26282
803.065	26214
803.208	26206
803.35	26282
803.492	26423
803.635	26450
803.777	26461
803.919	26453
804.061	26986
804.204	26568
804.346	26575
804.488	26381
804.63	26514
804.773	26400
804.915	26499
805.057	26568
805.199	26587
805.341	26659
805.483	26739
805.626	26549
805.768	26571
805.91	26720
806.052	26625
806.194	26473
806.336	26705
806.478	26644
806.62	26606
806.762	26750
806.904	26807
807.046	27188
807.188	27001
807.33	27165
807.472	27070
807.614	26906
807.756	26971
807.898	26686
808.04	26876
808.182	26754
808.324	26910
808.465	26929
808.607	27066
808.749	27070
808.891	27363
809.033	27351
809.174	27291
809.316	27165
809.458	27275
809.6	27211
809.741	27188
809.883	27325
810.025	27374
810.166	27564
810.308	27595
810.45	27405
810.591	27492
810.733	27351
810.875	27237
811.016	27081
811.158	27039
811.299	27317
811.441	27378
811.582	27359
811.724	27370
811.865	27184
812.007	27192
812.148	27302
812.29	27157
812.431	27389
812.573	27367
812.714	27618
812.855	27671
812.997	27751
813.138	27941
813.279	27812
813.421	27675
813.562	27675
813.703	27545
813.845	27321
813.986	27146
814.127	26994
814.268	26975
814.41	26967
814.551	26667
814.692	26982
814.833	26876
814.974	26967
815.115	26758
815.256	26689
815.397	26750
815.539	26735
815.68	26659
815.821	26556
815.962	26644
816.103	26590
816.244	26431
816.385	26488
816.526	26465
816.666	26221
816.807	26168
816.948	26202
817.089	26221
817.23	26221
817.371	26199
817.512	26126
817.653	25986
817.793	26043
817.934	26096
818.075	26043
818.216	26084
818.356	26103
818.497	25970
818.638	25837
818.778	25875
818.919	25750
819.06	25940
819.2	25932
819.341	26142
819.481	26008
819.622	26400
819.762	26362
819.903	26461
820.043	26282
820.184	26126
820.324	26252
820.465	26305
820.605	26278
820.746	26267
820.886	26031
821.026	26142
821.167	26176
821.307	26214
821.447	26012
821.588	25951
821.728	25852
821.868	25833
822.008	25639
822.149	25540
822.289	25460
822.429	25327
822.569	25377
822.709	25259
822.849	25080
822.99	25110
823.13	25129
823.27	25061
823.41	24966
823.55	24791
823.69	24817
823.83	24825
823.97	24863
824.11	24612
824.25	24654
824.389	24604
824.529	24787
824.669	24677
824.809	24745
824.949	24757
825.089	24707
825.228	24738
825.368	24544
825.508	24532
825.648	24509
825.787	24620
825.927	24604
826.067	24563
826.206	24509
826.346	24703
826.485	24525
826.625	24555
826.765	24730
826.904	24661
827.044	24441
827.183	24323
827.323	24209
827.462	24350
827.601	24338
827.741	24209
827.88	24285
828.02	24095
828.159	24243
828.298	24311
828.437	24289
828.577	24216
828.716	24277
828.855	24091
828.994	24102
829.134	24098
829.273	24091
829.412	23984
829.551	24007
829.69	23946
829.829	23942
829.968	24022
830.107	24049
830.246	24045
830.385	23870
830.524	23798
830.663	23733
830.802	23691
830.941	23493
831.08	23566
831.219	23680
831.357	23722
831.496	23760
831.635	23516
831.774	23543
831.913	23395
832.051	23402
832.19	23436
832.329	23330
832.467	23197
832.606	23235
832.744	23261
832.883	23292
833.022	23250
833.16	23166
833.299	23220
833.437	23341
833.576	23364
833.714	23349
833.852	23387
833.991	23307
834.129	23562
834.267	23307
834.406	23379
834.544	23497
834.682	23239
834.821	23440
834.959	23414
835.097	23296
835.235	23349
835.373	23254
835.511	23402
835.65	23174
835.788	23216
835.926	22984
836.064	22908
836.202	22930
836.34	23216
836.478	23204
836.615	23071
836.753	23185
836.891	23197
837.029	23299
837.167	23159
837.305	23041
837.443	22900
837.58	22953
837.718	23060
837.856	23041
837.993	22957
838.131	22911
838.269	22771
838.406	22892
838.544	22881
838.681	22698
838.819	22596
838.956	22538
839.094	22413
839.231	22557
839.369	22580
839.506	22854
839.643	22691
839.781	22462
839.918	22428
840.055	22428
840.193	22367
840.33	22459
840.467	22367
840.604	22504
840.742	22645
840.879	22367
841.016	22413
841.153	22310
841.29	22360
841.427	22398
841.564	22379
841.701	22443
841.838	22242
841.975	22417
842.112	22417
842.249	22295
842.385	22196
842.522	22500
842.659	22303
842.796	22181
842.933	22082
843.069	22067
843.206	22147
843.343	22120
843.479	22181
843.616	22090
843.752	22048
843.889	21865
844.025	22059
844.162	21903
844.298	21937
844.435	21949
844.571	21918
844.708	22063
844.844	22128
844.98	21991
845.117	22074
845.253	21880
845.389	21846
845.525	21823
845.661	21816
845.798	21599
845.934	21637
846.07	21542
846.206	21766
846.342	21755
846.478	21644
846.614	21549
846.75	21363
846.886	21488
847.022	21511
847.158	21450
847.294	21496
847.429	21458
847.565	21435
847.701	21641
847.837	21104
847.972	21089
848.108	21272
848.244	21306
848.379	21207
848.515	20990
848.65	21036
848.786	20933
848.921	21157
849.057	21112
849.192	20967
849.328	21127
849.463	20971
849.598	20937
849.734	20941
849.869	20838
850.004	20796
850.14	20853
850.275	20731
850.41	20678
850.545	20807
850.68	20712
850.815	20830
850.95	20804
851.085	20929
851.22	20796
851.355	20792
851.49	20716
851.625	20693
851.76	20758
851.895	20686
852.03	20640
852.165	20849
852.299	20781
852.434	20902
852.569	20678
852.703	20746
852.838	20830
852.973	20880
853.107	20830
853.242	20750
853.376	20693
853.511	20434
853.645	20594
853.78	20724
853.914	20640
854.048	20670
854.183	20552
854.317	20670
854.451	20804
854.585	20701
854.72	20632
854.854	20731
854.988	20518
855.122	20541
855.256	20492
855.39	20530
855.524	20590
855.658	20659
855.792	20602
855.926	20644
856.06	20697
856.194	20743
856.327	20503
856.461	20507
856.595	20530
856.729	20606
856.862	20678
856.996	20670
857.13	20727
857.263	20629
857.397	20693
857.53	20552
857.664	20697
857.797	20769
857.931	20686
858.064	20644
858.197	20674
858.331	20636
858.464	20621
858.597	20583
858.731	20530
858.864	20678
858.997	20625
859.13	20606
859.263	20560
859.396	20693
859.529	20590
859.662	20541
859.795	20560
859.928	20648
860.061	20682
860.194	20845
860.327	20651
860.46	20568
860.592	20663
860.725	20701
860.858	20746
860.99	20663
861.123	20412
861.256	20454
861.388	20568
861.521	21192
861.653	20351
861.786	20366
861.918	20332
862.05	20400
862.183	20499
862.315	20522
862.447	20556
862.58	20450
862.712	20332
862.844	20328
862.976	20389
863.108	20332
863.24	20830
863.372	20290
863.504	20355
863.636	20442
863.768	20259
863.9	20317
864.032	20286
864.164	20298
864.296	20358
864.428	20469
864.559	20355
864.691	20415
864.823	20412
864.954	20271
865.086	20263
865.217	20221
865.349	20103
865.48	20233
865.612	20298
865.743	20355
865.875	20301
866.006	20142
866.137	20233
866.269	20221
866.4	20214
866.531	20294
866.662	20180
866.793	20183
866.924	20103
867.055	20142
867.186	20199
867.317	20142
867.448	20043
867.579	20092
867.71	20145
867.841	20035
867.972	20206
868.103	20187
868.233	20183
868.364	20157
868.495	20199
868.625	20507
868.756	20427
868.886	20381
869.017	20415
869.147	20514
869.278	20522
869.408	20461
869.539	20473
869.669	20423
869.799	20423
869.929	20533
870.06	20484
870.19	20735
870.32	20640
870.45	20724
870.58	20727
870.71	20830
870.84	20853
870.97	20785
871.1	20842
871.23	20944
871.36	20876
871.489	20994
871.619	21024
871.749	20952
871.879	21058
872.008	21127
872.138	21028
872.267	20906
872.397	20891
872.526	20876
872.656	20788
872.785	21024
872.915	21005
873.044	21062
873.173	20994
873.303	21119
873.432	21108
873.561	21081
873.69	21028
873.819	21154
873.948	21131
874.077	20982
874.206	21005
874.335	21058
874.464	21077
874.593	21245
874.722	21287
874.851	21370
874.979	21370
875.108	21321
875.237	21279
875.365	21188
875.494	21283
875.623	21359
875.751	21165
875.88	21302
876.008	21340
876.136	21496
876.265	21713
876.393	21899
876.521	21823
876.65	21785
876.778	21564
876.906	21637
877.034	21549
877.162	21538
877.29	21485
877.418	21705
877.546	21580
877.674	21644
877.802	21774
877.93	21606
878.058	21504
878.185	21477
878.313	21568
878.441	21523
878.568	21557
878.696	21591
878.824	21526
878.951	21675
879.079	21835
879.206	21922
879.333	21873
879.461	21698
879.588	21850
879.715	21766
879.842	21850
879.97	21732
880.097	21386
880.224	21477
880.351	21507
880.478	21538
880.605	21298
880.732	21412
880.859	21808
880.986	21401
881.112	21397
881.239	21351
881.366	21173
881.493	21058
881.619	21032
881.746	21123
881.872	21039
881.999	20952
882.125	20944
882.252	21108
882.378	20842
882.505	21108
882.631	20830
882.757	20834
882.883	20807
883.01	20667
883.136	20712
883.262	20587
883.388	20708
883.514	20613
883.64	20853
883.766	20716
883.892	20503
884.018	20621
884.143	20663
884.269	20731
884.395	20552
884.52	20256
884.646	20473
884.772	20320
884.897	20332
885.023	20465
885.148	20381
885.274	20442
885.399	20461
885.524	20408
885.65	20393
885.775	20518
885.9	20309
886.025	20461
886.15	20503
886.275	20263
886.4	20309
886.525	20404
886.65	20290
886.775	20317
886.9	20423
887.025	20454
887.149	20339
887.274	20282
887.399	20164
887.523	20206
887.648	20111
887.773	20054
887.897	20199
888.021	20259
888.146	20145
888.27	20240
888.395	20218
888.519	20195
888.643	20252
888.767	20252
888.891	20119
889.015	20024
889.139	20008
889.263	20069
889.387	20149
889.511	20122
889.635	20111
889.759	20054
889.883	20054
890.006	20001
890.13	20077
890.254	19883
890.377	20016
890.501	19807
890.624	19704
890.748	19890
890.871	19769
890.995	19544
891.118	19597
891.241	19540
891.364	19639
891.488	19712
891.611	19639
891.734	19537
891.857	19658
891.98	19643
892.103	19594
892.226	19582
892.349	19476
892.471	19362
892.594	19563
892.717	19495
892.839	19468
892.962	19411
893.085	19567
893.207	19525
893.33	19369
893.452	19400
893.575	19548
893.697	19529
893.819	19620
893.941	19712
894.064	19674
894.186	19377
894.308	19335
894.43	19510
894.552	19731
894.674	19510
894.796	19483
894.918	19464
895.04	19491
895.161	19567
895.283	19666
895.405	19430
895.526	19575
895.648	19472
895.769	19556
895.891	19567
896.012	19605
896.134	19567
896.255	19575
896.376	19624
896.498	19556
896.619	19544
896.74	19563
896.861	19575
896.982	19928
897.103	19947
897.224	19727
897.345	19685
897.466	19635
897.587	19734
897.708	19883
897.828	19723
897.949	19700
898.07	19575
898.19	19613
898.311	19765
898.431	19647
898.552	19772
898.672	19856
898.792	19887
898.913	19723
899.033	19628
899.153	19586
899.273	19514
899.393	19502
899.513	19571
899.633	19605
899.753	19521
899.873	19540
899.993	19468
900.113	19400
900.232	19510
900.352	19434
900.472	19346
900.591	19232
900.711	19259
900.83	19297
900.95	19445
901.069	19400
901.189	19247
901.308	18954
901.427	18802
901.546	18905
901.665	18970
901.784	18905
901.904	18795
902.023	18722
902.141	18452
902.26	18422
902.379	18544
902.498	18380
902.617	18224
902.735	18452
902.854	18460
902.973	18414
903.091	18209
903.21	18079
903.328	18072
903.446	17984
903.565	17832
903.683	17859
903.801	17760
903.919	18022
904.038	17874
904.156	17767
904.274	17813
904.392	17634
904.51	17634
904.627	17596
904.745	17570
904.863	17630
904.981	17520
905.098	17292
905.216	17254
905.334	17414
905.451	17311
905.569	17296
905.686	17307
905.803	17284
905.921	17159
906.038	17307
906.155	17067
906.272	16995
906.389	16965
906.506	16869
906.623	16778
906.74	16820
906.857	16801
906.974	16717
907.091	16885
907.208	17033
907.324	16889
907.441	16691
907.557	16649
907.674	16531
907.79	16497
907.907	16493
908.023	16603
908.139	16561
908.256	16516
908.372	16485
908.488	16405
908.604	16329
908.72	16344
908.836	16367
908.952	16344
909.068	16344
909.184	16409
909.3	16226
909.415	16443
909.531	16379
909.647	16147
909.762	15998
909.878	15880
909.993	15960
910.108	16013
910.224	15987
910.339	15960
910.454	15869
910.57	15816
910.685	15739
910.8	16029
910.915	15922
911.03	15812
911.145	15622
911.259	15606
911.374	15648
911.489	15568
911.604	15450
911.718	15340
911.833	15431
911.947	15466
912.062	15370
912.176	15439
912.291	15454
912.405	15408
912.519	15713
912.633	15576
912.748	15420
912.862	15363
912.976	15302
913.09	15089
913.204	15135
913.318	15161
913.431	15325
913.545	15397
913.659	15332
913.772	15211
913.886	15150
914	14952
914.113	15131
914.226	15097
914.34	15093
914.453	14880
914.566	15055
914.68	14891
914.793	14864
914.906	14693
915.019	14788
915.132	14575
915.245	14640
915.358	14594
915.47	14545
915.583	14659
915.696	14705
915.809	14701
915.921	14746
916.034	14632
916.146	14526
916.259	14484
916.371	14545
916.483	14533
916.595	14461
916.708	14404
916.82	14511
916.932	14431
917.044	14465
917.156	14343
917.268	14305
917.38	14298
917.491	14347
917.603	14263
917.715	14400
917.826	14324
917.938	14176
918.049	14103
918.161	14290
918.272	14385
918.384	14317
918.495	14240
918.606	14195
918.717	14073
918.828	14062
918.939	14103
919.05	13997
919.161	14081
919.272	13902
919.383	13925
919.494	14065
919.604	14294
919.715	14008
919.826	13940
919.936	14035
920.047	14195
920.157	13967
920.267	14210
920.378	14073
920.488	13993
920.598	14183
920.708	14370
920.818	14233
920.928	14229
921.038	14366
921.148	14332
921.258	13978
921.368	13845
921.477	13887
921.587	13849
921.697	13734
921.806	13830
921.916	13662
922.025	13480
922.134	13426
922.244	13365
922.353	13483
922.462	13400
922.571	13247
922.68	13088
922.789	13118
922.898	13095
923.007	13038
923.116	13099
923.224	12985
923.333	13061
923.442	12924
923.55	12837
923.659	12966
923.767	12924
923.876	12852
923.984	12989
924.092	12844
924.201	12859
924.309	12840
924.417	12772
924.525	12856
924.633	12722
924.741	13639
924.849	12654
924.956	12692
925.064	12601
925.172	12452
925.279	12509
925.387	12654
925.494	12513
925.602	12741
925.709	12582
925.816	12483
925.924	12445
926.031	12563
926.138	12433
926.245	12570
926.352	12357
926.459	12536
926.566	12471
926.673	12532
926.779	12239
926.886	12311
926.993	12140
927.099	12163
927.206	12079
927.312	11950
927.419	12095
927.525	12106
927.631	12152
927.737	12022
927.843	12045
927.95	11870
928.056	11980
928.162	11958
928.267	11950
928.373	12650
928.479	11969
928.585	11863
928.69	11901
928.796	11942
928.901	11798
929.007	11657
929.112	11901
929.218	11802
929.323	11771
929.428	11691
929.533	11798
929.638	11684
929.743	11657
929.848	11722
929.953	11615
930.058	11592
930.163	11383
930.267	11463
930.372	11509
930.477	11334
930.581	11520
930.685	11436
930.79	11220
930.894	11303
930.998	11265
931.103	11368
931.207	11094
931.311	10957
931.415	10930
931.519	10649
931.623	10683
