Data from test_V78500241_670.txt Node
Date: Fri Mar 25 15:14:31 CST 2022
User: usil
Spectrometer: V785-0024
Trigger mode: 0
Integration Time (sec): 4.000000E-1
Scans to average: 1
Nonlinearity correction enabled: false
Boxcar width: 0
Storing dark spectrum: false
XAxis mode: Wavelengths
Number of Pixels in Spectrum: 1024
>>>>>Begin Spectral Data<<<<<
801.071	27884
801.214	27846
801.356	27755
801.499	27545
801.641	27534
801.783	27447
801.926	27686
802.068	27412
802.211	27405
802.353	27279
802.496	27142
802.638	27184
802.78	27233
802.923	27142
803.065	27169
803.208	27119
803.35	27188
803.492	27340
803.635	27359
803.777	27344
803.919	27302
804.061	27701
804.204	27473
804.346	27302
804.488	27294
804.63	27393
804.773	27298
804.915	27344
805.057	27485
805.199	27344
805.341	27412
805.483	27481
805.626	27515
805.768	27393
805.91	27408
806.052	27462
806.194	27355
806.336	27679
806.478	27606
806.62	27473
806.762	27743
806.904	27774
807.046	28017
807.188	27998
807.33	27857
807.472	27903
807.614	27823
807.756	27930
807.898	27576
808.04	27717
808.182	27751
808.324	27785
808.465	27861
808.607	27903
808.749	28242
808.891	28055
809.033	28314
809.174	28246
809.316	28177
809.458	28226
809.6	28177
809.741	28181
809.883	28284
810.025	28481
810.166	28478
810.308	28428
810.45	28379
810.591	28474
810.733	28287
810.875	28074
811.016	28036
811.158	28173
811.299	28234
811.441	28211
811.582	28356
811.724	28242
811.865	28074
812.007	28105
812.148	28185
812.29	28226
812.431	28322
812.573	28519
812.714	28649
812.855	28771
812.997	28820
813.138	28919
813.279	28877
813.421	28710
813.562	28679
813.703	28485
813.845	28306
813.986	28196
814.127	27926
814.268	27892
814.41	27846
814.551	27884
814.692	27949
814.833	27690
814.974	27968
815.115	27914
815.256	27808
815.397	27675
815.539	27713
815.68	27743
815.821	27553
815.962	27667
816.103	27587
816.244	27644
816.385	27507
816.526	27458
816.666	27252
816.807	27188
816.948	27214
817.089	27317
817.23	27466
817.371	27325
817.512	27135
817.653	27142
817.793	27119
817.934	27252
818.075	27211
818.216	27135
818.356	27112
818.497	27077
818.638	26899
818.778	26815
818.919	26925
819.06	27055
819.2	27055
819.341	27127
819.481	27199
819.622	27287
819.762	27515
819.903	27313
820.043	27363
820.184	27408
820.324	27374
820.465	27355
820.605	27260
820.746	27214
820.886	27108
821.026	27256
821.167	27123
821.307	27298
821.447	27123
821.588	27123
821.728	26902
821.868	26819
822.008	26617
822.149	26632
822.289	26552
822.429	26332
822.569	26313
822.709	26309
822.849	26100
822.99	26081
823.13	26077
823.27	26084
823.41	25936
823.55	25841
823.69	25932
823.83	26069
823.97	25849
824.11	25765
824.25	25746
824.389	25833
824.529	25898
824.669	25803
824.809	25852
824.949	25845
825.089	26031
825.228	25917
825.368	25746
825.508	25639
825.648	25658
825.787	25776
825.927	25655
826.067	25723
826.206	25563
826.346	25635
826.485	25746
826.625	25689
826.765	25833
826.904	25708
827.044	25552
827.183	25518
827.323	25430
827.462	25350
827.601	25365
827.741	25468
827.88	25221
828.02	25312
828.159	25350
828.298	25346
828.437	25350
828.577	25270
828.716	25510
828.855	25304
828.994	25232
829.134	25027
829.273	25213
829.412	25000
829.551	25023
829.69	25061
829.829	25091
829.968	25126
830.107	25042
830.246	25050
830.385	25095
830.524	24909
830.663	24844
830.802	24711
830.941	24753
831.08	24620
831.219	24802
831.357	24665
831.496	24947
831.635	24768
831.774	24540
831.913	24623
832.051	24464
832.19	24441
832.329	24620
832.467	24388
832.606	24308
832.744	24315
832.883	24395
833.022	24247
833.16	24384
833.299	24437
833.437	24388
833.576	24505
833.714	24342
833.852	24441
833.991	24407
834.129	24475
834.267	24403
834.406	24456
834.544	24498
834.682	24388
834.821	24456
834.959	24593
835.097	24323
835.235	24456
835.373	24528
835.511	24391
835.65	24186
835.788	24247
835.926	24106
836.064	24098
836.202	24174
836.34	24251
836.478	24342
836.615	24369
836.753	24251
836.891	24319
837.029	24201
837.167	24178
837.305	24197
837.443	24083
837.58	24110
837.718	24038
837.856	24091
837.993	23996
838.131	24076
838.269	23931
838.406	24007
838.544	23805
838.681	23718
838.819	23676
838.956	23554
839.094	23539
839.231	23668
839.369	23939
839.506	23950
839.643	23748
839.781	23581
839.918	23615
840.055	23577
840.193	23459
840.33	23452
840.467	23421
840.604	23425
840.742	23764
840.879	23170
841.016	23417
841.153	23474
841.29	23596
841.427	23520
841.564	23471
841.701	23490
841.838	23395
841.975	23356
842.112	23455
842.249	23307
842.385	23113
842.522	23337
842.659	23235
842.796	23170
842.933	23166
843.069	23098
843.206	23155
843.343	23242
843.479	23166
843.616	23307
843.752	23044
843.889	23071
844.025	23025
844.162	22946
844.298	22991
844.435	22976
844.571	22953
844.708	23174
844.844	23212
844.98	23117
845.117	23113
845.253	22953
845.389	22850
845.525	22919
845.661	22831
845.798	22793
845.934	22771
846.07	22752
846.206	22816
846.342	22847
846.478	22736
846.614	22542
846.75	22413
846.886	22447
847.022	22489
847.158	22535
847.294	22508
847.429	22649
847.565	22546
847.701	22531
847.837	22242
847.972	22223
848.108	22341
848.244	22188
848.379	22021
848.515	22010
848.65	21949
848.786	21983
848.921	22086
849.057	22192
849.192	22188
849.328	22097
849.463	22154
849.598	21972
849.734	21934
849.869	21854
850.004	21789
850.14	21907
850.275	21838
850.41	21709
850.545	21755
850.68	21793
850.815	21930
850.95	21899
851.085	21983
851.22	22017
851.355	21823
851.49	21960
851.625	21705
851.76	21698
851.895	21827
852.03	21709
852.165	21797
852.299	21838
852.434	21892
852.569	21747
852.703	21793
852.838	21842
852.973	21953
853.107	21903
853.242	21816
853.376	21701
853.511	21534
853.645	21614
853.78	21701
853.914	21709
854.048	21568
854.183	21603
854.317	21591
854.451	21857
854.585	21732
854.72	21633
854.854	21698
854.988	21576
855.122	21511
855.256	21477
855.39	21686
855.524	21785
855.658	21618
855.792	21641
855.926	21660
856.06	21698
856.194	21732
856.327	21614
856.461	21450
856.595	21538
856.729	21530
856.862	21603
856.996	21743
857.13	21667
857.263	21854
857.397	21705
857.53	21599
857.664	21679
857.797	21774
857.931	21778
858.064	21736
858.197	21838
858.331	21500
858.464	21545
858.597	21515
858.731	21610
858.864	21686
858.997	21526
859.13	21587
859.263	21606
859.396	21580
859.529	21591
859.662	21663
859.795	21671
859.928	21637
860.061	21861
860.194	21873
860.327	21717
860.46	21675
860.592	21682
860.725	21903
860.858	21747
860.99	21675
861.123	21507
861.256	21637
861.388	21637
861.521	22451
861.653	21466
861.786	21348
861.918	21557
862.05	21637
862.183	21561
862.315	21591
862.447	21500
862.58	21428
862.712	21447
862.844	21252
862.976	21519
863.108	21408
863.24	21865
863.372	21165
863.504	21287
863.636	21230
863.768	21401
863.9	21378
864.032	21336
864.164	21226
864.296	21378
864.428	21443
864.559	21344
864.691	21405
864.823	21363
864.954	21252
865.086	21397
865.217	21367
865.349	21199
865.48	21279
865.612	21192
865.743	21466
865.875	21188
866.006	21393
866.137	21184
866.269	21222
866.4	21173
866.531	21161
866.662	21104
866.793	21192
866.924	21093
867.055	21157
867.186	21173
867.317	21058
867.448	21032
867.579	21001
867.71	21062
867.841	21157
867.972	21089
868.103	21077
868.233	21157
868.364	21272
868.495	21150
868.625	21313
868.756	21454
868.886	21363
869.017	21435
869.147	21481
869.278	21469
869.408	21431
869.539	21348
869.669	21458
869.799	21500
869.929	21492
870.06	21496
870.19	21656
870.32	21583
870.45	21694
870.58	21751
870.71	21892
870.84	21827
870.97	21793
871.1	21709
871.23	21949
871.36	21915
871.489	21846
871.619	21884
871.749	21895
871.879	22036
872.008	22002
872.138	21960
872.267	22055
872.397	21968
872.526	21755
872.656	21770
872.785	21759
872.915	21880
873.044	22093
873.173	22086
873.303	22017
873.432	21922
873.561	22109
873.69	22055
873.819	22017
873.948	22139
874.077	22120
874.206	22040
874.335	21972
874.464	22097
874.593	22238
874.722	22295
874.851	22265
874.979	22219
875.108	22261
875.237	22207
875.365	22124
875.494	22333
875.623	22192
875.751	22284
875.88	22215
876.008	22440
876.136	22531
876.265	22675
876.393	22660
876.521	22752
876.65	22778
876.778	22607
876.906	22554
877.034	22516
877.162	22512
877.29	22527
877.418	22611
877.546	22527
877.674	22512
877.802	22641
877.93	22478
878.058	22405
878.185	22386
878.313	22519
878.441	22603
878.568	22405
878.696	22523
878.824	22626
878.951	22660
879.079	22733
879.206	22889
879.333	22698
879.461	22577
879.588	22645
879.715	22653
879.842	22854
879.97	22630
880.097	22394
880.224	22333
880.351	22413
880.478	22337
880.605	22344
880.732	22428
880.859	22645
880.986	22405
881.112	22329
881.239	22344
881.366	22265
881.493	22051
881.619	22135
881.746	22067
881.872	21964
881.999	22013
882.125	21983
882.252	21987
882.378	21774
882.505	22082
882.631	21743
882.757	21679
882.883	21797
883.01	21709
883.136	21637
883.262	21416
883.388	21549
883.514	21747
883.64	21637
883.766	21587
883.892	21401
884.018	21511
884.143	21580
884.269	21705
884.395	21370
884.52	21348
884.646	21370
884.772	21344
884.897	21055
885.023	21313
885.148	21568
885.274	21420
885.399	21344
885.524	21287
885.65	21374
885.775	21389
885.9	21317
886.025	21408
886.15	21435
886.275	21336
886.4	21230
886.525	21275
886.65	21226
886.775	21146
886.9	21401
887.025	21511
887.149	21249
887.274	21127
887.399	21055
887.523	21066
887.648	21024
887.773	20952
887.897	21074
888.021	21055
888.146	20982
888.27	21123
888.395	21142
888.519	21116
888.643	21017
888.767	21180
888.891	21089
889.015	20857
889.139	21005
889.263	20899
889.387	20914
889.511	21028
889.635	20982
889.759	20819
889.883	20895
890.006	20762
890.13	20963
890.254	20819
890.377	20952
890.501	20731
890.624	20651
890.748	20693
890.871	20606
890.995	20393
891.118	20347
891.241	20450
891.364	20442
891.488	20552
891.611	20408
891.734	20518
891.857	20537
891.98	20495
892.103	20549
892.226	20377
892.349	20473
892.471	20248
892.594	20362
892.717	20507
892.839	20271
892.962	20347
893.085	20518
893.207	20389
893.33	20320
893.452	20237
893.575	20438
893.697	20275
893.819	20492
893.941	20602
894.064	20518
894.186	20324
894.308	20240
894.43	20419
894.552	20434
894.674	20457
894.796	20400
894.918	20336
895.04	20195
895.161	20358
895.283	20385
895.405	20298
895.526	20381
895.648	20298
895.769	20237
895.891	20431
896.012	20400
896.134	20473
896.255	20374
896.376	20298
896.498	20328
896.619	20332
896.74	20461
896.861	20423
896.982	20598
897.103	20792
897.224	20659
897.345	20537
897.466	20598
897.587	20625
897.708	20670
897.828	20552
897.949	20438
898.07	20476
898.19	20469
898.311	20731
898.431	20571
898.552	20484
898.672	20507
898.792	20674
898.913	20609
899.033	20450
899.153	20381
899.273	20339
899.393	20355
899.513	20499
899.633	20282
899.753	20294
899.873	20317
899.993	20263
900.113	20168
900.232	20229
900.352	20153
900.472	20107
900.591	20035
900.711	20157
900.83	20020
900.95	20275
901.069	20145
901.189	19932
901.308	19814
901.427	19719
901.546	19655
901.665	19628
901.784	19727
901.904	19594
902.023	19339
902.141	19107
902.26	19137
902.379	19247
902.498	19198
902.617	19148
902.735	19168
902.854	19133
902.973	19004
903.091	18989
903.21	18772
903.328	18863
903.446	18745
903.565	18589
903.683	18711
903.801	18521
903.919	18589
904.038	18574
904.156	18479
904.274	18551
904.392	18262
904.51	18311
904.627	18456
904.745	18551
904.863	18506
904.981	18190
905.098	18121
905.216	17980
905.334	18136
905.451	18026
905.569	18026
905.686	18102
905.803	18148
905.921	17893
906.038	17901
906.155	17904
906.272	17855
906.389	17794
906.506	17634
906.623	17691
906.74	17668
906.857	17532
906.974	17611
907.091	17649
907.208	17714
907.324	17649
907.441	17528
907.557	17318
907.674	17318
907.79	17239
907.907	17239
908.023	17315
908.139	17334
908.256	17273
908.372	17273
908.488	17216
908.604	17147
908.72	16995
908.836	17025
908.952	17003
909.068	17071
909.184	17140
909.3	17067
909.415	16999
909.531	17006
909.647	16869
909.762	16752
909.878	16702
909.993	16748
910.108	16668
910.224	16721
910.339	16717
910.454	16630
910.57	16596
910.685	16516
910.8	16748
910.915	16778
911.03	16558
911.145	16394
911.259	16409
911.374	16299
911.489	16219
911.604	16219
911.718	16086
911.833	16139
911.947	15979
912.062	15937
912.176	16071
912.291	16074
912.405	16036
912.519	16261
912.633	16329
912.748	16226
912.862	16017
912.976	15888
913.09	15774
913.204	15903
913.318	15930
913.431	16078
913.545	15873
913.659	16040
913.772	15918
913.886	15770
914	15766
914.113	15717
914.226	15648
914.34	15812
914.453	15648
914.566	15701
914.68	15591
914.793	15572
914.906	15481
915.019	15370
915.132	15374
915.245	15264
915.358	15329
915.47	15317
915.583	15298
915.696	15317
915.809	15416
915.921	15481
916.034	15378
916.146	15241
916.259	15093
916.371	15359
916.483	15218
916.595	15070
916.708	15085
916.82	15211
916.932	15203
917.044	15104
917.156	15039
917.268	14902
917.38	14956
917.491	14944
917.603	14986
917.715	14994
917.826	15058
917.938	14823
918.049	14800
918.161	14788
918.272	15062
918.384	14998
918.495	14838
918.606	14674
918.717	14678
918.828	14739
918.939	14701
919.05	14629
919.161	14689
919.272	14408
919.383	14583
919.494	14663
919.604	14891
919.715	14697
919.826	14560
919.936	14697
920.047	14785
920.157	14648
920.267	14838
920.378	14701
920.488	14636
920.598	14800
920.708	14937
920.818	14807
920.928	14811
921.038	14872
921.148	15005
921.258	14583
921.368	14537
921.477	14389
921.587	14396
921.697	14298
921.806	14374
921.916	14187
922.025	14145
922.134	14054
922.244	13951
922.353	13989
922.462	13917
922.571	13932
922.68	13791
922.789	13651
922.898	13727
923.007	13658
923.116	13708
923.224	13670
923.333	13765
923.442	13567
923.55	13563
923.659	13472
923.767	13567
923.876	13445
923.984	13544
924.092	13346
924.201	13468
924.309	13411
924.417	13430
924.525	13308
924.633	13251
924.741	14161
924.849	13122
924.956	13304
925.064	13133
925.172	13061
925.279	13152
925.387	13080
925.494	13091
925.602	13255
925.709	13091
925.816	12977
925.924	13053
926.031	13164
926.138	13129
926.245	13141
926.352	12897
926.459	13069
926.566	13080
926.673	12993
926.779	12901
926.886	12863
926.993	12753
927.099	12665
927.206	12616
927.312	12555
927.419	12757
927.525	12635
927.631	12627
927.737	12612
927.843	12418
927.95	12342
928.056	12483
928.162	12418
928.267	12544
928.373	13114
928.479	12525
928.585	12338
928.69	12407
928.796	12490
928.901	12308
929.007	12258
929.112	12300
929.218	12285
929.323	12232
929.428	12114
929.533	12186
929.638	12175
929.743	12034
929.848	12171
929.953	12106
930.058	12015
930.163	11901
930.267	11828
930.372	12095
930.477	11828
930.581	12079
930.685	11954
930.79	11737
930.894	11748
930.998	11714
931.103	11790
931.207	11589
931.311	11471
931.415	11391
931.519	11159
931.623	11094
