Data from test_V78500241_1785.txt Node
Date: Fri Mar 25 15:22:17 CST 2022
User: usil
Spectrometer: V785-0024
Trigger mode: 0
Integration Time (sec): 4.000000E-1
Scans to average: 1
Nonlinearity correction enabled: false
Boxcar width: 0
Storing dark spectrum: false
XAxis mode: Wavelengths
Number of Pixels in Spectrum: 1024
>>>>>Begin Spectral Data<<<<<
801.071	28063
801.214	27968
801.356	27682
801.499	27599
801.641	27473
801.783	27595
801.926	27504
802.068	27641
802.211	27549
802.353	27519
802.496	27230
802.638	27192
802.78	27256
802.923	27195
803.065	27089
803.208	27233
803.35	27351
803.492	27317
803.635	27416
803.777	27214
803.919	27469
804.061	27694
804.204	27386
804.346	27351
804.488	27264
804.63	27393
804.773	27291
804.915	27427
805.057	27485
805.199	27226
805.341	27416
805.483	27393
805.626	27466
805.768	27412
805.91	27458
806.052	27439
806.194	27545
806.336	27663
806.478	27469
806.62	27507
806.762	27701
806.904	27736
807.046	28021
807.188	27953
807.33	27998
807.472	27926
807.614	27922
807.756	27899
807.898	27682
808.04	27701
808.182	27759
808.324	27816
808.465	27914
808.607	28090
808.749	28177
808.891	28188
809.033	28253
809.174	28257
809.316	28128
809.458	28059
809.6	28013
809.741	28276
809.883	28143
810.025	28401
810.166	28348
810.308	28489
810.45	28432
810.591	28177
810.733	28173
810.875	28078
811.016	28059
811.158	28032
811.299	28158
811.441	28413
811.582	28325
811.724	28116
811.865	28048
812.007	28082
812.148	28135
812.29	28154
812.431	28390
812.573	28363
812.714	28478
812.855	28641
812.997	28721
813.138	28668
813.279	28824
813.421	28721
813.562	28577
813.703	28546
813.845	28322
813.986	28109
814.127	27983
814.268	27930
814.41	27945
814.551	27701
814.692	27972
814.833	27682
814.974	27800
815.115	27873
815.256	27728
815.397	27781
815.539	27595
815.68	27724
815.821	27603
815.962	27622
816.103	27545
816.244	27412
816.385	27401
816.526	27287
816.666	27233
816.807	27135
816.948	27184
817.089	27321
817.23	27291
817.371	27135
817.512	27123
817.653	27135
817.793	27024
817.934	27024
818.075	27135
818.216	27165
818.356	27058
818.497	26986
818.638	26762
818.778	26838
818.919	27081
819.06	26845
819.2	27013
819.341	27150
819.481	27237
819.622	27291
819.762	27485
819.903	27466
820.043	27351
820.184	27184
820.324	27165
820.465	27306
820.605	27329
820.746	27294
820.886	27116
821.026	27233
821.167	27123
821.307	27275
821.447	27245
821.588	26979
821.728	26807
821.868	26758
822.008	26609
822.149	26575
822.289	26705
822.429	26259
822.569	26225
822.709	26351
822.849	26024
822.99	26225
823.13	26027
823.27	26134
823.41	25856
823.55	25822
823.69	25898
823.83	25932
823.97	25951
824.11	25811
824.25	25738
824.389	25818
824.529	25936
824.669	25784
824.809	25864
824.949	25913
825.089	25936
825.228	25731
825.368	25594
825.508	25544
825.648	25681
825.787	25689
825.927	25742
826.067	25563
826.206	25624
826.346	25674
826.485	25647
826.625	25582
826.765	25738
826.904	25533
827.044	25198
827.183	25335
827.323	25228
827.462	25434
827.601	25377
827.741	25407
827.88	25483
828.02	25118
828.159	25316
828.298	25384
828.437	25362
828.577	25331
828.716	25403
828.855	25312
828.994	25080
829.134	25148
829.273	25091
829.412	24947
829.551	25080
829.69	25038
829.829	25084
829.968	25164
830.107	25080
830.246	25152
830.385	24954
830.524	24954
830.663	24886
830.802	24810
830.941	24616
831.08	24798
831.219	24844
831.357	24791
831.496	24863
831.635	24711
831.774	24597
831.913	24669
832.051	24437
832.19	24509
832.329	24418
832.467	24319
832.606	24338
832.744	24395
832.883	24311
833.022	24258
833.16	24494
833.299	24410
833.437	24369
833.576	24399
833.714	24407
833.852	24521
833.991	24486
834.129	24555
834.267	24467
834.406	24270
834.544	24350
834.682	24445
834.821	24448
834.959	24578
835.097	24391
835.235	24426
835.373	24399
835.511	24418
835.65	24319
835.788	24357
835.926	24144
836.064	24087
836.202	24125
836.34	24281
836.478	24376
836.615	24205
836.753	24201
836.891	24315
837.029	24369
837.167	24102
837.305	24213
837.443	24152
837.58	24079
837.718	24125
837.856	24136
837.993	24072
838.131	24045
838.269	23958
838.406	24003
838.544	23901
838.681	23783
838.819	23714
838.956	23691
839.094	23665
839.231	23551
839.369	23672
839.506	23977
839.643	23961
839.781	23642
839.918	23425
840.055	23585
840.193	23402
840.33	23398
840.467	23589
840.604	23490
840.742	23672
840.879	23433
841.016	23349
841.153	23398
841.29	23703
841.427	23455
841.564	23592
841.701	23425
841.838	23429
841.975	23372
842.112	23417
842.249	23334
842.385	23383
842.522	23391
842.659	23132
842.796	23254
842.933	23193
843.069	23239
843.206	23166
843.343	23269
843.479	23250
843.616	23258
843.752	23022
843.889	23041
844.025	23208
844.162	22908
844.298	23155
844.435	23010
844.571	22980
844.708	23048
844.844	23178
844.98	23033
845.117	23121
845.253	22896
845.389	22881
845.525	22915
845.661	22908
845.798	22675
845.934	22816
846.07	22740
846.206	22721
846.342	22812
846.478	22649
846.614	22523
846.75	22382
846.886	22508
847.022	22508
847.158	22546
847.294	22478
847.429	22561
847.565	22485
847.701	22713
847.837	22242
847.972	22272
848.108	22306
848.244	22314
848.379	22230
848.515	22093
848.65	22086
848.786	22181
848.921	22101
849.057	22154
849.192	22147
849.328	22120
849.463	22128
849.598	22040
849.734	22086
849.869	21831
850.004	21854
850.14	21762
850.275	21781
850.41	21694
850.545	21930
850.68	21793
850.815	21869
850.95	21994
851.085	22029
851.22	21934
851.355	21827
851.49	21842
851.625	21789
851.76	21850
851.895	21637
852.03	21739
852.165	21838
852.299	21762
852.434	21884
852.569	21770
852.703	21774
852.838	21911
852.973	21915
853.107	21987
853.242	21816
853.376	21675
853.511	21675
853.645	21622
853.78	21831
853.914	21728
854.048	21606
854.183	21656
854.317	21667
854.451	21797
854.585	21614
854.72	21587
854.854	21819
854.988	21534
855.122	21698
855.256	21603
855.39	21675
855.524	21663
855.658	21728
855.792	21580
855.926	21637
856.06	21724
856.194	21629
856.327	21717
856.461	21496
856.595	21603
856.729	21667
856.862	21774
856.996	21785
857.13	21778
857.263	21709
857.397	21698
857.53	21671
857.664	21789
857.797	21789
857.931	21778
858.064	21682
858.197	21895
858.331	21690
858.464	21667
858.597	21572
858.731	21564
858.864	21488
858.997	21637
859.13	21610
859.263	21587
859.396	21671
859.529	21568
859.662	21485
859.795	21682
859.928	21732
860.061	21903
860.194	21899
860.327	21793
860.46	21682
860.592	21762
860.725	21720
860.858	21698
860.99	21679
861.123	21629
861.256	21675
861.388	21542
861.521	22242
861.653	21553
861.786	21492
861.918	21557
862.05	21519
862.183	21618
862.315	21694
862.447	21743
862.58	21671
862.712	21374
862.844	21329
862.976	21523
863.108	21450
863.24	21774
863.372	21291
863.504	21351
863.636	21363
863.768	21329
863.9	21233
864.032	21279
864.164	21355
864.296	21416
864.428	21496
864.559	21523
864.691	21435
864.823	21431
864.954	21283
865.086	21469
865.217	21264
865.349	21252
865.48	21222
865.612	21226
865.743	21435
865.875	21268
866.006	21222
866.137	21275
866.269	21291
866.4	21195
866.531	21298
866.662	21036
866.793	21203
866.924	21165
867.055	21199
867.186	21157
867.317	21142
867.448	21112
867.579	21081
867.71	21188
867.841	21074
867.972	21203
868.103	21176
868.233	21154
868.364	21173
868.495	21313
868.625	21359
868.756	21359
868.886	21424
869.017	21507
869.147	21576
869.278	21488
869.408	21367
869.539	21378
869.669	21488
869.799	21473
869.929	21629
870.06	21488
870.19	21823
870.32	21770
870.45	21873
870.58	21789
870.71	21892
870.84	21880
870.97	21892
871.1	21869
871.23	22055
871.36	21994
871.489	21880
871.619	21949
871.749	21941
871.879	22070
872.008	22090
872.138	22101
872.267	21930
872.397	21911
872.526	21728
872.656	21823
872.785	21857
872.915	22097
873.044	22112
873.173	21846
873.303	22086
873.432	22158
873.561	22147
873.69	21975
873.819	22040
873.948	22211
874.077	22086
874.206	21922
874.335	21987
874.464	22234
874.593	22337
874.722	22169
874.851	22207
874.979	22280
875.108	22265
875.237	22135
875.365	22188
875.494	22215
875.623	22306
875.751	22207
875.88	22322
876.008	22470
876.136	22481
876.265	22626
876.393	22816
876.521	22694
876.65	22634
876.778	22622
876.906	22519
877.034	22596
877.162	22672
877.29	22584
877.418	22744
877.546	22649
877.674	22603
877.802	22516
877.93	22489
878.058	22565
878.185	22497
878.313	22618
878.441	22516
878.568	22508
878.696	22554
878.824	22634
878.951	22698
879.079	22687
879.206	22873
879.333	22843
879.461	22615
879.588	22664
879.715	22733
879.842	22862
879.97	22729
880.097	22310
880.224	22413
880.351	22478
880.478	22447
880.605	22428
880.732	22402
880.859	22801
880.986	22512
881.112	22474
881.239	22344
881.366	22196
881.493	22051
881.619	21956
881.746	22029
881.872	21937
881.999	22006
882.125	21983
882.252	22090
882.378	22010
882.505	22147
882.631	21835
882.757	21797
882.883	21747
883.01	21736
883.136	21675
883.262	21507
883.388	21454
883.514	21682
883.64	21686
883.766	21709
883.892	21435
884.018	21526
884.143	21633
884.269	21679
884.395	21431
884.52	21344
884.646	21344
884.772	21275
884.897	21332
885.023	21492
885.148	21370
885.274	21454
885.399	21389
885.524	21428
885.65	21332
885.775	21325
885.9	21291
886.025	21412
886.15	21332
886.275	21241
886.4	21241
886.525	21317
886.65	21173
886.775	21256
886.9	21370
887.025	21542
887.149	21252
887.274	21108
887.399	21089
887.523	21192
887.648	21036
887.773	21096
887.897	21211
888.021	21058
888.146	21062
888.27	21211
888.395	21218
888.519	21138
888.643	21085
888.767	21188
888.891	20895
889.015	20887
889.139	20982
889.263	20925
889.387	20921
889.511	21036
889.635	21123
889.759	20845
889.883	20941
890.006	20941
890.13	20979
890.254	20765
890.377	20823
890.501	20629
890.624	20579
890.748	20609
890.871	20533
890.995	20488
891.118	20423
891.241	20484
891.364	20503
891.488	20503
891.611	20473
891.734	20549
891.857	20492
891.98	20514
892.103	20514
892.226	20347
892.349	20454
892.471	20343
892.594	20259
892.717	20488
892.839	20336
892.962	20347
893.085	20381
893.207	20301
893.33	20263
893.452	20374
893.575	20400
893.697	20290
893.819	20427
893.941	20609
894.064	20495
894.186	20355
894.308	20404
894.43	20351
894.552	20575
894.674	20381
894.796	20309
894.918	20317
895.04	20263
895.161	20473
895.283	20328
895.405	20313
895.526	20252
895.648	20358
895.769	20328
895.891	20393
896.012	20465
896.134	20377
896.255	20434
896.376	20358
896.498	20324
896.619	20415
896.74	20370
896.861	20317
896.982	20602
897.103	20720
897.224	20571
897.345	20545
897.466	20609
897.587	20514
897.708	20655
897.828	20598
897.949	20537
898.07	20358
898.19	20492
898.311	20678
898.431	20568
898.552	20526
898.672	20522
898.792	20598
898.913	20533
899.033	20492
899.153	20427
899.273	20271
899.393	20324
899.513	20389
899.633	20358
899.753	20438
899.873	20271
899.993	20358
900.113	20130
900.232	20290
900.352	20199
900.472	20183
900.591	20031
900.711	20073
900.83	20115
900.95	20081
901.069	20199
901.189	20024
901.308	19723
901.427	19719
901.546	19689
901.665	19635
901.784	19700
901.904	19438
902.023	19438
902.141	19339
902.26	19228
902.379	19190
902.498	19133
902.617	19187
902.735	19118
902.854	19152
902.973	19103
903.091	18909
903.21	18856
903.328	18943
903.446	18696
903.565	18665
903.683	18646
903.801	18517
903.919	18612
904.038	18593
904.156	18441
904.274	18574
904.392	18380
904.51	18460
904.627	18311
904.745	18429
904.863	18502
904.981	18251
905.098	18057
905.216	18030
905.334	18106
905.451	18019
905.569	18049
905.686	18243
905.803	18057
905.921	17882
906.038	17942
906.155	17992
906.272	17729
906.389	17828
906.506	17535
906.623	17581
906.74	17539
906.857	17570
906.974	17509
907.091	17680
907.208	17661
907.324	17646
907.441	17471
907.557	17379
907.674	17292
907.79	17246
907.907	17265
908.023	17326
908.139	17414
908.256	17250
908.372	17246
908.488	17200
908.604	17094
908.72	16953
908.836	17105
908.952	17029
909.068	17124
909.184	17174
909.3	17033
909.415	17113
909.531	17048
909.647	16801
909.762	16812
909.878	16694
909.993	16713
910.108	16801
910.224	16698
910.339	16729
910.454	16637
910.57	16523
910.685	16424
910.8	16729
910.915	16721
911.03	16542
911.145	16474
911.259	16413
911.374	16295
911.489	16230
911.604	16211
911.718	15979
911.833	16029
911.947	15983
912.062	16006
912.176	15964
912.291	16048
912.405	15968
912.519	16226
912.633	16230
912.748	16177
912.862	15972
912.976	15941
913.09	15800
913.204	15884
913.318	15869
913.431	15979
913.545	15949
913.659	16029
913.772	15785
913.886	15759
914	15701
914.113	15797
914.226	15930
914.34	15709
914.453	15572
914.566	15603
914.68	15549
914.793	15591
914.906	15447
915.019	15332
915.132	15245
915.245	15382
915.358	15351
915.47	15382
915.583	15272
915.696	15306
915.809	15424
915.921	15393
916.034	15222
916.146	15146
916.259	15252
916.371	15161
916.483	15283
916.595	15138
916.708	15077
916.82	15108
916.932	15077
917.044	15085
917.156	15089
917.268	14910
917.38	14982
917.491	14845
917.603	14956
917.715	14956
917.826	15043
917.938	14842
918.049	14838
918.161	14914
918.272	15032
918.384	14826
918.495	14864
918.606	14674
918.717	14602
918.828	14686
918.939	14682
919.05	14571
919.161	14693
919.272	14495
919.383	14545
919.494	14735
919.604	14857
919.715	14606
919.826	14644
919.936	14659
920.047	14731
920.157	14632
920.267	14895
920.378	14613
920.488	14621
920.598	14807
920.708	14925
920.818	14792
920.928	14731
921.038	14929
921.148	14952
921.258	14610
921.368	14480
921.477	14400
921.587	14377
921.697	14164
921.806	14377
921.916	14336
922.025	14100
922.134	13921
922.244	13967
922.353	14065
922.462	13841
922.571	13712
922.68	13708
922.789	13590
922.898	13559
923.007	13628
923.116	13643
923.224	13685
923.333	13655
923.442	13529
923.55	13525
923.659	13533
923.767	13540
923.876	13464
923.984	13487
924.092	13388
924.201	13449
924.309	13369
924.417	13373
924.525	13274
924.633	13259
924.741	14233
924.849	13194
924.956	13225
925.064	13118
925.172	13023
925.279	13072
925.387	13129
925.494	13076
925.602	13194
925.709	13114
925.816	12993
925.924	13069
926.031	13088
926.138	12993
926.245	12981
926.352	12954
926.459	13061
926.566	13126
926.673	12962
926.779	12871
926.886	12840
926.993	12684
927.099	12665
927.206	12601
927.312	12528
927.419	12612
927.525	12559
927.631	12570
927.737	12445
927.843	12494
927.95	12357
928.056	12464
928.162	12418
928.267	12483
928.373	13057
928.479	12498
928.585	12254
928.69	12410
928.796	12479
928.901	12323
929.007	12197
929.112	12281
929.218	12247
929.323	12163
929.428	12205
929.533	12251
929.638	12095
929.743	12072
929.848	12159
929.953	12034
930.058	11988
930.163	11889
930.267	11798
930.372	11996
930.477	11813
930.581	11961
930.685	11973
930.79	11813
930.894	11714
930.998	11718
931.103	11790
931.207	11425
931.311	11490
931.415	11391
931.519	11117
931.623	11109
