Data from test_V78500241_1861.txt Node
Date: Fri Mar 25 15:22:48 CST 2022
User: usil
Spectrometer: V785-0024
Trigger mode: 0
Integration Time (sec): 4.000000E-1
Scans to average: 1
Nonlinearity correction enabled: false
Boxcar width: 0
Storing dark spectrum: false
XAxis mode: Wavelengths
Number of Pixels in Spectrum: 1024
>>>>>Begin Spectral Data<<<<<
801.071	27842
801.214	27675
801.356	27485
801.499	27412
801.641	27462
801.783	27294
801.926	27351
802.068	27370
802.211	27268
802.353	27203
802.496	26979
802.638	26975
802.78	26872
802.923	26804
803.065	26952
803.208	26727
803.35	26963
803.492	26948
803.635	26956
803.777	26929
803.919	27264
804.061	27306
804.204	27123
804.346	27043
804.488	26979
804.63	27116
804.773	27043
804.915	26971
805.057	27382
805.199	26994
805.341	27150
805.483	27344
805.626	27203
805.768	27264
805.91	27283
806.052	27207
806.194	27272
806.336	27393
806.478	27294
806.62	27302
806.762	27386
806.904	27511
807.046	27603
807.188	27618
807.33	27580
807.472	27766
807.614	27549
807.756	27583
807.898	27519
808.04	27523
808.182	27435
808.324	27492
808.465	27583
808.607	27766
808.749	27907
808.891	27994
809.033	28093
809.174	28055
809.316	27850
809.458	27816
809.6	27778
809.741	28070
809.883	28048
810.025	28139
810.166	28036
810.308	28101
810.45	28181
810.591	28101
810.733	27835
810.875	27743
811.016	27572
811.158	27846
811.299	27899
811.441	27998
811.582	27949
811.724	27857
811.865	27709
812.007	27766
812.148	27846
812.29	27895
812.431	28124
812.573	28204
812.714	28348
812.855	28394
812.997	28459
813.138	28421
813.279	28512
813.421	28360
813.562	28272
813.703	28204
813.845	28112
813.986	27690
814.127	27622
814.268	27492
814.41	27549
814.551	27496
814.692	27614
814.833	27477
814.974	27557
815.115	27530
815.256	27435
815.397	27310
815.539	27386
815.68	27195
815.821	27218
815.962	27256
816.103	27199
816.244	27062
816.385	27085
816.526	27146
816.666	27017
816.807	26800
816.948	26883
817.089	26998
817.23	26883
817.371	26602
817.512	26823
817.653	26819
817.793	26750
817.934	26678
818.075	26792
818.216	26982
818.356	26765
818.497	26800
818.638	26564
818.778	26499
818.919	26495
819.06	26625
819.2	26735
819.341	26868
819.481	26686
819.622	26914
819.762	27165
819.903	27112
820.043	26883
820.184	26986
820.324	26925
820.465	27028
820.605	26887
820.746	26872
820.886	26960
821.026	26872
821.167	26823
821.307	26998
821.447	26823
821.588	26830
821.728	26564
821.868	26537
822.008	26324
822.149	26313
822.289	26362
822.429	26012
822.569	26027
822.709	25959
822.849	25936
822.99	25826
823.13	25696
823.27	25651
823.41	25605
823.55	25537
823.69	25578
823.83	25586
823.97	25594
824.11	25434
824.25	25434
824.389	25445
824.529	25548
824.669	25575
824.809	25514
824.949	25571
825.089	25445
825.228	25506
825.368	25232
825.508	25362
825.648	25266
825.787	25331
825.927	25362
826.067	25202
826.206	25206
826.346	25381
826.485	25358
826.625	25240
826.765	25449
826.904	25343
827.044	25084
827.183	25156
827.323	25053
827.462	25183
827.601	24943
827.741	25038
827.88	25053
828.02	24981
828.159	25034
828.298	25069
828.437	25023
828.577	25133
828.716	25110
828.855	25023
828.994	24825
829.134	24795
829.273	24871
829.412	24772
829.551	24795
829.69	24677
829.829	24814
829.968	24768
830.107	24810
830.246	24833
830.385	24791
830.524	24635
830.663	24563
830.802	24509
830.941	24327
831.08	24338
831.219	24285
831.357	24300
831.496	24658
831.635	24380
831.774	24292
831.913	24270
832.051	24243
832.19	23977
832.329	24159
832.467	24083
832.606	23969
832.744	23996
832.883	24064
833.022	24007
833.16	24095
833.299	23999
833.437	24011
833.576	24110
833.714	24049
833.852	24209
833.991	24076
834.129	24239
834.267	24148
834.406	24098
834.544	24136
834.682	24133
834.821	24007
834.959	24342
835.097	23950
835.235	24155
835.373	24174
835.511	24026
835.65	23931
835.788	23863
835.926	23794
836.064	23737
836.202	23733
836.34	23942
836.478	23961
836.615	23931
836.753	23935
836.891	24068
837.029	23973
837.167	23805
837.305	23920
837.443	23756
837.58	23783
837.718	23946
837.856	23764
837.993	23786
838.131	23680
838.269	23608
838.406	23592
838.544	23592
838.681	23448
838.819	23410
838.956	23250
839.094	23261
839.231	23197
839.369	23497
839.506	23638
839.643	23497
839.781	23379
839.918	23322
840.055	23265
840.193	23334
840.33	23113
840.467	23189
840.604	23235
840.742	23372
840.879	23136
841.016	23204
841.153	23121
841.29	23280
841.427	23132
841.564	23155
841.701	23136
841.838	23006
841.975	23109
842.112	23044
842.249	22889
842.385	23025
842.522	23037
842.659	22896
842.796	22847
842.933	22854
843.069	22839
843.206	22869
843.343	22968
843.479	23010
843.616	22953
843.752	22683
843.889	22805
844.025	22839
844.162	22596
844.298	22710
844.435	22622
844.571	22637
844.708	22774
844.844	22850
844.98	22763
845.117	22847
845.253	22706
845.389	22634
845.525	22675
845.661	22542
845.798	22413
845.934	22489
846.07	22443
846.206	22455
846.342	22512
846.478	22405
846.614	22257
846.75	22086
846.886	22287
847.022	22291
847.158	22242
847.294	22234
847.429	22173
847.565	22139
847.701	22565
847.837	21804
847.972	21934
848.108	21911
848.244	21937
848.379	21778
848.515	21835
848.65	21732
848.786	21751
848.921	21713
849.057	21816
849.192	21968
849.328	21705
849.463	21781
849.598	21793
849.734	21728
849.869	21739
850.004	21530
850.14	21424
850.275	21610
850.41	21500
850.545	21526
850.68	21466
850.815	21599
850.95	21603
851.085	21732
851.22	21713
851.355	21488
851.49	21580
851.625	21538
851.76	21504
851.895	21481
852.03	21477
852.165	21580
852.299	21545
852.434	21652
852.569	21583
852.703	21504
852.838	21652
852.973	21610
853.107	21603
853.242	21424
853.376	21481
853.511	21378
853.645	21336
853.78	21564
853.914	21462
854.048	21306
854.183	21412
854.317	21488
854.451	21644
854.585	21443
854.72	21374
854.854	21534
854.988	21351
855.122	21283
855.256	21245
855.39	21374
855.524	21367
855.658	21348
855.792	21363
855.926	21386
856.06	21367
856.194	21481
856.327	21386
856.461	21374
856.595	21306
856.729	21405
856.862	21329
856.996	21412
857.13	21462
857.263	21443
857.397	21450
857.53	21355
857.664	21405
857.797	21355
857.931	21435
858.064	21389
858.197	21424
858.331	21367
858.464	21340
858.597	21268
858.731	21294
858.864	21249
858.997	21249
859.13	21317
859.263	21313
859.396	21473
859.529	21397
859.662	21230
859.795	21188
859.928	21397
860.061	21435
860.194	21591
860.327	21492
860.46	21382
860.592	21568
860.725	21500
860.858	21526
860.99	21405
861.123	21256
861.256	21283
861.388	21348
861.521	22013
861.653	21268
861.786	21188
861.918	21161
862.05	21252
862.183	21332
862.315	21294
862.447	21256
862.58	21256
862.712	21055
862.844	20967
862.976	21142
863.108	21005
863.24	21412
863.372	20994
863.504	21116
863.636	21036
863.768	21096
863.9	21085
864.032	21013
864.164	21157
864.296	21100
864.428	21192
864.559	21176
864.691	21150
864.823	21062
864.954	21043
865.086	21009
865.217	20933
865.349	20933
865.48	20960
865.612	20880
865.743	21100
865.875	21047
866.006	20914
866.137	21005
866.269	20883
866.4	20975
866.531	20948
866.662	20895
866.793	20998
866.924	20982
867.055	20960
867.186	20857
867.317	20781
867.448	20785
867.579	20895
867.71	20842
867.841	20800
867.972	20834
868.103	20887
868.233	20956
868.364	20857
868.495	20906
868.625	21100
868.756	21165
868.886	21100
869.017	21108
869.147	21298
869.278	21272
869.408	21249
869.539	21207
869.669	21310
869.799	21237
869.929	21195
870.06	21237
870.19	21515
870.32	21420
870.45	21564
870.58	21549
870.71	21660
870.84	21644
870.97	21568
871.1	21561
871.23	21698
871.36	21743
871.489	21648
871.619	21781
871.749	21644
871.879	21701
872.008	21861
872.138	21694
872.267	21797
872.397	21561
872.526	21625
872.656	21519
872.785	21603
872.915	21778
873.044	21766
873.173	21743
873.303	21823
873.432	21717
873.561	21857
873.69	21762
873.819	21778
873.948	21850
874.077	21766
874.206	21709
874.335	21709
874.464	21819
874.593	22109
874.722	22040
874.851	22010
874.979	22048
875.108	21991
875.237	21956
875.365	21953
875.494	21960
875.623	22059
875.751	22070
875.88	21956
876.008	22169
876.136	22261
876.265	22405
876.393	22508
876.521	22451
876.65	22535
876.778	22447
876.906	22280
877.034	22303
877.162	22386
877.29	22325
877.418	22432
877.546	22352
877.674	22299
877.802	22344
877.93	22295
878.058	22402
878.185	22238
878.313	22246
878.441	22280
878.568	22207
878.696	22223
878.824	22375
878.951	22440
879.079	22459
879.206	22710
879.333	22478
879.461	22348
879.588	22424
879.715	22485
879.842	22523
879.97	22542
880.097	22215
880.224	22200
880.351	22185
880.478	22185
880.605	22067
880.732	22143
880.859	22265
880.986	22147
881.112	22173
881.239	21922
881.366	21922
881.493	21732
881.619	21694
881.746	21709
881.872	21743
881.999	21679
882.125	21717
882.252	21682
882.378	21660
882.505	21751
882.631	21743
882.757	21378
882.883	21564
883.01	21382
883.136	21389
883.262	21287
883.388	21279
883.514	21477
883.64	21348
883.766	21306
883.892	21230
884.018	21237
884.143	21336
884.269	21504
884.395	21184
884.52	21070
884.646	21085
884.772	21024
884.897	20990
885.023	20994
885.148	21123
885.274	21207
885.399	21119
885.524	21013
885.65	21066
885.775	21058
885.9	20971
886.025	21089
886.15	21180
886.275	21104
886.4	21001
886.525	20975
886.65	20975
886.775	20971
886.9	21150
887.025	21218
887.149	20979
887.274	20876
887.399	20899
887.523	20891
887.648	20872
887.773	20777
887.897	20941
888.021	21017
888.146	20712
888.27	20990
888.395	21051
888.519	20823
888.643	20842
888.767	20891
888.891	20552
889.015	20575
889.139	20720
889.263	20590
889.387	20655
889.511	20819
889.635	20609
889.759	20613
889.883	20636
890.006	20556
890.13	20739
890.254	20457
890.377	20507
890.501	20412
890.624	20377
890.748	20522
890.871	20153
890.995	20164
891.118	20054
891.241	20183
891.364	20191
891.488	20313
891.611	20218
891.734	20225
891.857	20221
891.98	20225
892.103	20103
892.226	20096
892.349	20111
892.471	20001
892.594	20157
892.717	20168
892.839	20046
892.962	20035
893.085	20286
893.207	20149
893.33	19974
893.452	20039
893.575	20119
893.697	20001
893.819	20145
893.941	20309
894.064	20275
894.186	20043
894.308	20069
894.43	20161
894.552	20298
894.674	20039
894.796	20069
894.918	20024
895.04	20100
895.161	20195
895.283	20069
895.405	20111
895.526	20035
895.648	19944
895.769	19970
895.891	20073
896.012	20103
896.134	20126
896.255	20035
896.376	19955
896.498	20081
896.619	20092
896.74	20225
896.861	20172
896.982	20408
897.103	20613
897.224	20290
897.345	20343
897.466	20324
897.587	20408
897.708	20575
897.828	20389
897.949	20294
898.07	20172
898.19	20271
898.311	20404
898.431	20286
898.552	20324
898.672	20419
898.792	20408
898.913	20351
899.033	20252
899.153	20096
899.273	20153
899.393	20096
899.513	20043
899.633	20183
899.753	20180
899.873	19963
899.993	20039
900.113	19932
900.232	19982
900.352	19925
900.472	19879
900.591	19833
900.711	19837
900.83	19765
900.95	19913
901.069	19944
901.189	19761
901.308	19582
901.427	19388
901.546	19331
901.665	19491
901.784	19392
901.904	19274
902.023	19190
902.141	18993
902.26	18970
902.379	19034
902.498	18951
902.617	19004
902.735	18977
902.854	19053
902.973	18817
903.091	18673
903.21	18582
903.328	18506
903.446	18540
903.565	18376
903.683	18403
903.801	18220
903.919	18418
904.038	18441
904.156	18144
904.274	18205
904.392	18197
904.51	18178
904.627	18182
904.745	18144
904.863	18270
904.981	18015
905.098	17843
905.216	17965
905.334	17908
905.451	17889
905.569	17859
905.686	17878
905.803	17843
905.921	17619
906.038	17783
906.155	17672
906.272	17524
906.389	17581
906.506	17379
906.623	17395
906.74	17471
906.857	17277
906.974	17307
907.091	17436
907.208	17566
907.324	17379
907.441	17223
907.557	17102
907.674	17060
907.79	17037
907.907	17151
908.023	17056
908.139	17056
908.256	17025
908.372	16911
908.488	16972
908.604	16938
908.72	16786
908.836	16881
908.952	16774
909.068	16778
909.184	16965
909.3	16767
909.415	16869
909.531	16797
909.647	16565
909.762	16577
909.878	16531
909.993	16535
910.108	16474
910.224	16554
910.339	16455
910.454	16356
910.57	16344
910.685	16284
910.8	16523
910.915	16478
911.03	16287
911.145	16226
911.259	16181
911.374	16204
911.489	16032
911.604	15903
911.718	15895
911.833	15922
911.947	15698
912.062	15720
912.176	15861
912.291	15804
912.405	15831
912.519	15854
912.633	16029
912.748	15884
912.862	15785
912.976	15584
913.09	15564
913.204	15622
913.318	15679
913.431	15785
913.545	15789
913.659	15789
913.772	15675
913.886	15515
914	15504
914.113	15557
914.226	15553
914.34	15488
914.453	15283
914.566	15549
914.68	15351
914.793	15355
914.906	15195
915.019	15104
915.132	14933
915.245	15043
915.358	15097
915.47	15070
915.583	15074
915.696	15093
915.809	15294
915.921	15226
916.034	15051
916.146	15119
916.259	15024
916.371	15047
916.483	14963
916.595	14975
916.708	14982
916.82	14868
916.932	14967
917.044	14895
917.156	14864
917.268	14842
917.38	14735
917.491	14693
917.603	14811
917.715	14864
917.826	14739
917.938	14750
918.049	14564
918.161	14762
918.272	14838
918.384	14754
918.495	14781
918.606	14533
918.717	14598
918.828	14606
918.939	14610
919.05	14362
919.161	14545
919.272	14294
919.383	14358
919.494	14659
919.604	14739
919.715	14598
919.826	14339
919.936	14427
920.047	14495
920.157	14446
920.267	14720
920.378	14579
920.488	14480
920.598	14705
920.708	14777
920.818	14632
920.928	14583
921.038	14750
921.148	14724
921.258	14431
921.368	14415
921.477	14263
921.587	14206
921.697	14065
921.806	14161
921.916	14111
922.025	13963
922.134	13951
922.244	13811
922.353	13868
922.462	13658
922.571	13715
922.68	13544
922.789	13559
922.898	13506
923.007	13441
923.116	13563
923.224	13434
923.333	13510
923.442	13373
923.55	13324
923.659	13346
923.767	13445
923.876	13259
923.984	13373
924.092	13293
924.201	13312
924.309	13259
924.417	13221
924.525	13156
924.633	13209
924.741	14092
924.849	13008
924.956	13175
925.064	12977
925.172	12871
925.279	12905
925.387	13084
925.494	12932
925.602	13118
925.709	13050
925.816	12795
925.924	12932
926.031	13050
926.138	12943
926.245	12875
926.352	12776
926.459	12939
926.566	12966
926.673	12745
926.779	12684
926.886	12658
926.993	12559
927.099	12547
927.206	12506
927.312	12357
927.419	12532
927.525	12399
927.631	12540
927.737	12410
927.843	12315
927.95	12235
928.056	12323
928.162	12376
928.267	12296
928.373	12886
928.479	12460
928.585	12213
928.69	12353
928.796	12353
928.901	12144
929.007	12076
929.112	12216
929.218	12163
929.323	12034
929.428	12034
929.533	12136
929.638	12022
929.743	12045
929.848	12098
929.953	11992
930.058	11897
930.163	11710
930.267	11741
930.372	11859
930.477	11699
930.581	11904
930.685	11786
930.79	11642
930.894	11760
930.998	11585
931.103	11745
931.207	11421
931.311	11280
931.415	11292
931.519	11048
931.623	11025
