Data from test_V78500241_2126.txt Node
Date: Fri Mar 25 15:24:39 CST 2022
User: usil
Spectrometer: V785-0024
Trigger mode: 0
Integration Time (sec): 4.000000E-1
Scans to average: 1
Nonlinearity correction enabled: false
Boxcar width: 0
Storing dark spectrum: false
XAxis mode: Wavelengths
Number of Pixels in Spectrum: 1024
>>>>>Begin Spectral Data<<<<<
801.071	27386
801.214	27332
801.356	27116
801.499	26971
801.641	26746
801.783	26765
801.926	26967
802.068	26769
802.211	26613
802.353	26663
802.496	26492
802.638	26412
802.78	26355
802.923	26442
803.065	26507
803.208	26446
803.35	26446
803.492	26499
803.635	26507
803.777	26473
803.919	26640
804.061	26880
804.204	26689
804.346	26396
804.488	26568
804.63	26526
804.773	26522
804.915	26625
805.057	26522
805.199	26613
805.341	26716
805.483	26727
805.626	26640
805.768	26590
805.91	26644
806.052	26701
806.194	26613
806.336	26864
806.478	26651
806.62	26731
806.762	26834
806.904	26895
807.046	27150
807.188	27241
807.33	27214
807.472	27070
807.614	26994
807.756	27051
807.898	26895
808.04	26853
808.182	27039
808.324	26960
808.465	27001
808.607	27249
808.749	27344
808.891	27496
809.033	27431
809.174	27439
809.316	27412
809.458	27298
809.6	27355
809.741	27348
809.883	27466
810.025	27557
810.166	27538
810.308	27625
810.45	27576
810.591	27439
810.733	27275
810.875	27275
811.016	27222
811.158	27146
811.299	27256
811.441	27405
811.582	27412
811.724	27230
811.865	27104
812.007	27294
812.148	27245
812.29	27302
812.431	27435
812.573	27576
812.714	27747
812.855	27812
812.997	28040
813.138	28055
813.279	27759
813.421	27808
813.562	27823
813.703	27606
813.845	27637
813.986	27157
814.127	27157
814.268	27009
814.41	27089
814.551	26937
814.692	26971
814.833	26956
814.974	26940
815.115	26998
815.256	26864
815.397	26811
815.539	26868
815.68	26815
815.821	26663
815.962	26769
816.103	26693
816.244	26541
816.385	26571
816.526	26488
816.666	26355
816.807	26153
816.948	26202
817.089	26275
817.23	26126
817.371	26210
817.512	26240
817.653	26115
817.793	26111
817.934	26366
818.075	26282
818.216	26240
818.356	26267
818.497	26206
818.638	26043
818.778	25902
818.919	26035
819.06	26054
819.2	26054
819.341	26088
819.481	26233
819.622	26366
819.762	26419
819.903	26495
820.043	26419
820.184	26278
820.324	26324
820.465	26343
820.605	26324
820.746	26294
820.886	26084
821.026	26145
821.167	26210
821.307	26332
821.447	26240
821.588	26039
821.728	26027
821.868	25856
822.008	25639
822.149	25742
822.289	25613
822.429	25343
822.569	25304
822.709	25343
822.849	25240
822.99	25236
823.13	25133
823.27	25168
823.41	24939
823.55	24867
823.69	25088
823.83	24897
823.97	25034
824.11	24825
824.25	24787
824.389	24673
824.529	24916
824.669	24787
824.809	24924
824.949	24871
825.089	24798
825.228	24943
825.368	24585
825.508	24578
825.648	24665
825.787	24795
825.927	24589
826.067	24601
826.206	24616
826.346	24627
826.485	24753
826.625	24547
826.765	24707
826.904	24661
827.044	24460
827.183	24490
827.323	24342
827.462	24376
827.601	24323
827.741	24365
827.88	24357
828.02	24281
828.159	24426
828.298	24388
828.437	24422
828.577	24190
828.716	24544
828.855	24209
828.994	23984
829.134	24106
829.273	24102
829.412	24102
829.551	24076
829.69	23996
829.829	24148
829.968	24369
830.107	24174
830.246	24030
830.385	23901
830.524	23897
830.663	23817
830.802	23714
830.941	23577
831.08	23646
831.219	23771
831.357	23672
831.496	23874
831.635	23775
831.774	23573
831.913	23520
832.051	23505
832.19	23429
832.329	23436
832.467	23280
832.606	23162
832.744	23315
832.883	23258
833.022	23433
833.16	23379
833.299	23402
833.437	23307
833.576	23326
833.714	23421
833.852	23471
833.991	23273
834.129	23543
834.267	23463
834.406	23440
834.544	23566
834.682	23459
834.821	23410
834.959	23474
835.097	23353
835.235	23421
835.373	23379
835.511	23398
835.65	23269
835.788	23220
835.926	23098
836.064	23033
836.202	23052
836.34	23189
836.478	23284
836.615	23185
836.753	23140
836.891	23353
837.029	23136
837.167	23170
837.305	23090
837.443	23086
837.58	23033
837.718	23185
837.856	23075
837.993	23071
838.131	23109
838.269	22953
838.406	23006
838.544	22915
838.681	22744
838.819	22679
838.956	22649
839.094	22500
839.231	22561
839.369	22778
839.506	23010
839.643	22771
839.781	22550
839.918	22451
840.055	22588
840.193	22596
840.33	22386
840.467	22398
840.604	22622
840.742	22653
840.879	22352
841.016	22398
841.153	22428
841.29	22550
841.427	22478
841.564	22599
841.701	22489
841.838	22341
841.975	22382
842.112	22295
842.249	22173
842.385	22158
842.522	22462
842.659	22284
842.796	22204
842.933	22211
843.069	22158
843.206	22086
843.343	22318
843.479	22280
843.616	22192
843.752	22055
843.889	22116
844.025	22074
844.162	22036
844.298	22051
844.435	21949
844.571	21972
844.708	22093
844.844	22185
844.98	22150
845.117	22082
845.253	21823
845.389	21800
845.525	22010
845.661	21720
845.798	21728
845.934	21865
846.07	21644
846.206	21793
846.342	21812
846.478	21656
846.614	21557
846.75	21488
846.886	21408
847.022	21526
847.158	21549
847.294	21454
847.429	21507
847.565	21458
847.701	21652
847.837	21283
847.972	21184
848.108	21161
848.244	21245
848.379	21074
848.515	20902
848.65	20986
848.786	21055
848.921	21028
849.057	21036
849.192	21135
849.328	21070
849.463	20994
849.598	20887
849.734	21001
849.869	20971
850.004	20796
850.14	20731
850.275	20815
850.41	20743
850.545	20781
850.68	20777
850.815	20754
850.95	20750
851.085	21013
851.22	20758
851.355	20925
851.49	20872
851.625	20754
851.76	20750
851.895	20838
852.03	20716
852.165	20815
852.299	20910
852.434	20883
852.569	20861
852.703	20800
852.838	20777
852.973	20819
853.107	20853
853.242	20674
853.376	20598
853.511	20587
853.645	20545
853.78	20705
853.914	20708
854.048	20575
854.183	20617
854.317	20545
854.451	20815
854.585	20598
854.72	20594
854.854	20868
854.988	20629
855.122	20701
855.256	20575
855.39	20644
855.524	20636
855.658	20743
855.792	20686
855.926	20769
856.06	20651
856.194	20788
856.327	20606
856.461	20632
856.595	20617
856.729	20655
856.862	20754
856.996	20678
857.13	20640
857.263	20773
857.397	20655
857.53	20564
857.664	20689
857.797	20609
857.931	20765
858.064	20750
858.197	20590
858.331	20579
858.464	20651
858.597	20560
858.731	20621
858.864	20621
858.997	20533
859.13	20716
859.263	20533
859.396	20663
859.529	20720
859.662	20457
859.795	20530
859.928	20587
860.061	20739
860.194	20800
860.327	20682
860.46	20655
860.592	20697
860.725	20811
860.858	20853
860.99	20594
861.123	20571
861.256	20587
861.388	20743
861.521	21367
861.653	20568
861.786	20446
861.918	20415
862.05	20514
862.183	20545
862.315	20621
862.447	20488
862.58	20549
862.712	20438
862.844	20347
862.976	20450
863.108	20347
863.24	20857
863.372	20267
863.504	20282
863.636	20305
863.768	20301
863.9	20336
864.032	20210
864.164	20275
864.296	20465
864.428	20385
864.559	20431
864.691	20488
864.823	20393
864.954	20377
865.086	20248
865.217	20256
865.349	20301
865.48	20233
865.612	20191
865.743	20339
865.875	20233
866.006	20286
866.137	20225
866.269	20244
866.4	20271
866.531	20229
866.662	20092
866.793	20138
866.924	20142
867.055	20119
867.186	20119
867.317	20202
867.448	20149
867.579	20202
867.71	20031
867.841	20122
867.972	20240
868.103	20092
868.233	20130
868.364	20221
868.495	20320
868.625	20343
868.756	20552
868.886	20389
869.017	20396
869.147	20621
869.278	20419
869.408	20351
869.539	20400
869.669	20552
869.799	20412
869.929	20522
870.06	20568
870.19	20708
870.32	20769
870.45	20746
870.58	20754
870.71	20826
870.84	20986
870.97	20845
871.1	20823
871.23	20944
871.36	20990
871.489	20971
871.619	21001
871.749	21017
871.879	20960
872.008	21241
872.138	20944
872.267	21001
872.397	20845
872.526	21005
872.656	20941
872.785	20880
872.915	21066
873.044	21142
873.173	21009
873.303	21116
873.432	20929
873.561	21112
873.69	21100
873.819	21116
873.948	21150
874.077	21017
874.206	21043
874.335	21055
874.464	21058
874.593	21348
874.722	21226
874.851	21416
874.979	21291
875.108	21507
875.237	21252
875.365	21192
875.494	21241
875.623	21325
875.751	21199
875.88	21435
876.008	21530
876.136	21416
876.265	21679
876.393	21766
876.521	21709
876.65	21698
876.778	21709
876.906	21583
877.034	21583
877.162	21644
877.29	21542
877.418	21625
877.546	21641
877.674	21572
877.802	21557
877.93	21675
878.058	21519
878.185	21576
878.313	21694
878.441	21545
878.568	21469
878.696	21561
878.824	21701
878.951	21743
879.079	21759
879.206	21903
879.333	21800
879.461	21591
879.588	21709
879.715	21785
879.842	21922
879.97	21766
880.097	21477
880.224	21583
880.351	21603
880.478	21561
880.605	21515
880.732	21504
880.859	21675
880.986	21519
881.112	21519
881.239	21450
881.366	21283
881.493	21203
881.619	21043
881.746	21104
881.872	21123
881.999	20948
882.125	20990
882.252	21032
882.378	21020
882.505	21108
882.631	20918
882.757	20796
882.883	20891
883.01	20735
883.136	20720
883.262	20659
883.388	20629
883.514	20826
883.64	20804
883.766	20811
883.892	20511
884.018	20552
884.143	20625
884.269	20746
884.395	20495
884.52	20469
884.646	20393
884.772	20339
884.897	20328
885.023	20442
885.148	20564
885.274	20526
885.399	20530
885.524	20404
885.65	20480
885.775	20488
885.9	20328
886.025	20537
886.15	20526
886.275	20355
886.4	20259
886.525	20396
886.65	20427
886.775	20362
886.9	20457
887.025	20609
887.149	20469
887.274	20240
887.399	20103
887.523	20206
887.648	20172
887.773	20161
887.897	20347
888.021	20122
888.146	20111
888.27	20259
888.395	20248
888.519	20240
888.643	20225
888.767	20381
888.891	20054
889.015	20115
889.139	20122
889.263	19986
889.387	20138
889.511	20153
889.635	20206
889.759	19959
889.883	19894
890.006	20005
890.13	20046
890.254	19974
890.377	19849
890.501	19822
890.624	19769
890.748	19841
890.871	19719
890.995	19689
891.118	19521
891.241	19616
891.364	19655
891.488	19639
891.611	19731
891.734	19601
891.857	19666
891.98	19677
892.103	19518
892.226	19647
892.349	19540
892.471	19422
892.594	19544
892.717	19594
892.839	19419
892.962	19514
893.085	19533
893.207	19499
893.33	19350
893.452	19308
893.575	19575
893.697	19510
893.819	19727
893.941	19715
894.064	19632
894.186	19434
894.308	19426
894.43	19499
894.552	19590
894.674	19548
894.796	19510
894.918	19571
895.04	19578
895.161	19582
895.283	19567
895.405	19499
895.526	19533
895.648	19441
895.769	19506
895.891	19468
896.012	19590
896.134	19586
896.255	19712
896.376	19445
896.498	19510
896.619	19594
896.74	19537
896.861	19605
896.982	19837
897.103	19925
897.224	19875
897.345	19814
897.466	19674
897.587	19712
897.708	19856
897.828	19769
897.949	19719
898.07	19544
898.19	19681
898.311	19898
898.431	19651
898.552	19715
898.672	19814
898.792	19963
898.913	19750
899.033	19674
899.153	19594
899.273	19369
899.393	19476
899.513	19586
899.633	19472
899.753	19643
899.873	19521
899.993	19556
900.113	19339
900.232	19506
900.352	19453
900.472	19377
900.591	19289
900.711	19388
900.83	19369
900.95	19438
901.069	19537
901.189	19221
901.308	18958
901.427	18882
901.546	18829
901.665	18954
901.784	18886
901.904	18760
902.023	18753
902.141	18574
902.26	18391
902.379	18563
902.498	18528
902.617	18342
902.735	18414
902.854	18483
902.973	18388
903.091	18136
903.21	18038
903.328	18125
903.446	18064
903.565	17961
903.683	17996
903.801	17687
903.919	17984
904.038	17908
904.156	17684
904.274	17813
904.392	17790
904.51	17668
904.627	17668
904.745	17783
904.863	17703
904.981	17474
905.098	17315
905.216	17307
905.334	17467
905.451	17307
905.569	17341
905.686	17395
905.803	17414
905.921	17200
906.038	17178
906.155	17117
906.272	17079
906.389	17098
906.506	16984
906.623	16957
906.74	16847
906.857	16809
906.974	16797
907.091	16980
907.208	16953
907.324	16972
907.441	16774
907.557	16656
907.674	16679
907.79	16607
907.907	16615
908.023	16668
908.139	16691
908.256	16561
908.372	16527
908.488	16443
908.604	16265
908.72	16356
908.836	16265
908.952	16287
909.068	16398
909.184	16489
909.3	16284
909.415	16325
909.531	16348
909.647	16097
909.762	16059
909.878	15953
909.993	16067
910.108	16040
910.224	16082
910.339	16006
910.454	15880
910.57	15888
910.685	15755
910.8	16036
910.915	16044
911.03	15819
911.145	15759
911.259	15610
911.374	15599
911.489	15538
911.604	15485
911.718	15313
911.833	15435
911.947	15291
912.062	15207
912.176	15393
912.291	15393
912.405	15420
912.519	15393
912.633	15591
912.748	15325
912.862	15355
912.976	15165
913.09	15089
913.204	15142
913.318	15195
913.431	15279
913.545	15260
913.659	15272
913.772	15184
913.886	15020
914	15009
914.113	15241
914.226	15104
914.34	15131
914.453	14876
914.566	15123
914.68	14925
914.793	14872
914.906	14686
915.019	14613
915.132	14632
915.245	14636
915.358	14720
915.47	14693
915.583	14621
915.696	14743
915.809	14731
915.921	14796
916.034	14590
916.146	14499
916.259	14579
916.371	14545
916.483	14545
916.595	14465
916.708	14495
916.82	14530
916.932	14374
917.044	14412
917.156	14423
917.268	14218
917.38	14332
917.491	14320
917.603	14271
917.715	14434
917.826	14313
917.938	14267
918.049	14100
918.161	14332
918.272	14415
918.384	14412
918.495	14244
918.606	14187
918.717	13978
918.828	14195
918.939	14046
919.05	13890
919.161	14092
919.272	13875
919.383	13963
919.494	14084
919.604	14252
919.715	14054
919.826	14039
919.936	14024
920.047	14153
920.157	14092
920.267	14282
920.378	14210
920.488	14046
920.598	14149
920.708	14313
920.818	14164
920.928	14225
921.038	14355
921.148	14332
921.258	14027
921.368	13856
921.477	13814
921.587	13776
921.697	13670
921.806	13784
921.916	13658
922.025	13521
922.134	13510
922.244	13415
922.353	13426
922.462	13278
922.571	13320
922.68	13126
922.789	13122
922.898	13137
923.007	12989
923.116	13091
923.224	13133
923.333	13088
923.442	13004
923.55	12962
923.659	12985
923.767	12924
923.876	12882
923.984	13008
924.092	12833
924.201	12837
924.309	12871
924.417	12783
924.525	12924
924.633	12810
924.741	13525
924.849	12502
924.956	12700
925.064	12574
925.172	12506
925.279	12547
925.387	12513
925.494	12555
925.602	12623
925.709	12521
925.816	12418
925.924	12456
926.031	12623
926.138	12563
926.245	12547
926.352	12353
926.459	12559
926.566	12597
926.673	12437
926.779	12296
926.886	12228
926.993	12171
927.099	12216
927.206	12095
927.312	12095
927.419	12140
927.525	12095
927.631	12133
927.737	12057
927.843	11939
927.95	11901
928.056	11939
928.162	11958
928.267	11996
928.373	12616
928.479	11973
928.585	11863
928.69	11969
928.796	11973
928.901	11771
929.007	11779
929.112	11813
929.218	11783
929.323	11695
929.428	11741
929.533	11828
929.638	11573
929.743	11619
929.848	11775
929.953	11741
930.058	11497
930.163	11356
930.267	11326
930.372	11467
930.477	11417
930.581	11661
930.685	11509
930.79	11292
930.894	11307
930.998	11250
931.103	11421
931.207	11052
931.311	10942
931.415	10831
931.519	10717
931.623	10603
