Data from test_V78500241_2214.txt Node
Date: Fri Mar 25 15:25:16 CST 2022
User: usil
Spectrometer: V785-0024
Trigger mode: 0
Integration Time (sec): 4.000000E-1
Scans to average: 1
Nonlinearity correction enabled: false
Boxcar width: 0
Storing dark spectrum: false
XAxis mode: Wavelengths
Number of Pixels in Spectrum: 1024
>>>>>Begin Spectral Data<<<<<
801.071	27831
801.214	27739
801.356	27561
801.499	27549
801.641	27340
801.783	27447
801.926	27374
802.068	27329
802.211	27351
802.353	27294
802.496	27093
802.638	26952
802.78	27104
802.923	26982
803.065	26998
803.208	27005
803.35	27036
803.492	27184
803.635	27192
803.777	27245
803.919	27264
804.061	27458
804.204	27268
804.346	27302
804.488	27150
804.63	27146
804.773	27051
804.915	27226
805.057	27336
805.199	27100
805.341	27306
805.483	27218
805.626	27462
805.768	27230
805.91	27329
806.052	27443
806.194	27127
806.336	27530
806.478	27386
806.62	27310
806.762	27583
806.904	27648
807.046	27865
807.188	27827
807.33	27804
807.472	27873
807.614	27778
807.756	27759
807.898	27496
808.04	27641
808.182	27545
808.324	27622
808.465	27633
808.607	27930
808.749	28032
808.891	28093
809.033	28059
809.174	28078
809.316	27964
809.458	27964
809.6	28013
809.741	28242
809.883	28128
810.025	28230
810.166	28265
810.308	28268
810.45	28261
810.591	28150
810.733	28006
810.875	27949
811.016	27899
811.158	27819
811.299	28032
811.441	28173
811.582	28082
811.724	28101
811.865	27968
812.007	27945
812.148	28002
812.29	28044
812.431	28154
812.573	28211
812.714	28432
812.855	28405
812.997	28527
813.138	28668
813.279	28668
813.421	28481
813.562	28508
813.703	28413
813.845	28234
813.986	28097
814.127	27793
814.268	27747
814.41	27652
814.551	27682
814.692	27838
814.833	27618
814.974	27625
815.115	27576
815.256	27580
815.397	27641
815.539	27397
815.68	27553
815.821	27469
815.962	27526
816.103	27458
816.244	27447
816.385	27237
816.526	27321
816.666	27138
816.807	26910
816.948	27066
817.089	27051
817.23	26982
817.371	26956
817.512	27001
817.653	27032
817.793	27047
817.934	26948
818.075	26826
818.216	26994
818.356	26849
818.497	26883
818.638	26663
818.778	26727
818.919	26682
819.06	26773
819.2	26887
819.341	26956
819.481	26899
819.622	27100
819.762	27374
819.903	27157
820.043	27211
820.184	27123
820.324	27081
820.465	27077
820.605	27085
820.746	27039
820.886	26891
821.026	27043
821.167	26952
821.307	27089
821.447	26982
821.588	26857
821.728	26823
821.868	26724
822.008	26461
822.149	26560
822.289	26393
822.429	26199
822.569	26062
822.709	26062
822.849	25959
822.99	25963
823.13	25849
823.27	25830
823.41	25769
823.55	25613
823.69	25803
823.83	25761
823.97	25715
824.11	25559
824.25	25495
824.389	25556
824.529	25616
824.669	25571
824.809	25658
824.949	25780
825.089	25616
825.228	25537
825.368	25403
825.508	25324
825.648	25457
825.787	25453
825.927	25483
826.067	25422
826.206	25479
826.346	25396
826.485	25358
826.625	25362
826.765	25472
826.904	25419
827.044	25190
827.183	25358
827.323	25152
827.462	25145
827.601	25103
827.741	25126
827.88	25137
828.02	24905
828.159	25000
828.298	25156
828.437	25126
828.577	25110
828.716	25152
828.855	25061
828.994	24875
829.134	24886
829.273	24901
829.412	24795
829.551	24707
829.69	24814
829.829	24810
829.968	24947
830.107	24878
830.246	24859
830.385	24806
830.524	24745
830.663	24559
830.802	24593
830.941	24433
831.08	24475
831.219	24570
831.357	24422
831.496	24779
831.635	24486
831.774	24555
831.913	24323
832.051	24296
832.19	24304
832.329	24201
832.467	24083
832.606	24083
832.744	23999
832.883	23965
833.022	24114
833.16	24129
833.299	24247
833.437	24095
833.576	24213
833.714	24213
833.852	24079
833.991	24194
834.129	24224
834.267	24319
834.406	24232
834.544	24186
834.682	24148
834.821	24098
834.959	24262
835.097	24167
835.235	24068
835.373	24129
835.511	24197
835.65	23954
835.788	24041
835.926	23939
836.064	23939
836.202	23813
836.34	23969
836.478	24140
836.615	23961
836.753	24022
836.891	23980
837.029	24117
837.167	23946
837.305	23923
837.443	23836
837.58	23847
837.718	23805
837.856	23878
837.993	23733
838.131	23855
838.269	23653
838.406	23649
838.544	23600
838.681	23482
838.819	23406
838.956	23315
839.094	23311
839.231	23326
839.369	23417
839.506	23630
839.643	23558
839.781	23223
839.918	23250
840.055	23303
840.193	23223
840.33	23311
840.467	23109
840.604	23303
840.742	23528
840.879	23113
841.016	23193
841.153	23029
841.29	23189
841.427	23227
841.564	23292
841.701	23094
841.838	23216
841.975	23006
842.112	23014
842.249	22976
842.385	23025
842.522	23170
842.659	22881
842.796	23010
842.933	23060
843.069	22854
843.206	22763
843.343	23083
843.479	23071
843.616	23033
843.752	22653
843.889	22831
844.025	22957
844.162	22588
844.298	22763
844.435	22729
844.571	22641
844.708	22835
844.844	22942
844.98	22900
845.117	22915
845.253	22675
845.389	22599
845.525	22687
845.661	22672
845.798	22409
845.934	22546
846.07	22291
846.206	22504
846.342	22527
846.478	22481
846.614	22284
846.75	22158
846.886	22105
847.022	22249
847.158	22196
847.294	22257
847.429	22287
847.565	22158
847.701	22432
847.837	21915
847.972	21903
848.108	22017
848.244	21972
848.379	21842
848.515	21515
848.65	21762
848.786	21736
848.921	21778
849.057	21926
849.192	21892
849.328	21781
849.463	21808
849.598	21694
849.734	21774
849.869	21580
850.004	21583
850.14	21580
850.275	21564
850.41	21534
850.545	21572
850.68	21507
850.815	21610
850.95	21500
851.085	21743
851.22	21720
851.355	21591
851.49	21428
851.625	21526
851.76	21462
851.895	21507
852.03	21428
852.165	21542
852.299	21603
852.434	21561
852.569	21561
852.703	21580
852.838	21580
852.973	21637
853.107	21675
853.242	21614
853.376	21405
853.511	21344
853.645	21336
853.78	21496
853.914	21405
854.048	21439
854.183	21363
854.317	21344
854.451	21496
854.585	21412
854.72	21428
854.854	21447
854.988	21325
855.122	21450
855.256	21302
855.39	21363
855.524	21447
855.658	21447
855.792	21420
855.926	21431
856.06	21355
856.194	21485
856.327	21386
856.461	21291
856.595	21214
856.729	21321
856.862	21443
856.996	21367
857.13	21359
857.263	21511
857.397	21447
857.53	21439
857.664	21370
857.797	21412
857.931	21405
858.064	21329
858.197	21348
858.331	21310
858.464	21233
858.597	21195
858.731	21401
858.864	21302
858.997	21340
859.13	21363
859.263	21378
859.396	21466
859.529	21370
859.662	21317
859.795	21363
859.928	21386
860.061	21504
860.194	21595
860.327	21401
860.46	21294
860.592	21443
860.725	21473
860.858	21515
860.99	21420
861.123	21241
861.256	21344
861.388	21348
861.521	22044
861.653	21184
861.786	21112
861.918	21150
862.05	21188
862.183	21272
862.315	21226
862.447	21275
862.58	21348
862.712	21154
862.844	21085
862.976	21070
863.108	21112
863.24	21401
863.372	21013
863.504	21096
863.636	20990
863.768	21055
863.9	21077
864.032	20994
864.164	21116
864.296	21112
864.428	21199
864.559	21169
864.691	21108
864.823	21020
864.954	21119
865.086	21013
865.217	21150
865.349	20895
865.48	20838
865.612	20960
865.743	21066
865.875	21001
866.006	20925
866.137	21032
866.269	20994
866.4	20929
866.531	20944
866.662	20921
866.793	20872
866.924	20872
867.055	20876
867.186	20948
867.317	20872
867.448	20788
867.579	20864
867.71	20754
867.841	20853
867.972	20982
868.103	20823
868.233	20864
868.364	20937
868.495	20933
868.625	20998
868.756	21233
868.886	21055
869.017	21245
869.147	21241
869.278	21249
869.408	21199
869.539	21070
869.669	21325
869.799	21222
869.929	21291
870.06	21169
870.19	21420
870.32	21485
870.45	21389
870.58	21576
870.71	21644
870.84	21515
870.97	21549
871.1	21553
871.23	21709
871.36	21797
871.489	21709
871.619	21644
871.749	21591
871.879	21842
872.008	21857
872.138	21724
872.267	21762
872.397	21637
872.526	21542
872.656	21610
872.785	21633
872.915	21785
873.044	21793
873.173	21789
873.303	21785
873.432	21831
873.561	21941
873.69	21728
873.819	21850
873.948	21915
874.077	21838
874.206	21736
874.335	21701
874.464	21911
874.593	21956
874.722	21922
874.851	22029
874.979	21949
875.108	22017
875.237	21987
875.365	21930
875.494	21972
875.623	21994
875.751	21930
875.88	22044
876.008	22135
876.136	22219
876.265	22493
876.393	22375
876.521	22379
876.65	22405
876.778	22421
876.906	22329
877.034	22375
877.162	22238
877.29	22169
877.418	22417
877.546	22230
877.674	22272
877.802	22322
877.93	22424
878.058	22280
878.185	22223
878.313	22204
878.441	22204
878.568	22166
878.696	22226
878.824	22249
878.951	22363
879.079	22500
879.206	22637
879.333	22481
879.461	22386
879.588	22344
879.715	22421
879.842	22584
879.97	22310
880.097	22246
880.224	22082
880.351	22150
880.478	22181
880.605	22059
880.732	22143
880.859	22470
880.986	22215
881.112	22105
881.239	22021
881.366	21949
881.493	21804
881.619	21713
881.746	21827
881.872	21701
881.999	21568
882.125	21690
882.252	21705
882.378	21667
882.505	21827
882.631	21504
882.757	21450
882.883	21538
883.01	21355
883.136	21511
883.262	21310
883.388	21260
883.514	21351
883.64	21477
883.766	21264
883.892	21211
884.018	21211
884.143	21431
884.269	21416
884.395	21188
884.52	21020
884.646	21055
884.772	21070
884.897	20994
885.023	21127
885.148	21222
885.274	21230
885.399	21081
885.524	21077
885.65	21036
885.775	21096
885.9	21081
886.025	21119
886.15	21100
886.275	20880
886.4	21024
886.525	21013
886.65	21005
886.775	20979
886.9	21077
887.025	21336
887.149	21096
887.274	20891
887.399	20815
887.523	20838
887.648	20758
887.773	20682
887.897	20868
888.021	20823
888.146	20861
888.27	20842
888.395	20929
888.519	20826
888.643	20883
888.767	20921
888.891	20754
889.015	20526
889.139	20606
889.263	20590
889.387	20765
889.511	20762
889.635	20705
889.759	20659
889.883	20648
890.006	20613
890.13	20697
890.254	20533
890.377	20522
890.501	20545
890.624	20362
890.748	20404
890.871	20248
890.995	20233
891.118	20134
891.241	20176
891.364	20206
891.488	20214
891.611	20206
891.734	20161
891.857	20172
891.98	20225
892.103	20237
892.226	20218
892.349	20088
892.471	19890
892.594	20122
892.717	20191
892.839	20100
892.962	20111
893.085	20153
893.207	20031
893.33	19978
893.452	20073
893.575	20050
893.697	20012
893.819	20282
893.941	20233
894.064	20138
894.186	20088
894.308	19993
894.43	20210
894.552	20305
894.674	20183
894.796	20103
894.918	20031
895.04	19955
895.161	20202
895.283	20031
895.405	20088
895.526	20142
895.648	20119
895.769	20180
895.891	20058
896.012	20130
896.134	20081
896.255	20103
896.376	20024
896.498	19986
896.619	20183
896.74	20088
896.861	20138
896.982	20457
897.103	20552
897.224	20317
897.345	20298
897.466	20271
897.587	20271
897.708	20400
897.828	20347
897.949	20301
898.07	20065
898.19	20206
898.311	20351
898.431	20218
898.552	20263
898.672	20305
898.792	20389
898.913	20438
899.033	20263
899.153	20092
899.273	20035
899.393	20046
899.513	20081
899.633	19917
899.753	20134
899.873	20035
899.993	20092
900.113	19993
900.232	19982
900.352	19890
900.472	19856
900.591	19860
900.711	19936
900.83	19818
900.95	19940
901.069	19833
901.189	19670
901.308	19438
901.427	19407
901.546	19426
901.665	19445
901.784	19445
901.904	19396
902.023	19179
902.141	19000
902.26	18947
902.379	19034
902.498	19004
902.617	18913
902.735	19012
902.854	18909
902.973	18897
903.091	18711
903.21	18646
903.328	18661
903.446	18559
903.565	18486
903.683	18509
903.801	18330
903.919	18388
904.038	18330
904.156	18251
904.274	18342
904.392	18140
904.51	18163
904.627	18117
904.745	18289
904.863	18144
904.981	17999
905.098	17821
905.216	17912
905.334	17920
905.451	17946
905.569	17745
905.686	17813
905.803	17882
905.921	17661
906.038	17627
906.155	17646
906.272	17608
906.389	17573
906.506	17356
906.623	17387
906.74	17436
906.857	17284
906.974	17269
907.091	17372
907.208	17551
907.324	17410
907.441	17250
907.557	17159
907.674	17102
907.79	16999
907.907	17166
908.023	17185
908.139	17075
908.256	17105
908.372	16953
908.488	16987
908.604	16877
908.72	16816
908.836	16854
908.952	16873
909.068	16786
909.184	17025
909.3	16889
909.415	16904
909.531	16854
909.647	16607
909.762	16584
909.878	16512
909.993	16558
910.108	16489
910.224	16402
910.339	16497
910.454	16417
910.57	16394
910.685	16234
910.8	16653
910.915	16481
911.03	16348
911.145	16188
911.259	16169
911.374	16090
911.489	16036
911.604	16006
911.718	15838
911.833	15915
911.947	15842
912.062	15743
912.176	15838
912.291	15857
912.405	15808
912.519	15998
912.633	15956
912.748	15857
912.862	15781
912.976	15713
913.09	15618
913.204	15637
913.318	15690
913.431	15766
913.545	15759
913.659	15736
913.772	15720
913.886	15614
914	15519
914.113	15549
914.226	15526
914.34	15538
914.453	15443
914.566	15507
914.68	15275
914.793	15222
914.906	15203
915.019	15039
915.132	15055
915.245	15169
915.358	15195
915.47	15047
915.583	14990
915.696	15017
915.809	15188
915.921	15310
916.034	15070
916.146	15028
916.259	15070
916.371	15032
916.483	14883
916.595	14933
916.708	14921
916.82	14952
916.932	14887
917.044	14830
917.156	14765
917.268	14670
917.38	14735
917.491	14743
917.603	14792
917.715	14857
917.826	14845
917.938	14716
918.049	14590
918.161	14686
918.272	14807
918.384	14800
918.495	14750
918.606	14560
918.717	14465
918.828	14545
918.939	14522
919.05	14457
919.161	14514
919.272	14259
919.383	14381
919.494	14549
919.604	14682
919.715	14526
919.826	14377
919.936	14419
920.047	14541
920.157	14488
920.267	14667
920.378	14503
920.488	14358
920.598	14629
920.708	14762
920.818	14655
920.928	14526
921.038	14792
921.148	14701
921.258	14450
921.368	14313
921.477	14210
921.587	14305
921.697	14084
921.806	14263
921.916	14058
922.025	13871
922.134	13864
922.244	13822
922.353	13849
922.462	13742
922.571	13601
922.68	13495
922.789	13407
922.898	13453
923.007	13502
923.116	13388
923.224	13544
923.333	13426
923.442	13297
923.55	13358
923.659	13346
923.767	13362
923.876	13316
923.984	13308
924.092	13187
924.201	13190
924.309	13362
924.417	13232
924.525	13122
924.633	13190
924.741	13894
924.849	13000
924.956	13069
925.064	12970
925.172	12905
925.279	12840
925.387	12947
925.494	12939
925.602	13012
925.709	12966
925.816	12764
925.924	12840
926.031	12973
926.138	12882
926.245	12920
926.352	12875
926.459	12897
926.566	12943
926.673	12745
926.779	12741
926.886	12642
926.993	12513
927.099	12483
927.206	12445
927.312	12456
927.419	12471
927.525	12506
927.631	12544
927.737	12353
927.843	12327
927.95	12224
928.056	12292
928.162	12311
928.267	12327
928.373	12943
928.479	12270
928.585	12034
928.69	12235
928.796	12216
928.901	12110
929.007	12034
929.112	12235
929.218	12011
929.323	12053
929.428	12015
929.533	12117
929.638	11961
929.743	11950
929.848	11942
929.953	11916
930.058	11904
930.163	11668
930.267	11733
930.372	11893
930.477	11649
930.581	11939
930.685	11760
930.79	11611
930.894	11551
930.998	11558
931.103	11748
931.207	11372
931.311	11311
931.415	11170
931.519	11010
931.623	10896
