Data from test_V78500241_3381.txt Node
Date: Fri Mar 25 15:33:24 CST 2022
User: usil
Spectrometer: V785-0024
Trigger mode: 0
Integration Time (sec): 4.000000E-1
Scans to average: 1
Nonlinearity correction enabled: false
Boxcar width: 0
Storing dark spectrum: false
XAxis mode: Wavelengths
Number of Pixels in Spectrum: 1024
>>>>>Begin Spectral Data<<<<<
801.071	27359
801.214	27241
801.356	27036
801.499	26838
801.641	26762
801.783	26705
801.926	26891
802.068	26861
802.211	26891
802.353	26686
802.496	26583
802.638	26469
802.78	26495
802.923	26347
803.065	26362
803.208	26511
803.35	26431
803.492	26731
803.635	26648
803.777	26499
803.919	26739
804.061	26929
804.204	26701
804.346	26613
804.488	26473
804.63	26590
804.773	26503
804.915	26640
805.057	26777
805.199	26636
805.341	26648
805.483	26853
805.626	26743
805.768	26701
805.91	26651
806.052	26823
806.194	26556
806.336	26960
806.478	26632
806.62	26602
806.762	26872
806.904	26891
807.046	27321
807.188	27001
807.33	27104
807.472	27123
807.614	27123
807.756	27146
807.898	26937
808.04	26940
808.182	26891
808.324	27001
808.465	27058
808.607	27230
808.749	27283
808.891	27367
809.033	27462
809.174	27427
809.316	27382
809.458	27218
809.6	27294
809.741	27431
809.883	27416
810.025	27466
810.166	27534
810.308	27679
810.45	27576
810.591	27367
810.733	27370
810.875	27378
811.016	27218
811.158	27378
811.299	27287
811.441	27454
811.582	27576
811.724	27283
811.865	27287
812.007	27351
812.148	27241
812.29	27306
812.431	27462
812.573	27652
812.714	27732
812.855	27739
812.997	27964
813.138	28025
813.279	27911
813.421	27637
813.562	27675
813.703	27705
813.845	27523
813.986	27287
814.127	26982
814.268	27036
814.41	27070
814.551	26891
814.692	27157
814.833	27058
814.974	26861
815.115	26963
815.256	26792
815.397	26746
815.539	26727
815.68	26800
815.821	26648
815.962	26849
816.103	26765
816.244	26648
816.385	26564
816.526	26617
816.666	26347
816.807	26233
816.948	26317
817.089	26358
817.23	26275
817.371	26256
817.512	26172
817.653	26256
817.793	26191
817.934	26305
818.075	26298
818.216	26142
818.356	26218
818.497	26096
818.638	26012
818.778	26202
818.919	26008
819.06	26001
819.2	26153
819.341	26172
819.481	26267
819.622	26503
819.762	26564
819.903	26514
820.043	26377
820.184	26263
820.324	26339
820.465	26514
820.605	26336
820.746	26252
820.886	26138
821.026	26240
821.167	26183
821.307	26195
821.447	26164
821.588	26149
821.728	26062
821.868	25837
822.008	25708
822.149	25700
822.289	25814
822.429	25487
822.569	25293
822.709	25293
822.849	25282
822.99	25274
823.13	25141
823.27	25095
823.41	24977
823.55	24977
823.69	25038
823.83	25015
823.97	24958
824.11	24734
824.25	24791
824.389	24806
824.529	25012
824.669	24871
824.809	24901
824.949	25000
825.089	24867
825.228	24882
825.368	24764
825.508	24673
825.648	24719
825.787	24749
825.927	24760
826.067	24502
826.206	24684
826.346	24779
826.485	24719
826.625	24593
826.765	24719
826.904	24722
827.044	24418
827.183	24494
827.323	24399
827.462	24380
827.601	24536
827.741	24376
827.88	24513
828.02	24270
828.159	24334
828.298	24574
828.437	24555
828.577	24448
828.716	24369
828.855	24380
828.994	24129
829.134	23965
829.273	24205
829.412	24057
829.551	23965
829.69	24114
829.829	24148
829.968	24167
830.107	24133
830.246	24194
830.385	24125
830.524	23984
830.663	23992
830.802	23908
830.941	23668
831.08	23805
831.219	23965
831.357	23874
831.496	23920
831.635	23745
831.774	23657
831.913	23642
832.051	23611
832.19	23554
832.329	23653
832.467	23322
832.606	23315
832.744	23311
832.883	23353
833.022	23417
833.16	23417
833.299	23376
833.437	23493
833.576	23414
833.714	23589
833.852	23501
833.991	23611
834.129	23547
834.267	23539
834.406	23482
834.544	23554
834.682	23520
834.821	23471
834.959	23691
835.097	23528
835.235	23497
835.373	23535
835.511	23505
835.65	23429
835.788	23349
835.926	23254
836.064	23204
836.202	23220
836.34	23570
836.478	23402
836.615	23376
836.753	23360
836.891	23379
837.029	23421
837.167	23368
837.305	23212
837.443	23113
837.58	23250
837.718	23166
837.856	23212
837.993	23102
838.131	23246
838.269	23162
838.406	23246
838.544	23071
838.681	22866
838.819	22812
838.956	22721
839.094	22603
839.231	22812
839.369	22885
839.506	23098
839.643	22850
839.781	22725
839.918	22615
840.055	22588
840.193	22748
840.33	22710
840.467	22698
840.604	22801
840.742	22854
840.879	22535
841.016	22630
841.153	22443
841.29	22630
841.427	22603
841.564	22569
841.701	22596
841.838	22611
841.975	22550
842.112	22672
842.249	22573
842.385	22379
842.522	22736
842.659	22443
842.796	22352
842.933	22443
843.069	22348
843.206	22280
843.343	22424
843.479	22226
843.616	22421
843.752	22223
843.889	22154
844.025	22455
844.162	22059
844.298	22276
844.435	22036
844.571	22044
844.708	22124
844.844	22272
844.98	22253
845.117	22272
845.253	22196
845.389	21983
845.525	22044
845.661	21911
845.798	21960
845.934	21804
846.07	21873
846.206	21937
846.342	21998
846.478	21778
846.614	21713
846.75	21580
846.886	21595
847.022	21614
847.158	21671
847.294	21576
847.429	21728
847.565	21671
847.701	21922
847.837	21306
847.972	21283
848.108	21496
848.244	21298
848.379	21226
848.515	21245
848.65	21272
848.786	21184
848.921	21165
849.057	21370
849.192	21123
849.328	21378
849.463	21154
849.598	21169
849.734	21085
849.869	21116
850.004	20857
850.14	21013
850.275	20948
850.41	20952
850.545	20876
850.68	21077
850.815	21039
850.95	21001
851.085	21089
851.22	20982
851.355	20990
851.49	20880
851.625	20963
851.76	20918
851.895	21005
852.03	20777
852.165	20979
852.299	20960
852.434	21093
852.569	21043
852.703	20910
852.838	21043
852.973	21043
853.107	21039
853.242	20883
853.376	20861
853.511	20545
853.645	20663
853.78	20876
853.914	20819
854.048	20872
854.183	20800
854.317	20849
854.451	21009
854.585	20826
854.72	20807
854.854	20804
854.988	20689
855.122	20762
855.256	20594
855.39	20781
855.524	20830
855.658	20750
855.792	20800
855.926	20796
856.06	20834
856.194	20838
856.327	20811
856.461	20743
856.595	20590
856.729	20651
856.862	20960
856.996	20819
857.13	20880
857.263	20937
857.397	20902
857.53	20823
857.664	20815
857.797	20872
857.931	20815
858.064	20781
858.197	20777
858.331	20712
858.464	20910
858.597	20708
858.731	20686
858.864	20743
858.997	20773
859.13	20705
859.263	20826
859.396	20849
859.529	20716
859.662	20678
859.795	20773
859.928	20708
860.061	20899
860.194	21009
860.327	20899
860.46	20967
860.592	20895
860.725	20925
860.858	20902
860.99	20777
861.123	20667
861.256	20826
861.388	20842
861.521	21477
861.653	20571
861.786	20705
861.918	20621
862.05	20670
862.183	20682
862.315	20708
862.447	20834
862.58	20765
862.712	20613
862.844	20518
862.976	20648
863.108	20549
863.24	20868
863.372	20427
863.504	20659
863.636	20530
863.768	20590
863.9	20594
864.032	20438
864.164	20598
864.296	20514
864.428	20541
864.559	20545
864.691	20499
864.823	20518
864.954	20484
865.086	20541
865.217	20442
865.349	20400
865.48	20400
865.612	20351
865.743	20545
865.875	20324
866.006	20404
866.137	20332
866.269	20423
866.4	20575
866.531	20351
866.662	20343
866.793	20252
866.924	20362
867.055	20415
867.186	20336
867.317	20400
867.448	20256
867.579	20324
867.71	20134
867.841	20191
867.972	20377
868.103	20358
868.233	20389
868.364	20286
868.495	20442
868.625	20609
868.756	20686
868.886	20507
869.017	20537
869.147	20674
869.278	20762
869.408	20621
869.539	20465
869.669	20659
869.799	20701
869.929	20754
870.06	20727
870.19	21039
870.32	20990
870.45	20971
870.58	21058
870.71	20971
870.84	21055
870.97	21017
871.1	20990
871.23	21226
871.36	21325
871.489	21093
871.619	21241
871.749	21203
871.879	21279
872.008	21325
872.138	21116
872.267	21249
872.397	20982
872.526	21135
872.656	20990
872.785	21001
872.915	21245
873.044	21291
873.173	21275
873.303	21321
873.432	21355
873.561	21329
873.69	21222
873.819	21264
873.948	21230
874.077	21237
874.206	21291
874.335	21154
874.464	21416
874.593	21458
874.722	21378
874.851	21545
874.979	21500
875.108	21496
875.237	21447
875.365	21401
875.494	21386
875.623	21530
875.751	21435
875.88	21515
876.008	21682
876.136	21568
876.265	21835
876.393	22097
876.521	22029
876.65	21899
876.778	21926
876.906	21842
877.034	21762
877.162	21884
877.29	21739
877.418	21934
877.546	21892
877.674	21785
877.802	21835
877.93	21934
878.058	21747
878.185	21686
878.313	21785
878.441	21781
878.568	21705
878.696	21682
878.824	21873
878.951	21789
879.079	22040
879.206	22101
879.333	21827
879.461	21873
879.588	21934
879.715	22010
879.842	22116
879.97	21865
880.097	21713
880.224	21618
880.351	21705
880.478	21739
880.605	21576
880.732	21576
880.859	22017
880.986	21652
881.112	21568
881.239	21564
881.366	21340
881.493	21176
881.619	21157
881.746	21214
881.872	21237
881.999	21104
882.125	21127
882.252	21169
882.378	21291
882.505	21329
882.631	21020
882.757	21001
882.883	21058
883.01	21017
883.136	20746
883.262	20849
883.388	20758
883.514	20941
883.64	20906
883.766	20842
883.892	20792
884.018	20659
884.143	20891
884.269	20948
884.395	20758
884.52	20590
884.646	20587
884.772	20473
884.897	20549
885.023	20499
885.148	20503
885.274	20663
885.399	20724
885.524	20575
885.65	20670
885.775	20545
885.9	20583
886.025	20689
886.15	20678
886.275	20545
886.4	20511
886.525	20503
886.65	20419
886.775	20419
886.9	20716
887.025	20777
887.149	20526
887.274	20370
887.399	20469
887.523	20412
887.648	20256
887.773	20298
887.897	20427
888.021	20294
888.146	20256
888.27	20511
888.395	20446
888.519	20271
888.643	20286
888.767	20408
888.891	20298
889.015	20142
889.139	20256
889.263	20088
889.387	20290
889.511	20385
889.635	20275
889.759	20195
889.883	20088
890.006	20153
890.13	20336
890.254	20122
890.377	20088
890.501	19875
890.624	19936
890.748	19898
890.871	19909
890.995	19719
891.118	19605
891.241	19765
891.364	19750
891.488	19807
891.611	19708
891.734	19674
891.857	19837
891.98	19765
892.103	19734
892.226	19837
892.349	19639
892.471	19567
892.594	19632
892.717	19582
892.839	19693
892.962	19731
893.085	19791
893.207	19578
893.33	19597
893.452	19453
893.575	19651
893.697	19578
893.819	19883
893.941	19719
894.064	19761
894.186	19616
894.308	19548
894.43	19677
894.552	19868
894.674	19841
894.796	19586
894.918	19620
895.04	19655
895.161	19689
895.283	19761
895.405	19567
895.526	19685
895.648	19495
895.769	19647
895.891	19757
896.012	19715
896.134	19655
896.255	19769
896.376	19655
896.498	19666
896.619	19639
896.74	19639
896.861	19613
896.982	20001
897.103	20054
897.224	19970
897.345	19921
897.466	19871
897.587	19906
897.708	19917
897.828	19909
897.949	19833
898.07	19734
898.19	19803
898.311	19932
898.431	19898
898.552	19913
898.672	20050
898.792	19951
898.913	19921
899.033	19776
899.153	19727
899.273	19643
899.393	19632
899.513	19594
899.633	19609
899.753	19765
899.873	19647
899.993	19651
900.113	19506
900.232	19689
900.352	19544
900.472	19441
900.591	19381
900.711	19464
900.83	19407
900.95	19540
901.069	19449
901.189	19274
901.308	19080
901.427	18985
901.546	19065
901.665	19000
901.784	19110
901.904	18840
902.023	18863
902.141	18604
902.26	18570
902.379	18620
902.498	18578
902.617	18483
902.735	18563
902.854	18513
902.973	18361
903.091	18201
903.21	18228
903.328	18216
903.446	18076
903.565	18072
903.683	18007
903.801	17863
903.919	17920
904.038	17973
904.156	17714
904.274	17961
904.392	17760
904.51	17737
904.627	17718
904.745	17699
904.863	17786
904.981	17592
905.098	17429
905.216	17516
905.334	17493
905.451	17501
905.569	17455
905.686	17463
905.803	17376
905.921	17292
906.038	17379
906.155	17220
906.272	17193
906.389	17166
906.506	17006
906.623	17098
906.74	17010
906.857	16908
906.974	16843
907.091	17155
907.208	17124
907.324	17083
907.441	16869
907.557	16672
907.674	16790
907.79	16527
907.907	16637
908.023	16767
908.139	16713
908.256	16637
908.372	16531
908.488	16508
908.604	16580
908.72	16356
908.836	16478
908.952	16325
909.068	16413
909.184	16432
909.3	16436
909.415	16432
909.531	16390
909.647	16200
909.762	16166
909.878	16055
909.993	16124
910.108	16059
910.224	15960
910.339	16226
910.454	16044
910.57	15979
910.685	15953
910.8	16188
910.915	16169
911.03	15949
911.145	15770
911.259	15686
911.374	15804
911.489	15759
911.604	15686
911.718	15458
911.833	15515
911.947	15504
912.062	15351
912.176	15435
912.291	15473
912.405	15477
912.519	15629
912.633	15648
912.748	15587
912.862	15477
912.976	15393
913.09	15291
913.204	15291
913.318	15268
913.431	15408
913.545	15416
913.659	15428
913.772	15249
913.886	15268
914	15165
914.113	15203
914.226	15188
914.34	15207
914.453	15074
914.566	15275
914.68	15058
914.793	14990
914.906	14800
915.019	14758
915.132	14590
915.245	14720
915.358	14746
915.47	14724
915.583	14819
915.696	14773
915.809	14838
915.921	14811
916.034	14716
916.146	14651
916.259	14640
916.371	14708
916.483	14674
916.595	14552
916.708	14568
916.82	14621
916.932	14457
917.044	14549
917.156	14514
917.268	14408
917.38	14408
917.491	14298
917.603	14423
917.715	14427
917.826	14431
917.938	14267
918.049	14271
918.161	14423
918.272	14537
918.384	14503
918.495	14381
918.606	14214
918.717	14126
918.828	14157
918.939	14278
919.05	13989
919.161	14225
919.272	13902
919.383	14012
919.494	14259
919.604	14286
919.715	14024
919.826	14206
919.936	14161
920.047	14081
920.157	14187
920.267	14309
920.378	14123
920.488	14187
920.598	14355
920.708	14503
920.818	14214
920.928	14263
921.038	14473
921.148	14389
921.258	14119
921.368	14039
921.477	13936
921.587	13860
921.697	13772
921.806	13940
921.916	13753
922.025	13616
922.134	13510
922.244	13571
922.353	13464
922.462	13335
922.571	13350
922.68	13289
922.789	13244
922.898	13206
923.007	13179
923.116	13247
923.224	13118
923.333	13206
923.442	13053
923.55	12970
923.659	13129
923.767	13088
923.876	12970
923.984	13084
924.092	12951
924.201	13019
924.309	12932
924.417	12993
924.525	12909
924.633	12840
924.741	13833
924.849	12635
924.956	12810
925.064	12646
925.172	12525
925.279	12582
925.387	12654
925.494	12677
925.602	12703
925.709	12627
925.816	12566
925.924	12616
926.031	12608
926.138	12574
926.245	12540
926.352	12521
926.459	12623
926.566	12677
926.673	12433
926.779	12391
926.886	12357
926.993	12232
927.099	12155
927.206	12167
927.312	12167
927.419	12197
927.525	12258
927.631	12228
927.737	12102
927.843	12022
927.95	11961
928.056	11988
928.162	12026
928.267	12038
928.373	12555
928.479	12079
928.585	11859
928.69	12060
928.796	12045
928.901	11920
929.007	11786
929.112	11942
929.218	11939
929.323	11748
929.428	11779
929.533	11870
929.638	11684
929.743	11729
929.848	11771
929.953	11722
930.058	11627
930.163	11410
930.267	11448
930.372	11649
930.477	11391
930.581	11604
930.685	11512
930.79	11353
930.894	11372
930.998	11337
931.103	11452
931.207	11105
931.311	11045
931.415	10980
931.519	10790
931.623	10721
