Data from test_V78500241_248.txt Node
Date: Fri Mar 25 15:11:35 CST 2022
User: usil
Spectrometer: V785-0024
Trigger mode: 0
Integration Time (sec): 4.000000E-1
Scans to average: 1
Nonlinearity correction enabled: false
Boxcar width: 0
Storing dark spectrum: false
XAxis mode: Wavelengths
Number of Pixels in Spectrum: 1024
>>>>>Begin Spectral Data<<<<<
801.071	28204
801.214	28234
801.356	28109
801.499	27857
801.641	27838
801.783	27812
801.926	27937
802.068	27785
802.211	27660
802.353	27667
802.496	27576
802.638	27447
802.78	27344
802.923	27450
803.065	27359
803.208	27283
803.35	27469
803.492	27519
803.635	27424
803.777	27458
803.919	27629
804.061	27869
804.204	27534
804.346	27405
804.488	27488
804.63	27469
804.773	27332
804.915	27603
805.057	27583
805.199	27439
805.341	27466
805.483	27637
805.626	27564
805.768	27545
805.91	27583
806.052	27679
806.194	27622
806.336	27953
806.478	27804
806.62	27720
806.762	27656
806.904	27876
807.046	28131
807.188	28128
807.33	28070
807.472	28181
807.614	27956
807.756	27991
807.898	27831
808.04	27964
808.182	27812
808.324	27899
808.465	27850
808.607	27880
808.749	28196
808.891	28257
809.033	28333
809.174	28207
809.316	28204
809.458	28185
809.6	28131
809.741	28257
809.883	28306
810.025	28596
810.166	28428
810.308	28508
810.45	28523
810.591	28291
810.733	28215
810.875	28215
811.016	28029
811.158	28017
811.299	28325
811.441	28310
811.582	28440
811.724	28200
811.865	28230
812.007	28246
812.148	28192
812.29	28246
812.431	28280
812.573	28417
812.714	28584
812.855	28733
812.997	28748
813.138	28896
813.279	28721
813.421	28721
813.562	28748
813.703	28565
813.845	28417
813.986	28200
814.127	27911
814.268	27808
814.41	27869
814.551	27762
814.692	27861
814.833	27736
814.974	27800
815.115	27709
815.256	27713
815.397	27595
815.539	27656
815.68	27671
815.821	27473
815.962	27652
816.103	27477
816.244	27367
816.385	27431
816.526	27279
816.666	27321
816.807	27154
816.948	27184
817.089	27188
817.23	27104
817.371	27009
817.512	27093
817.653	26944
817.793	27047
817.934	26979
818.075	27039
818.216	26971
818.356	26906
818.497	26952
818.638	26788
818.778	26712
818.919	26750
819.06	26883
819.2	26830
819.341	27001
819.481	26948
819.622	27116
819.762	27275
819.903	27222
820.043	27226
820.184	27138
820.324	27188
820.465	27332
820.605	27077
820.746	27001
820.886	26979
821.026	27081
821.167	27104
821.307	27081
821.447	26975
821.588	26872
821.728	26625
821.868	26556
822.008	26514
822.149	26389
822.289	26423
822.429	26199
822.569	26046
822.709	26058
822.849	26001
822.99	25944
823.13	25871
823.27	25875
823.41	25677
823.55	25658
823.69	25776
823.83	25639
823.97	25742
824.11	25567
824.25	25510
824.389	25487
824.529	25552
824.669	25632
824.809	25635
824.949	25620
825.089	25567
825.228	25605
825.368	25460
825.508	25339
825.648	25312
825.787	25373
825.927	25392
826.067	25168
826.206	25339
826.346	25422
826.485	25502
826.625	25354
826.765	25521
826.904	25445
827.044	25122
827.183	24977
827.323	25015
827.462	25061
827.601	24958
827.741	24901
827.88	25091
828.02	24962
828.159	24932
828.298	24970
828.437	25034
828.577	25015
828.716	25023
828.855	25095
828.994	24730
829.134	24620
829.273	24768
829.412	24726
829.551	24677
829.69	24715
829.829	24738
829.968	24741
830.107	24760
830.246	24707
830.385	24620
830.524	24555
830.663	24494
830.802	24334
830.941	24285
831.08	24403
831.219	24338
831.357	24384
831.496	24597
831.635	24376
831.774	24330
831.913	24247
832.051	24171
832.19	24064
832.329	24178
832.467	23954
832.606	24007
832.744	23893
832.883	24083
833.022	23851
833.16	23958
833.299	23973
833.437	24098
833.576	23996
833.714	24007
833.852	24144
833.991	24026
834.129	24098
834.267	24197
834.406	24045
834.544	24060
834.682	23897
834.821	24129
834.959	24186
835.097	23969
835.235	24079
835.373	23958
835.511	24068
835.65	23927
835.788	23996
835.926	23718
836.064	23630
836.202	23760
836.34	23840
836.478	23961
836.615	23939
836.753	23965
836.891	23996
837.029	23794
837.167	23748
837.305	23840
837.443	23737
837.58	23657
837.718	23752
837.856	23722
837.993	23646
838.131	23676
838.269	23509
838.406	23524
838.544	23501
838.681	23376
838.819	23299
838.956	23231
839.094	23124
839.231	23227
839.369	23277
839.506	23433
839.643	23421
839.781	23220
839.918	23044
840.055	23105
840.193	23071
840.33	22976
840.467	23003
840.604	22968
840.742	23231
840.879	22862
841.016	22904
841.153	22873
841.29	23143
841.427	22991
841.564	22995
841.701	23014
841.838	22980
841.975	22904
842.112	22862
842.249	22927
842.385	22759
842.522	22942
842.659	22843
842.796	22862
842.933	22774
843.069	22687
843.206	22721
843.343	22816
843.479	22733
843.616	22824
843.752	22592
843.889	22557
844.025	22675
844.162	22569
844.298	22664
844.435	22481
844.571	22561
844.708	22538
844.844	22752
844.98	22717
845.117	22561
845.253	22565
845.389	22519
845.525	22573
845.661	22333
845.798	22306
845.934	22268
846.07	22204
846.206	22257
846.342	22398
846.478	22265
846.614	22128
846.75	21930
846.886	22002
847.022	21998
847.158	22002
847.294	22067
847.429	21930
847.565	21953
847.701	22185
847.837	21682
847.972	21682
848.108	21850
848.244	21850
848.379	21606
848.515	21652
848.65	21538
848.786	21739
848.921	21553
849.057	21717
849.192	21679
849.328	21599
849.463	21507
849.598	21542
849.734	21492
849.869	21351
850.004	21367
850.14	21329
850.275	21363
850.41	21245
850.545	21176
850.68	21252
850.815	21306
850.95	21245
851.085	21405
851.22	21458
851.355	21393
851.49	21348
851.625	21287
851.76	21329
851.895	21184
852.03	21192
852.165	21260
852.299	21279
852.434	21272
852.569	21233
852.703	21424
852.838	21405
852.973	21481
853.107	21454
853.242	21192
853.376	21146
853.511	20960
853.645	21173
853.78	21230
853.914	21256
854.048	21047
854.183	21127
854.317	21154
854.451	21370
854.585	21119
854.72	20990
854.854	21135
854.988	21058
855.122	20937
855.256	20925
855.39	21142
855.524	21207
855.658	21116
855.792	20986
855.926	21146
856.06	21192
856.194	21226
856.327	21222
856.461	21100
856.595	21005
856.729	21062
856.862	21138
856.996	21154
857.13	21252
857.263	21245
857.397	21055
857.53	21058
857.664	21009
857.797	21176
857.931	21161
858.064	21081
858.197	21104
858.331	21032
858.464	20979
858.597	20941
858.731	21062
858.864	21077
858.997	21039
859.13	21218
859.263	21112
859.396	21150
859.529	21066
859.662	20929
859.795	21058
859.928	21093
860.061	21096
860.194	21302
860.327	21089
860.46	21100
860.592	21100
860.725	21256
860.858	21138
860.99	21226
861.123	20979
861.256	21055
861.388	21096
861.521	21705
861.653	20906
861.786	20918
861.918	20895
862.05	21055
862.183	21024
862.315	21131
862.447	21142
862.58	20979
862.712	20819
862.844	20861
862.976	20925
863.108	20807
863.24	21169
863.372	20781
863.504	20792
863.636	20773
863.768	20746
863.9	20948
864.032	20667
864.164	20678
864.296	20785
864.428	20842
864.559	20804
864.691	20811
864.823	20811
864.954	20724
865.086	20777
865.217	20602
865.349	20537
865.48	20682
865.612	20667
865.743	20819
865.875	20648
866.006	20625
866.137	20693
866.269	20663
866.4	20697
866.531	20545
866.662	20598
866.793	20712
866.924	20602
867.055	20682
867.186	20762
867.317	20499
867.448	20571
867.579	20564
867.71	20408
867.841	20602
867.972	20587
868.103	20568
868.233	20670
868.364	20625
868.495	20697
868.625	20788
868.756	20956
868.886	20781
869.017	20830
869.147	20921
869.278	20910
869.408	20906
869.539	20895
869.669	20918
869.799	20861
869.929	21013
870.06	20956
870.19	21112
870.32	21192
870.45	21226
870.58	21146
870.71	21283
870.84	21306
870.97	21416
871.1	21268
871.23	21428
871.36	21374
871.489	21363
871.619	21412
871.749	21367
871.879	21462
872.008	21534
872.138	21443
872.267	21488
872.397	21329
872.526	21302
872.656	21085
872.785	21272
872.915	21458
873.044	21530
873.173	21340
873.303	21496
873.432	21519
873.561	21530
873.69	21564
873.819	21332
873.948	21576
874.077	21420
874.206	21424
874.335	21272
874.464	21431
874.593	21686
874.722	21606
874.851	21694
874.979	21690
875.108	21835
875.237	21644
875.365	21580
875.494	21831
875.623	21652
875.751	21618
875.88	21690
876.008	21835
876.136	21892
876.265	22154
876.393	22166
876.521	22101
876.65	22097
876.778	22158
876.906	22002
877.034	21994
877.162	22059
877.29	21941
877.418	22181
877.546	22017
877.674	21945
877.802	22070
877.93	22006
878.058	21907
878.185	21994
878.313	21926
878.441	22097
878.568	21956
878.696	22135
878.824	22051
878.951	22185
879.079	22211
879.206	22253
879.333	22188
879.461	22036
879.588	22105
879.715	22150
879.842	22363
879.97	22093
880.097	21892
880.224	21903
880.351	21915
880.478	21876
880.605	21804
880.732	21903
880.859	22032
880.986	21831
881.112	22017
881.239	21724
881.366	21603
881.493	21534
881.619	21496
881.746	21473
881.872	21458
881.999	21439
882.125	21420
882.252	21485
882.378	21374
882.505	21530
882.631	21249
882.757	21237
882.883	21211
883.01	21180
883.136	21104
883.262	21009
883.388	21112
883.514	21154
883.64	21203
883.766	21055
883.892	20948
884.018	20971
884.143	20994
884.269	21127
884.395	20952
884.52	20823
884.646	20746
884.772	20754
884.897	20746
885.023	20773
885.148	20944
885.274	20990
885.399	20834
885.524	20724
885.65	20773
885.775	20754
885.9	20758
886.025	20826
886.15	20804
886.275	20777
886.4	20697
886.525	20720
886.65	20750
886.775	20762
886.9	20830
887.025	20876
887.149	20693
887.274	20629
887.399	20655
887.523	20533
887.648	20396
887.773	20434
887.897	20644
888.021	20514
888.146	20507
888.27	20613
888.395	20659
888.519	20609
888.643	20632
888.767	20579
888.891	20579
889.015	20393
889.139	20518
889.263	20290
889.387	20454
889.511	20556
889.635	20400
889.759	20263
889.883	20427
890.006	20412
890.13	20495
890.254	20218
890.377	20271
890.501	20191
890.624	20191
890.748	20172
890.871	19906
890.995	19921
891.118	19902
891.241	20001
891.364	19951
891.488	19959
891.611	19871
891.734	19970
891.857	19955
891.98	19978
892.103	20039
892.226	19997
892.349	19864
892.471	19556
892.594	19799
892.717	19887
892.839	19772
892.962	19887
893.085	19947
893.207	19830
893.33	19658
893.452	19795
893.575	19898
893.697	19818
893.819	20027
893.941	20027
894.064	19970
894.186	19704
894.308	19776
894.43	19986
894.552	20027
894.674	19970
894.796	19742
894.918	19852
895.04	19856
895.161	19818
895.283	19845
895.405	19830
895.526	19940
895.648	19852
895.769	19788
895.891	19928
896.012	20001
896.134	19978
896.255	20008
896.376	19788
896.498	19947
896.619	19917
896.74	19902
896.861	19902
896.982	20221
897.103	20377
897.224	20218
897.345	20069
897.466	20069
897.587	20206
897.708	20202
897.828	20130
897.949	20024
898.07	19871
898.19	20054
898.311	20119
898.431	20016
898.552	20046
898.672	20081
898.792	20115
898.913	20168
899.033	19940
899.153	19925
899.273	19750
899.393	19856
899.513	19818
899.633	19742
899.753	19712
899.873	19681
899.993	19849
900.113	19845
900.232	19875
900.352	19772
900.472	19628
900.591	19567
900.711	19677
900.83	19537
900.95	19826
901.069	19635
901.189	19518
901.308	19388
901.427	19129
901.546	19217
901.665	19285
901.784	19251
901.904	19065
902.023	18924
902.141	18764
902.26	18722
902.379	18844
902.498	18700
902.617	18661
902.735	18798
902.854	18684
902.973	18467
903.091	18315
903.21	18342
903.328	18460
903.446	18232
903.565	18133
903.683	18144
903.801	18121
903.919	18045
904.038	18095
904.156	17996
904.274	17980
904.392	17904
904.51	17893
904.627	18015
904.745	17996
904.863	17916
904.981	17779
905.098	17566
905.216	17611
905.334	17718
905.451	17596
905.569	17585
905.686	17611
905.803	17558
905.921	17478
906.038	17463
906.155	17368
906.272	17280
906.389	17391
906.506	17140
906.623	17250
906.74	17136
906.857	17060
906.974	17094
907.091	17181
907.208	17299
907.324	17189
907.441	17010
907.557	16858
907.674	16843
907.79	16847
907.907	16790
908.023	16847
908.139	16786
908.256	16873
908.372	16824
908.488	16752
908.604	16683
908.72	16577
908.836	16641
908.952	16523
909.068	16588
909.184	16626
909.3	16618
909.415	16653
909.531	16554
909.647	16265
909.762	16272
909.878	16265
909.993	16367
910.108	16128
910.224	16181
910.339	16322
910.454	16116
910.57	16101
910.685	15945
910.8	16261
910.915	16185
911.03	16112
911.145	15918
911.259	15789
911.374	15899
911.489	15800
911.604	15690
911.718	15564
911.833	15584
911.947	15447
912.062	15401
912.176	15618
912.291	15561
912.405	15584
912.519	15785
912.633	15728
912.748	15618
912.862	15466
912.976	15435
913.09	15329
913.204	15420
913.318	15336
913.431	15469
913.545	15542
913.659	15504
913.772	15424
913.886	15256
914	15218
914.113	15298
914.226	15260
914.34	15275
914.453	15127
914.566	15146
914.68	15112
914.793	15066
914.906	14842
915.019	14925
915.132	14777
915.245	14811
915.358	14902
915.47	14773
915.583	14800
915.696	14902
915.809	14960
915.921	14895
916.034	14788
916.146	14708
916.259	14811
916.371	14819
916.483	14754
916.595	14655
916.708	14598
916.82	14708
916.932	14610
917.044	14613
917.156	14537
917.268	14514
917.38	14571
917.491	14484
917.603	14560
917.715	14594
917.826	14545
917.938	14419
918.049	14343
918.161	14404
918.272	14587
918.384	14552
918.495	14450
918.606	14290
918.717	14187
918.828	14256
918.939	14381
919.05	14210
919.161	14172
919.272	14008
919.383	14134
919.494	14320
919.604	14393
919.715	14145
919.826	14012
919.936	14183
920.047	14317
920.157	14202
920.267	14404
920.378	14111
920.488	14153
920.598	14351
920.708	14434
920.818	14404
920.928	14286
921.038	14575
921.148	14427
921.258	14180
921.368	14050
921.477	13951
921.587	13906
921.697	13837
921.806	13921
921.916	13693
922.025	13666
922.134	13651
922.244	13559
922.353	13677
922.462	13468
922.571	13396
922.68	13274
922.789	13240
922.898	13217
923.007	13149
923.116	13236
923.224	13171
923.333	13282
923.442	13156
923.55	13027
923.659	13114
923.767	13152
923.876	13027
923.984	13012
924.092	12837
924.201	12920
924.309	13050
924.417	12947
924.525	12901
924.633	12859
924.741	13681
924.849	12665
924.956	12848
925.064	12692
925.172	12589
925.279	12616
925.387	12757
925.494	12692
925.602	12806
925.709	12749
925.816	12582
925.924	12631
926.031	12669
926.138	12593
926.245	12593
926.352	12555
926.459	12665
926.566	12639
926.673	12551
926.779	12414
926.886	12410
926.993	12281
927.099	12258
927.206	12190
927.312	12171
927.419	12213
927.525	12228
927.631	12258
927.737	12136
927.843	12060
927.95	11992
928.056	12133
928.162	12076
928.267	12167
928.373	12601
928.479	12133
928.585	11885
928.69	12038
928.796	12053
928.901	11843
929.007	11794
929.112	11923
929.218	11878
929.323	11866
929.428	11779
929.533	11954
929.638	11699
929.743	11718
929.848	11809
929.953	11828
930.058	11703
930.163	11391
930.267	11524
930.372	11554
930.477	11440
930.581	11627
930.685	11554
930.79	11376
930.894	11406
930.998	11318
931.103	11474
931.207	11147
931.311	10984
931.415	10930
931.519	10786
931.623	10729
