Data from test_V78500241_799.txt Node
Date: Fri Mar 25 15:15:25 CST 2022
User: usil
Spectrometer: V785-0024
Trigger mode: 0
Integration Time (sec): 4.000000E-1
Scans to average: 1
Nonlinearity correction enabled: false
Boxcar width: 0
Storing dark spectrum: false
XAxis mode: Wavelengths
Number of Pixels in Spectrum: 1024
>>>>>Begin Spectral Data<<<<<
801.071	28280
801.214	28219
801.356	27895
801.499	27892
801.641	27823
801.783	27930
801.926	27831
802.068	27812
802.211	27838
802.353	27751
802.496	27595
802.638	27405
802.78	27511
802.923	27351
803.065	27431
803.208	27511
803.35	27466
803.492	27435
803.635	27557
803.777	27443
803.919	27671
804.061	27960
804.204	27633
804.346	27599
804.488	27538
804.63	27637
804.773	27424
804.915	27789
805.057	27888
805.199	27663
805.341	27800
805.483	27819
805.626	27945
805.768	27846
805.91	27789
806.052	27755
806.194	27705
806.336	28006
806.478	27876
806.62	27770
806.762	28032
806.904	28128
807.046	28303
807.188	28177
807.33	28223
807.472	28261
807.614	28048
807.756	28234
807.898	28017
808.04	28169
808.182	28093
808.324	28169
808.465	28204
808.607	28253
808.749	28474
808.891	28459
809.033	28599
809.174	28462
809.316	28596
809.458	28459
809.6	28573
809.741	28767
809.883	28725
810.025	28740
810.166	28694
810.308	28740
810.45	28824
810.591	28721
810.733	28725
810.875	28561
811.016	28516
811.158	28451
811.299	28630
811.441	28687
811.582	28573
811.724	28497
811.865	28409
812.007	28554
812.148	28363
812.29	28512
812.431	28721
812.573	28816
812.714	28934
812.855	29128
812.997	29124
813.138	29269
813.279	29014
813.421	29037
813.562	29064
813.703	28820
813.845	28752
813.986	28577
814.127	28356
814.268	28070
814.41	28230
814.551	28185
814.692	28230
814.833	28181
814.974	28082
815.115	28299
815.256	28128
815.397	28143
815.539	28078
815.68	28040
815.821	27884
815.962	27922
816.103	28128
816.244	27816
816.385	27903
816.526	27819
816.666	27671
816.807	27370
816.948	27667
817.089	27751
817.23	27637
817.371	27599
817.512	27591
817.653	27545
817.793	27507
817.934	27511
818.075	27606
818.216	27599
818.356	27500
818.497	27386
818.638	27348
818.778	27264
818.919	27310
819.06	27321
819.2	27397
819.341	27500
819.481	27545
819.622	27538
819.762	27911
819.903	27713
820.043	27804
820.184	27686
820.324	27618
820.465	27728
820.605	27603
820.746	27622
820.886	27397
821.026	27644
821.167	27637
821.307	27637
821.447	27378
821.588	27310
821.728	27188
821.868	27146
822.008	26994
822.149	26864
822.289	26914
822.429	26887
822.569	26750
822.709	26746
822.849	26427
822.99	26473
823.13	26533
823.27	26453
823.41	26256
823.55	26324
823.69	26377
823.83	26347
823.97	26229
824.11	26301
824.25	26252
824.389	26164
824.529	26366
824.669	26161
824.809	26381
824.949	26225
825.089	26267
825.228	26103
825.368	26012
825.508	26058
825.648	26069
825.787	26111
825.927	26081
826.067	26183
826.206	25879
826.346	26005
826.485	26111
826.625	25947
826.765	26183
826.904	26073
827.044	25936
827.183	25841
827.323	25830
827.462	25811
827.601	25818
827.741	25788
827.88	25693
828.02	25681
828.159	25727
828.298	25803
828.437	25826
828.577	25708
828.716	25932
828.855	25818
828.994	25430
829.134	25514
829.273	25662
829.412	25369
829.551	25476
829.69	25533
829.829	25499
829.968	25483
830.107	25628
830.246	25472
830.385	25377
830.524	25316
830.663	25365
830.802	25122
830.941	25103
831.08	25072
831.219	25141
831.357	25168
831.496	25331
831.635	25107
831.774	25088
831.913	25069
832.051	24920
832.19	24871
832.329	24947
832.467	24749
832.606	24764
832.744	24745
832.883	24673
833.022	24764
833.16	24833
833.299	24878
833.437	24848
833.576	24981
833.714	24852
833.852	24894
833.991	24859
834.129	24962
834.267	24951
834.406	24837
834.544	24924
834.682	24783
834.821	24928
834.959	24966
835.097	24760
835.235	24890
835.373	24817
835.511	24913
835.65	24730
835.788	24745
835.926	24578
836.064	24597
836.202	24559
836.34	24707
836.478	24741
836.615	24635
836.753	24593
836.891	24749
837.029	24654
837.167	24460
837.305	24551
837.443	24578
837.58	24532
837.718	24574
837.856	24376
837.993	24433
838.131	24456
838.269	24334
838.406	24342
838.544	24216
838.681	24186
838.819	24106
838.956	24015
839.094	23840
839.231	24095
839.369	24174
839.506	24418
839.643	24136
839.781	23935
839.918	23882
840.055	23916
840.193	23931
840.33	23927
840.467	23950
840.604	23904
840.742	24174
840.879	23775
841.016	23794
841.153	23733
841.29	23855
841.427	23828
841.564	23893
841.701	23786
841.838	23775
841.975	23748
842.112	23790
842.249	23619
842.385	23501
842.522	23874
842.659	23687
842.796	23668
842.933	23551
843.069	23501
843.206	23516
843.343	23718
843.479	23691
843.616	23653
843.752	23391
843.889	23425
844.025	23490
844.162	23360
844.298	23539
844.435	23433
844.571	23364
844.708	23410
844.844	23687
844.98	23482
845.117	23425
845.253	23356
845.389	23299
845.525	23307
845.661	23307
845.798	23018
845.934	23071
846.07	23162
846.206	23067
846.342	23189
846.478	23185
846.614	22946
846.75	22733
846.886	22801
847.022	22908
847.158	22854
847.294	22892
847.429	22869
847.565	22835
847.701	22984
847.837	22596
847.972	22596
848.108	22470
848.244	22561
848.379	22561
848.515	22352
848.65	22569
848.786	22459
848.921	22451
849.057	22443
849.192	22546
849.328	22382
849.463	22516
849.598	22379
849.734	22424
849.869	22314
850.004	22147
850.14	22139
850.275	22177
850.41	22051
850.545	22036
850.68	22257
850.815	22287
850.95	22173
851.085	22291
851.22	22287
851.355	22295
851.49	22196
851.625	22139
851.76	22150
851.895	22044
852.03	22010
852.165	22253
852.299	22295
852.434	22128
852.569	22215
852.703	22329
852.838	22154
852.973	22352
853.107	22268
853.242	22059
853.376	22093
853.511	21827
853.645	22048
853.78	22120
853.914	22162
854.048	21949
854.183	21945
854.317	22074
854.451	22116
854.585	21949
854.72	22010
854.854	22051
854.988	21907
855.122	22044
855.256	21804
855.39	21911
855.524	22025
855.658	22059
855.792	22139
855.926	21994
856.06	22002
856.194	22097
856.327	22109
856.461	22109
856.595	21983
856.729	21964
856.862	22063
856.996	22074
857.13	22051
857.263	22150
857.397	22112
857.53	21998
857.664	22036
857.797	22086
857.931	22090
858.064	22128
858.197	22135
858.331	21899
858.464	21835
858.597	21800
858.731	21922
858.864	21998
858.997	22097
859.13	21960
859.263	22086
859.396	22040
859.529	21979
859.662	22006
859.795	21922
859.928	22063
860.061	22261
860.194	22200
860.327	22139
860.46	21949
860.592	22051
860.725	22086
860.858	22093
860.99	21934
861.123	21888
861.256	22017
861.388	21915
861.521	22850
861.653	21785
861.786	21793
861.918	21747
862.05	21823
862.183	21888
862.315	21930
862.447	21994
862.58	21884
862.712	21694
862.844	21724
862.976	21770
863.108	21690
863.24	22109
863.372	21656
863.504	21671
863.636	21766
863.768	21599
863.9	21701
864.032	21656
864.164	21671
864.296	21720
864.428	21838
864.559	21747
864.691	21762
864.823	21705
864.954	21698
865.086	21660
865.217	21732
865.349	21485
865.48	21534
865.612	21599
865.743	21682
865.875	21610
866.006	21469
866.137	21641
866.269	21648
866.4	21606
866.531	21473
866.662	21523
866.793	21553
866.924	21545
867.055	21504
867.186	21568
867.317	21435
867.448	21367
867.579	21412
867.71	21428
867.841	21439
867.972	21485
868.103	21450
868.233	21454
868.364	21606
868.495	21561
868.625	21698
868.756	21926
868.886	21690
869.017	21785
869.147	21842
869.278	21739
869.408	21762
869.539	21759
869.669	21766
869.799	21835
869.929	21979
870.06	21846
870.19	22017
870.32	22013
870.45	22124
870.58	22181
870.71	22112
870.84	22299
870.97	22090
871.1	22257
871.23	22253
871.36	22360
871.489	22101
871.619	22284
871.749	22363
871.879	22367
872.008	22470
872.138	22390
872.267	22382
872.397	22322
872.526	22219
872.656	22200
872.785	22177
872.915	22382
873.044	22436
873.173	22443
873.303	22379
873.432	22303
873.561	22500
873.69	22344
873.819	22257
873.948	22470
874.077	22470
874.206	22318
874.335	22371
874.464	22504
874.593	22565
874.722	22596
874.851	22603
874.979	22615
875.108	22694
875.237	22523
875.365	22405
875.494	22611
875.623	22641
875.751	22402
875.88	22611
876.008	22618
876.136	22634
876.265	22984
876.393	23064
876.521	23162
876.65	23022
876.778	23128
876.906	22873
877.034	22831
877.162	22927
877.29	22999
877.418	22987
877.546	22911
877.674	22885
877.802	22957
877.93	22839
878.058	22812
878.185	22706
878.313	22987
878.441	22881
878.568	22793
878.696	22847
878.824	22869
878.951	23037
879.079	23075
879.206	23208
879.333	23140
879.461	22908
879.588	23010
879.715	22976
879.842	23060
879.97	22881
880.097	22839
880.224	22702
880.351	22748
880.478	22683
880.605	22786
880.732	22687
880.859	22953
880.986	22816
881.112	22710
881.239	22679
881.366	22432
881.493	22284
881.619	22344
881.746	22295
881.872	22257
881.999	22188
882.125	22287
882.252	22185
882.378	22333
882.505	22447
882.631	22154
882.757	22082
882.883	22059
883.01	21979
883.136	21987
883.262	21846
883.388	21975
883.514	22101
883.64	21964
883.766	21994
883.892	21739
884.018	21785
884.143	21979
884.269	22017
884.395	21701
884.52	21622
884.646	21694
884.772	21542
884.897	21492
885.023	21633
885.148	21747
885.274	21690
885.399	21789
885.524	21549
885.65	21614
885.775	21686
885.9	21591
886.025	21743
886.15	21652
886.275	21625
886.4	21526
886.525	21576
886.65	21504
886.775	21542
886.9	21671
887.025	21743
887.149	21614
887.274	21420
887.399	21329
887.523	21279
887.648	21279
887.773	21313
887.897	21572
888.021	21386
888.146	21504
888.27	21420
888.395	21504
888.519	21416
888.643	21393
888.767	21443
888.891	21386
889.015	21192
889.139	21211
889.263	21188
889.387	21272
889.511	21397
889.635	21264
889.759	21233
889.883	21203
890.006	21188
890.13	21344
890.254	20990
890.377	21226
890.501	20910
890.624	20895
890.748	20967
890.871	20731
890.995	20804
891.118	20746
891.241	20857
891.364	20750
891.488	20861
891.611	20826
891.734	20769
891.857	20861
891.98	20663
892.103	20724
892.226	20667
892.349	20708
892.471	20476
892.594	20606
892.717	20602
892.839	20594
892.962	20678
893.085	20632
893.207	20579
893.33	20526
893.452	20530
893.575	20632
893.697	20537
893.819	20750
893.941	20785
894.064	20777
894.186	20518
894.308	20568
894.43	20651
894.552	20686
894.674	20765
894.796	20533
894.918	20648
895.04	20571
895.161	20663
895.283	20648
895.405	20552
895.526	20754
895.648	20617
895.769	20503
895.891	20568
896.012	20735
896.134	20659
896.255	20659
896.376	20514
896.498	20533
896.619	20655
896.74	20632
896.861	20533
896.982	20971
897.103	21051
897.224	20883
897.345	20830
897.466	20636
897.587	20857
897.708	20925
897.828	20838
897.949	20773
898.07	20602
898.19	20701
898.311	20941
898.431	20765
898.552	20872
898.672	20960
898.792	20853
898.913	20781
899.033	20758
899.153	20678
899.273	20507
899.393	20526
899.513	20564
899.633	20613
899.753	20457
899.873	20423
899.993	20594
900.113	20503
900.232	20602
900.352	20507
900.472	20358
900.591	20362
900.711	20324
900.83	20362
900.95	20343
901.069	20351
901.189	20240
901.308	20058
901.427	19940
901.546	19814
901.665	19970
901.784	19917
901.904	19769
902.023	19727
902.141	19403
902.26	19430
902.379	19449
902.498	19377
902.617	19381
902.735	19472
902.854	19358
902.973	19373
903.091	19152
903.21	19084
903.328	19080
903.446	18932
903.565	18825
903.683	18947
903.801	18840
903.919	18810
904.038	18802
904.156	18795
904.274	18791
904.392	18604
904.51	18597
904.627	18620
904.745	18700
904.863	18639
904.981	18464
905.098	18338
905.216	18334
905.334	18388
905.451	18350
905.569	18232
905.686	18448
905.803	18201
905.921	18155
906.038	18140
906.155	18087
906.272	18057
906.389	17988
906.506	17847
906.623	17813
906.74	17897
906.857	17714
906.974	17821
907.091	17916
907.208	17935
907.324	18015
907.441	17748
907.557	17630
907.674	17589
907.79	17467
907.907	17391
908.023	17581
908.139	17653
908.256	17478
908.372	17497
908.488	17516
908.604	17364
908.72	17227
908.836	17277
908.952	17155
909.068	17250
909.184	17349
909.3	17387
909.415	17197
909.531	17235
909.647	17018
909.762	16904
909.878	16930
909.993	16965
910.108	16892
910.224	16854
910.339	16873
910.454	16828
910.57	16858
910.685	16725
910.8	16923
910.915	16934
911.03	16839
911.145	16713
911.259	16527
911.374	16584
911.489	16500
911.604	16489
911.718	16337
911.833	16322
911.947	16230
912.062	16204
912.176	16238
912.291	16242
912.405	16246
912.519	16462
912.633	16531
912.748	16344
912.862	16299
912.976	16196
913.09	15991
913.204	16112
913.318	16093
913.431	16211
913.545	16128
913.659	16173
913.772	16143
913.886	15972
914	15846
914.113	15956
914.226	15975
914.34	15945
914.453	15747
914.566	15899
914.68	15819
914.793	15743
914.906	15507
915.019	15572
915.132	15412
915.245	15523
915.358	15606
915.47	15481
915.583	15477
915.696	15534
915.809	15675
915.921	15724
916.034	15420
916.146	15443
916.259	15466
916.371	15435
916.483	15408
916.595	15405
916.708	15431
916.82	15275
916.932	15256
917.044	15389
917.156	15245
917.268	15222
917.38	15199
917.491	15036
917.603	15085
917.715	15222
917.826	15226
917.938	14990
918.049	14929
918.161	15028
918.272	15195
918.384	15283
918.495	15005
918.606	15001
918.717	14804
918.828	14895
918.939	14948
919.05	14727
919.161	14868
919.272	14701
919.383	14769
919.494	14918
919.604	15100
919.715	14750
919.826	14807
919.936	14777
920.047	14910
920.157	14838
920.267	15142
920.378	14921
920.488	14754
920.598	15093
920.708	15226
920.818	15039
920.928	14887
921.038	15199
921.148	15184
921.258	14800
921.368	14701
921.477	14530
921.587	14537
921.697	14431
921.806	14556
921.916	14454
922.025	14210
922.134	14221
922.244	14138
922.353	14218
922.462	14202
922.571	14001
922.68	13871
922.789	13799
922.898	13932
923.007	13795
923.116	13852
923.224	13833
923.333	13822
923.442	13791
923.55	13689
923.659	13761
923.767	13776
923.876	13662
923.984	13708
924.092	13556
924.201	13605
924.309	13529
924.417	13514
924.525	13483
924.633	13594
924.741	14263
924.849	13373
924.956	13396
925.064	13369
925.172	13217
925.279	13244
925.387	13228
925.494	13259
925.602	13396
925.709	13194
925.816	13145
925.924	13190
926.031	13308
926.138	13320
926.245	13263
926.352	13080
926.459	13206
926.566	13301
926.673	13179
926.779	13027
926.886	13038
926.993	12837
927.099	12806
927.206	12768
927.312	12722
927.419	12871
927.525	12817
927.631	12798
927.737	12779
927.843	12597
927.95	12525
928.056	12639
928.162	12635
928.267	12574
928.373	13270
928.479	12642
928.585	12460
928.69	12589
928.796	12627
928.901	12464
929.007	12334
929.112	12460
929.218	12456
929.323	12395
929.428	12289
929.533	12418
929.638	12247
929.743	12311
929.848	12334
929.953	12304
930.058	12136
930.163	12068
930.267	12026
930.372	12178
930.477	11984
930.581	12243
930.685	12019
930.79	12060
930.894	11882
930.998	11939
931.103	12034
931.207	11604
931.311	11585
931.415	11478
931.519	11250
931.623	11269
