Data from test_V78500241_836.txt Node
Date: Fri Mar 25 15:15:40 CST 2022
User: usil
Spectrometer: V785-0024
Trigger mode: 0
Integration Time (sec): 4.000000E-1
Scans to average: 1
Nonlinearity correction enabled: false
Boxcar width: 0
Storing dark spectrum: false
XAxis mode: Wavelengths
Number of Pixels in Spectrum: 1024
>>>>>Begin Spectral Data<<<<<
801.071	28325
801.214	28120
801.356	28051
801.499	28021
801.641	27819
801.783	27907
801.926	27888
802.068	27686
802.211	27652
802.353	27739
802.496	27564
802.638	27496
802.78	27511
802.923	27427
803.065	27397
803.208	27572
803.35	27530
803.492	27709
803.635	27682
803.777	27481
803.919	27663
804.061	27949
804.204	27759
804.346	27747
804.488	27622
804.63	27751
804.773	27641
804.915	27648
805.057	27831
805.199	27663
805.341	27766
805.483	27934
805.626	27827
805.768	27728
805.91	27808
806.052	27861
806.194	27778
806.336	28063
806.478	27907
806.62	27857
806.762	28036
806.904	28154
807.046	28352
807.188	28253
807.33	28173
807.472	28261
807.614	28185
807.756	28314
807.898	28177
808.04	28097
808.182	28158
808.324	28188
808.465	28097
808.607	28451
808.749	28447
808.891	28725
809.033	28729
809.174	28626
809.316	28462
809.458	28573
809.6	28664
809.741	28748
809.883	28736
810.025	28847
810.166	28805
810.308	28877
810.45	28839
810.591	28660
810.733	28577
810.875	28557
811.016	28390
811.158	28333
811.299	28683
811.441	28763
811.582	28729
811.724	28596
811.865	28478
812.007	28641
812.148	28622
812.29	28561
812.431	28740
812.573	28869
812.714	28999
812.855	29083
812.997	29258
813.138	29315
813.279	29246
813.421	29010
813.562	29056
813.703	28835
813.845	28892
813.986	28577
814.127	28329
814.268	28371
814.41	28215
814.551	28299
814.692	28405
814.833	28257
814.974	28147
815.115	28143
815.256	28109
815.397	28139
815.539	28147
815.68	28112
815.821	28090
815.962	28090
816.103	28010
816.244	28002
816.385	27994
816.526	27755
816.666	27793
816.807	27625
816.948	27774
817.089	27633
817.23	27625
817.371	27641
817.512	27618
817.653	27599
817.793	27679
817.934	27420
818.075	27690
818.216	27682
818.356	27583
818.497	27401
818.638	27313
818.778	27443
818.919	27427
819.06	27336
819.2	27523
819.341	27515
819.481	27549
819.622	27599
819.762	27968
819.903	27903
820.043	27625
820.184	27675
820.324	27622
820.465	27644
820.605	27690
820.746	27667
820.886	27568
821.026	27606
821.167	27568
821.307	27682
821.447	27641
821.588	27500
821.728	27370
821.868	27348
822.008	27096
822.149	26944
822.289	27058
822.429	26811
822.569	26834
822.709	26792
822.849	26655
822.99	26556
823.13	26518
823.27	26381
823.41	26396
823.55	26271
823.69	26347
823.83	26423
823.97	26396
824.11	26233
824.25	26225
824.389	26275
824.529	26275
824.669	26259
824.809	26351
824.949	26138
825.089	26294
825.228	26286
825.368	26081
825.508	26130
825.648	26142
825.787	26172
825.927	26290
826.067	26103
826.206	26065
826.346	26107
826.485	26012
826.625	26065
826.765	26187
826.904	26240
827.044	25780
827.183	25928
827.323	25719
827.462	25826
827.601	25887
827.741	25814
827.88	25955
828.02	25761
828.159	25780
828.298	25731
828.437	25944
828.577	25799
828.716	25913
828.855	25685
828.994	25556
829.134	25601
829.273	25616
829.412	25594
829.551	25422
829.69	25521
829.829	25533
829.968	25719
830.107	25658
830.246	25548
830.385	25460
830.524	25388
830.663	25369
830.802	25103
830.941	25015
831.08	25069
831.219	25217
831.357	25225
831.496	25312
831.635	25183
831.774	25103
831.913	25046
832.051	24954
832.19	24970
832.329	24909
832.467	24852
832.606	24814
832.744	24734
832.883	24707
833.022	24715
833.16	24776
833.299	24989
833.437	24810
833.576	24863
833.714	24825
833.852	24977
833.991	24776
834.129	25023
834.267	24939
834.406	24882
834.544	24840
834.682	24852
834.821	24768
834.959	24996
835.097	24654
835.235	24924
835.373	24787
835.511	24829
835.65	24734
835.788	24764
835.926	24620
836.064	24532
836.202	24471
836.34	24658
836.478	24688
836.615	24601
836.753	24696
836.891	24753
837.029	24741
837.167	24646
837.305	24616
837.443	24528
837.58	24555
837.718	24673
837.856	24593
837.993	24464
838.131	24422
838.269	24429
838.406	24528
838.544	24277
838.681	24148
838.819	24114
838.956	24030
839.094	24007
839.231	23942
839.369	24129
839.506	24407
839.643	24186
839.781	24003
839.918	24026
840.055	23927
840.193	24034
840.33	23935
840.467	23908
840.604	23908
840.742	24076
840.879	23809
841.016	23904
841.153	23748
841.29	23920
841.427	23904
841.564	23992
841.701	23798
841.838	23718
841.975	23737
842.112	23897
842.249	23741
842.385	23570
842.522	23863
842.659	23722
842.796	23680
842.933	23649
843.069	23630
843.206	23592
843.343	23699
843.479	23703
843.616	23619
843.752	23543
843.889	23455
844.025	23596
844.162	23269
844.298	23562
844.435	23364
844.571	23531
844.708	23459
844.844	23592
844.98	23501
845.117	23505
845.253	23254
845.389	23349
845.525	23341
845.661	23311
845.798	23159
845.934	23307
846.07	23064
846.206	23132
846.342	23242
846.478	23060
846.614	22957
846.75	22793
846.886	22911
847.022	22927
847.158	22930
847.294	22854
847.429	22908
847.565	22858
847.701	23083
847.837	22675
847.972	22519
848.108	22557
848.244	22725
848.379	22611
848.515	22405
848.65	22409
848.786	22443
848.921	22409
849.057	22607
849.192	22428
849.328	22546
849.463	22527
849.598	22360
849.734	22428
849.869	22386
850.004	22128
850.14	22360
850.275	22265
850.41	22074
850.545	22272
850.68	22181
850.815	22257
850.95	22181
851.085	22447
851.22	22421
851.355	22223
851.49	22318
851.625	22200
851.76	22246
851.895	22177
852.03	22143
852.165	22261
852.299	22333
852.434	22314
852.569	22223
852.703	22310
852.838	22253
852.973	22367
853.107	22367
853.242	22093
853.376	22093
853.511	21979
853.645	22010
853.78	22135
853.914	22074
854.048	21899
854.183	21979
854.317	22040
854.451	22280
854.585	22070
854.72	22044
854.854	22063
854.988	22010
855.122	22063
855.256	21865
855.39	22055
855.524	22177
855.658	22055
855.792	22101
855.926	22143
856.06	22192
856.194	22158
856.327	22101
856.461	21994
856.595	21903
856.729	22093
856.862	22211
856.996	22006
857.13	22188
857.263	22109
857.397	22074
857.53	22093
857.664	22067
857.797	22090
857.931	22238
858.064	22082
858.197	22177
858.331	22063
858.464	22029
858.597	21911
858.731	21892
858.864	22021
858.997	21983
859.13	22154
859.263	22025
859.396	22128
859.529	21960
859.662	21949
859.795	22002
859.928	21941
860.061	22306
860.194	22223
860.327	22124
860.46	22204
860.592	22002
860.725	22215
860.858	22344
860.99	22070
861.123	22048
861.256	21972
861.388	22101
861.521	22847
861.653	21911
861.786	21804
861.918	21911
862.05	21972
862.183	21960
862.315	21953
862.447	21964
862.58	22013
862.712	21682
862.844	21694
862.976	21800
863.108	21827
863.24	22093
863.372	21622
863.504	21709
863.636	21694
863.768	21739
863.9	21789
864.032	21633
864.164	21675
864.296	21804
864.428	21915
864.559	21713
864.691	21827
864.823	21713
864.954	21739
865.086	21812
865.217	21591
865.349	21526
865.48	21576
865.612	21557
865.743	21709
865.875	21614
866.006	21644
866.137	21656
866.269	21629
866.4	21606
866.531	21568
866.662	21450
866.793	21656
866.924	21545
867.055	21629
867.186	21538
867.317	21447
867.448	21408
867.579	21572
867.71	21382
867.841	21492
867.972	21633
868.103	21595
868.233	21625
868.364	21511
868.495	21656
868.625	21686
868.756	21876
868.886	21747
869.017	21842
869.147	21895
869.278	21873
869.408	21774
869.539	21876
869.669	21907
869.799	21785
869.929	21994
870.06	21884
870.19	22150
870.32	22040
870.45	22051
870.58	22173
870.71	22154
870.84	22352
870.97	22223
871.1	22276
871.23	22344
871.36	22390
871.489	22314
871.619	22322
871.749	22413
871.879	22352
872.008	22523
872.138	22363
872.267	22546
872.397	22299
872.526	22211
872.656	22166
872.785	22207
872.915	22379
873.044	22466
873.173	22284
873.303	22554
873.432	22523
873.561	22504
873.69	22470
873.819	22497
873.948	22440
874.077	22402
874.206	22371
874.335	22512
874.464	22550
874.593	22668
874.722	22504
874.851	22622
874.979	22580
875.108	22729
875.237	22569
875.365	22542
875.494	22588
875.623	22759
875.751	22615
875.88	22588
876.008	22774
876.136	22839
876.265	23117
876.393	23185
876.521	23132
876.65	23094
876.778	23025
876.906	22919
877.034	22892
877.162	23041
877.29	22930
877.418	22995
877.546	22919
877.674	22847
877.802	22923
877.93	22953
878.058	22942
878.185	22847
878.313	23044
878.441	22877
878.568	22793
878.696	22904
878.824	22961
878.951	23140
879.079	23162
879.206	23204
879.333	23239
879.461	23067
879.588	23109
879.715	23094
879.842	23193
879.97	22968
880.097	22869
880.224	22778
880.351	22858
880.478	22782
880.605	22618
880.732	22820
880.859	22915
880.986	22801
881.112	22748
881.239	22672
881.366	22459
881.493	22504
881.619	22234
881.746	22470
881.872	22242
881.999	22344
882.125	22291
882.252	22341
882.378	22379
882.505	22421
882.631	22166
882.757	21949
882.883	22162
883.01	22055
883.136	22017
883.262	21926
883.388	21888
883.514	22124
883.64	21998
883.766	21975
883.892	21770
884.018	21797
884.143	22086
884.269	22067
884.395	21728
884.52	21614
884.646	21675
884.772	21576
884.897	21690
885.023	21663
885.148	21747
885.274	21713
885.399	21751
885.524	21599
885.65	21709
885.775	21698
885.9	21644
886.025	21705
886.15	21671
886.275	21545
886.4	21530
886.525	21671
886.65	21709
886.775	21500
886.9	21686
887.025	21781
887.149	21591
887.274	21534
887.399	21439
887.523	21412
887.648	21370
887.773	21447
887.897	21614
888.021	21515
888.146	21367
888.27	21424
888.395	21572
888.519	21458
888.643	21530
888.767	21473
888.891	21359
889.015	21165
889.139	21252
889.263	21192
889.387	21332
889.511	21412
889.635	21386
889.759	21058
889.883	21237
890.006	21154
890.13	21336
890.254	21165
890.377	21146
890.501	21066
890.624	20933
890.748	21005
890.871	20861
890.995	20804
891.118	20720
891.241	20895
891.364	20811
891.488	20861
891.611	20785
891.734	20754
891.857	20811
891.98	20880
892.103	20785
892.226	20785
892.349	20758
892.471	20640
892.594	20708
892.717	20712
892.839	20739
892.962	20663
893.085	20659
893.207	20670
893.33	20575
893.452	20537
893.575	20686
893.697	20632
893.819	20823
893.941	20758
894.064	20788
894.186	20655
894.308	20530
894.43	20731
894.552	20819
894.674	20682
894.796	20590
894.918	20621
895.04	20590
895.161	20712
895.283	20735
895.405	20629
895.526	20613
895.648	20625
895.769	20667
895.891	20739
896.012	20701
896.134	20792
896.255	20648
896.376	20564
896.498	20644
896.619	20651
896.74	20617
896.861	20739
896.982	20838
897.103	21157
897.224	20941
897.345	20819
897.466	20811
897.587	20941
897.708	20925
897.828	20842
897.949	20792
898.07	20727
898.19	20731
898.311	20750
898.431	20937
898.552	20895
898.672	20872
898.792	20895
898.913	20781
899.033	20674
899.153	20587
899.273	20556
899.393	20587
899.513	20598
899.633	20549
899.753	20564
899.873	20720
899.993	20457
900.113	20492
900.232	20556
900.352	20507
900.472	20419
900.591	20400
900.711	20282
900.83	20336
900.95	20507
901.069	20427
901.189	20225
901.308	20084
901.427	19944
901.546	20043
901.665	19982
901.784	19978
901.904	19860
902.023	19674
902.141	19556
902.26	19384
902.379	19578
902.498	19514
902.617	19434
902.735	19499
902.854	19468
902.973	19285
903.091	19099
903.21	19221
903.328	19088
903.446	19027
903.565	18882
903.683	18951
903.801	18886
903.919	18840
904.038	18776
904.156	18764
904.274	18814
904.392	18726
904.51	18661
904.627	18684
904.745	18726
904.863	18711
904.981	18532
905.098	18395
905.216	18380
905.334	18418
905.451	18445
905.569	18395
905.686	18445
905.803	18353
905.921	18171
906.038	18205
906.155	18327
906.272	18129
906.389	17996
906.506	17935
906.623	17897
906.74	17908
906.857	17722
906.974	17889
907.091	17912
907.208	18011
907.324	17908
907.441	17767
907.557	17687
907.674	17687
907.79	17596
907.907	17589
908.023	17668
908.139	17592
908.256	17566
908.372	17543
908.488	17501
908.604	17398
908.72	17345
908.836	17398
908.952	17341
909.068	17296
909.184	17353
909.3	17360
909.415	17231
909.531	17315
909.647	17102
909.762	17185
909.878	17033
909.993	17022
910.108	17056
910.224	16999
910.339	17071
910.454	16873
910.57	16805
910.685	16752
910.8	17117
910.915	16968
911.03	16824
911.145	16679
911.259	16618
911.374	16561
911.489	16497
911.604	16481
911.718	16565
911.833	16299
911.947	16257
912.062	16196
912.176	16299
912.291	16466
912.405	16367
912.519	16504
912.633	16489
912.748	16432
912.862	16306
912.976	16192
913.09	16078
913.204	16166
913.318	16181
913.431	16287
913.545	16188
913.659	16333
913.772	16192
913.886	16013
914	15892
914.113	16143
914.226	16154
914.34	15975
914.453	15953
914.566	16048
914.68	15884
914.793	15827
914.906	15656
915.019	15538
915.132	15511
915.245	15523
915.358	15595
915.47	15637
915.583	15648
915.696	15667
915.809	15713
915.921	15660
916.034	15614
916.146	15576
916.259	15397
916.371	15504
916.483	15542
916.595	15363
916.708	15332
916.82	15424
916.932	15386
917.044	15344
917.156	15386
917.268	15233
917.38	15306
917.491	15180
917.603	15272
917.715	15294
917.826	15226
917.938	15237
918.049	15032
918.161	15184
918.272	15298
918.384	15268
918.495	15214
918.606	15051
918.717	14785
918.828	14887
918.939	15093
919.05	14914
919.161	14830
919.272	14842
919.383	14826
919.494	15009
919.604	15085
919.715	14929
919.826	14883
919.936	14895
920.047	15074
920.157	15009
920.267	15085
920.378	14941
920.488	14868
920.598	15112
920.708	15211
920.818	15062
920.928	15135
921.038	15214
921.148	15245
921.258	14861
921.368	14743
921.477	14629
921.587	14590
921.697	14575
921.806	14594
921.916	14450
922.025	14370
922.134	14298
922.244	14176
922.353	14294
922.462	14164
922.571	14103
922.68	13959
922.789	13936
922.898	13837
923.007	13799
923.116	13932
923.224	13906
923.333	13890
923.442	13818
923.55	13696
923.659	13727
923.767	13753
923.876	13742
923.984	13791
924.092	13628
924.201	13613
924.309	13609
924.417	13708
924.525	13639
924.633	13616
924.741	14590
924.849	13350
924.956	13491
925.064	13346
925.172	13282
925.279	13289
925.387	13400
925.494	13377
925.602	13430
925.709	13369
925.816	13274
925.924	13331
926.031	13304
926.138	13183
926.245	13285
926.352	13255
926.459	13278
926.566	13335
926.673	13206
926.779	13114
926.886	12977
926.993	12882
927.099	12890
927.206	12776
927.312	12840
927.419	12890
927.525	12856
927.631	12932
927.737	12665
927.843	12734
927.95	12616
928.056	12741
928.162	12722
928.267	12741
928.373	13350
928.479	12798
928.585	12467
928.69	12608
928.796	12760
928.901	12490
929.007	12448
929.112	12601
929.218	12509
929.323	12486
929.428	12448
929.533	12494
929.638	12350
929.743	12334
929.848	12296
929.953	12441
930.058	12213
930.163	12167
930.267	12060
930.372	12239
930.477	11988
930.581	12239
930.685	12087
930.79	11912
930.894	11965
930.998	11935
931.103	11988
931.207	11672
931.311	11638
931.415	11520
931.519	11368
931.623	11356
