Data from test_V78500241_1801.txt Node
Date: Fri Mar 25 15:22:23 CST 2022
User: usil
Spectrometer: V785-0024
Trigger mode: 0
Integration Time (sec): 4.000000E-1
Scans to average: 1
Nonlinearity correction enabled: false
Boxcar width: 0
Storing dark spectrum: false
XAxis mode: Wavelengths
Number of Pixels in Spectrum: 1024
>>>>>Begin Spectral Data<<<<<
801.071	28025
801.214	27759
801.356	27564
801.499	27477
801.641	27591
801.783	27454
801.926	27336
802.068	27393
802.211	27294
802.353	27218
802.496	27108
802.638	27195
802.78	26956
802.923	27039
803.065	27005
803.208	26979
803.35	27146
803.492	27291
803.635	27275
803.777	27085
803.919	27207
804.061	27606
804.204	27268
804.346	27241
804.488	27104
804.63	27195
804.773	27135
804.915	27218
805.057	27329
805.199	27146
805.341	27378
805.483	27279
805.626	27397
805.768	27302
805.91	27526
806.052	27416
806.194	27249
806.336	27492
806.478	27275
806.62	27386
806.762	27439
806.904	27633
807.046	27751
807.188	27698
807.33	27823
807.472	27732
807.614	27751
807.756	27778
807.898	27633
808.04	27648
808.182	27705
808.324	27660
808.465	27736
808.607	27854
808.749	28006
808.891	28086
809.033	28268
809.174	28032
809.316	27956
809.458	28063
809.6	28032
809.741	28101
809.883	28204
810.025	28249
810.166	28314
810.308	28234
810.45	28234
810.591	28029
810.733	28200
810.875	27808
811.016	27789
811.158	27819
811.299	28040
811.441	28192
811.582	28116
811.724	27991
811.865	27960
812.007	27930
812.148	28029
812.29	27983
812.431	28124
812.573	28287
812.714	28371
812.855	28470
812.997	28554
813.138	28630
813.279	28527
813.421	28493
813.562	28401
813.703	28242
813.845	28124
813.986	28044
814.127	27709
814.268	27739
814.41	27762
814.551	27736
814.692	27759
814.833	27705
814.974	27717
815.115	27755
815.256	27648
815.397	27576
815.539	27641
815.68	27481
815.821	27260
815.962	27538
816.103	27492
816.244	27336
816.385	27256
816.526	27081
816.666	26975
816.807	26914
816.948	27131
817.089	27074
817.23	26925
817.371	26921
817.512	27013
817.653	27100
817.793	26895
817.934	26842
818.075	26971
818.216	26921
818.356	26864
818.497	26933
818.638	26735
818.778	26727
818.919	26765
819.06	26777
819.2	26910
819.341	26807
819.481	26899
819.622	27096
819.762	27230
819.903	27211
820.043	27043
820.184	27214
820.324	27070
820.465	27184
820.605	27119
820.746	27070
820.886	26956
821.026	27123
821.167	27005
821.307	27135
821.447	26944
821.588	26910
821.728	26758
821.868	26583
822.008	26488
822.149	26370
822.289	26545
822.429	26180
822.569	26145
822.709	26111
822.849	26008
822.99	26058
823.13	26012
823.27	25928
823.41	25750
823.55	25597
823.69	25921
823.83	25704
823.97	25795
824.11	25563
824.25	25491
824.389	25544
824.529	25742
824.669	25662
824.809	25742
824.949	25605
825.089	25788
825.228	25620
825.368	25487
825.508	25506
825.648	25453
825.787	25533
825.927	25472
826.067	25289
826.206	25419
826.346	25540
826.485	25407
826.625	25358
826.765	25559
826.904	25518
827.044	25145
827.183	25293
827.323	25244
827.462	25312
827.601	25217
827.741	25316
827.88	25274
828.02	25057
828.159	25312
828.298	25179
828.437	25312
828.577	25129
828.716	25312
828.855	25183
828.994	24890
829.134	25031
829.273	24916
829.412	24859
829.551	24894
829.69	24970
829.829	25061
829.968	24981
830.107	25023
830.246	25034
830.385	24882
830.524	24791
830.663	24711
830.802	24734
830.941	24475
831.08	24456
831.219	24711
831.357	24726
831.496	24916
831.635	24551
831.774	24418
831.913	24475
832.051	24346
832.19	24308
832.329	24350
832.467	24251
832.606	24140
832.744	24258
832.883	24232
833.022	24152
833.16	24285
833.299	24300
833.437	24232
833.576	24315
833.714	24273
833.852	24220
833.991	24346
834.129	24372
834.267	24464
834.406	24167
834.544	24315
834.682	24220
834.821	24129
834.959	24410
835.097	24292
835.235	24376
835.373	24391
835.511	24213
835.65	24060
835.788	24114
835.926	23973
836.064	23923
836.202	24030
836.34	24148
836.478	24346
836.615	24171
836.753	24076
836.891	24171
837.029	24053
837.167	23882
837.305	24114
837.443	24068
837.58	24079
837.718	23954
837.856	23961
837.993	24015
838.131	24178
838.269	23756
838.406	23878
838.544	23786
838.681	23630
838.819	23520
838.956	23634
839.094	23467
839.231	23642
839.369	23512
839.506	23878
839.643	23760
839.781	23406
839.918	23505
840.055	23505
840.193	23497
840.33	23181
840.467	23227
840.604	23288
840.742	23600
840.879	23296
841.016	23452
841.153	23235
841.29	23455
841.427	23307
841.564	23497
841.701	23296
841.838	23463
841.975	23197
842.112	23143
842.249	23261
842.385	23140
842.522	23387
842.659	23216
842.796	23121
842.933	23181
843.069	23128
843.206	23025
843.343	23212
843.479	23159
843.616	23109
843.752	22949
843.889	22862
844.025	23037
844.162	22793
844.298	22885
844.435	22847
844.571	22809
844.708	23014
844.844	23010
844.98	23060
845.117	22904
845.253	22923
845.389	22763
845.525	22938
845.661	22664
845.798	22675
845.934	22645
846.07	22497
846.206	22607
846.342	22683
846.478	22588
846.614	22356
846.75	22394
846.886	22280
847.022	22348
847.158	22337
847.294	22341
847.429	22462
847.565	22375
847.701	22599
847.837	22131
847.972	22112
848.108	22223
848.244	22173
848.379	22048
848.515	22013
848.65	22070
848.786	21941
848.921	21968
849.057	22101
849.192	22021
849.328	22055
849.463	22055
849.598	21934
849.734	21778
849.869	21800
850.004	21747
850.14	21751
850.275	21739
850.41	21686
850.545	21781
850.68	21720
850.815	21682
850.95	21755
851.085	21838
851.22	21918
851.355	21656
851.49	21732
851.625	21728
851.76	21781
851.895	21587
852.03	21618
852.165	21774
852.299	21797
852.434	21808
852.569	21747
852.703	21713
852.838	21652
852.973	21884
853.107	21816
853.242	21713
853.376	21690
853.511	21374
853.645	21477
853.78	21580
853.914	21572
854.048	21420
854.183	21492
854.317	21553
854.451	21694
854.585	21561
854.72	21576
854.854	21622
854.988	21481
855.122	21496
855.256	21412
855.39	21511
855.524	21694
855.658	21576
855.792	21534
855.926	21583
856.06	21667
856.194	21633
856.327	21534
856.461	21443
856.595	21618
856.729	21466
856.862	21743
856.996	21622
857.13	21690
857.263	21641
857.397	21652
857.53	21496
857.664	21523
857.797	21682
857.931	21671
858.064	21542
858.197	21595
858.331	21561
858.464	21504
858.597	21367
858.731	21435
858.864	21439
858.997	21625
859.13	21511
859.263	21568
859.396	21675
859.529	21515
859.662	21526
859.795	21568
859.928	21523
860.061	21701
860.194	21812
860.327	21686
860.46	21561
860.592	21774
860.725	21804
860.858	21724
860.99	21633
861.123	21496
861.256	21447
861.388	21466
861.521	22158
861.653	21344
861.786	21275
861.918	21351
862.05	21496
862.183	21572
862.315	21580
862.447	21507
862.58	21519
862.712	21252
862.844	21214
862.976	21450
863.108	21241
863.24	21580
863.372	21317
863.504	21264
863.636	21294
863.768	21294
863.9	21218
864.032	21233
864.164	21237
864.296	21233
864.428	21317
864.559	21241
864.691	21359
864.823	21279
864.954	21291
865.086	21249
865.217	21138
865.349	21074
865.48	21104
865.612	21207
865.743	21264
865.875	21173
866.006	21112
866.137	21127
866.269	21116
866.4	21112
866.531	21123
866.662	21001
866.793	21154
866.924	21176
867.055	21146
867.186	21032
867.317	21017
867.448	21150
867.579	21013
867.71	20990
867.841	21062
867.972	21154
868.103	21066
868.233	21112
868.364	21169
868.495	21207
868.625	21264
868.756	21435
868.886	21226
869.017	21294
869.147	21416
869.278	21325
869.408	21367
869.539	21268
869.669	21344
869.799	21367
869.929	21447
870.06	21344
870.19	21622
870.32	21561
870.45	21660
870.58	21732
870.71	21762
870.84	21789
870.97	21625
871.1	21736
871.23	21926
871.36	21907
871.489	21736
871.619	21884
871.749	21819
871.879	21876
872.008	21972
872.138	21975
872.267	21983
872.397	21781
872.526	21747
872.656	21736
872.785	21873
872.915	21926
873.044	22006
873.173	21991
873.303	22010
873.432	21949
873.561	22051
873.69	21949
873.819	21915
873.948	21994
874.077	21926
874.206	21880
874.335	21880
874.464	22029
874.593	22097
874.722	22059
874.851	22211
874.979	22158
875.108	22158
875.237	22219
875.365	21983
875.494	22070
875.623	22154
875.751	22067
875.88	22173
876.008	22238
876.136	22261
876.265	22455
876.393	22694
876.521	22580
876.65	22691
876.778	22561
876.906	22470
877.034	22489
877.162	22512
877.29	22428
877.418	22516
877.546	22565
877.674	22573
877.802	22417
877.93	22462
878.058	22402
878.185	22344
878.313	22497
878.441	22485
878.568	22348
878.696	22436
878.824	22626
878.951	22554
879.079	22774
879.206	22778
879.333	22596
879.461	22512
879.588	22569
879.715	22683
879.842	22706
879.97	22596
880.097	22295
880.224	22363
880.351	22436
880.478	22314
880.605	22322
880.732	22272
880.859	22497
880.986	22367
881.112	22287
881.239	22082
881.366	22139
881.493	21983
881.619	21937
881.746	21911
881.872	21930
881.999	21907
882.125	21793
882.252	22021
882.378	21949
882.505	21926
882.631	21747
882.757	21637
882.883	21705
883.01	21492
883.136	21485
883.262	21534
883.388	21454
883.514	21447
883.64	21557
883.766	21500
883.892	21412
884.018	21397
884.143	21488
884.269	21591
884.395	21325
884.52	21203
884.646	21245
884.772	21169
884.897	21146
885.023	21264
885.148	21298
885.274	21496
885.399	21344
885.524	21195
885.65	21252
885.775	21260
885.9	21093
886.025	21275
886.15	21180
886.275	21310
886.4	21207
886.525	21176
886.65	21112
886.775	21230
886.9	21325
887.025	21294
887.149	21108
887.274	20994
887.399	20979
887.523	21051
887.648	20899
887.773	20902
887.897	21108
888.021	21123
888.146	20906
888.27	21119
888.395	21085
888.519	20971
888.643	21100
888.767	20967
888.891	20929
889.015	20781
889.139	20857
889.263	20727
889.387	20853
889.511	21043
889.635	20724
889.759	20644
889.883	20731
890.006	20769
890.13	20800
890.254	20712
890.377	20781
890.501	20541
890.624	20533
890.748	20606
890.871	20396
890.995	20377
891.118	20469
891.241	20419
891.364	20339
891.488	20518
891.611	20282
891.734	20404
891.857	20400
891.98	20339
892.103	20476
892.226	20374
892.349	20229
892.471	20088
892.594	20313
892.717	20290
892.839	20271
892.962	20244
893.085	20313
893.207	20240
893.33	20077
893.452	20142
893.575	20244
893.697	20259
893.819	20328
893.941	20389
894.064	20385
894.186	20214
894.308	20142
894.43	20343
894.552	20431
894.674	20419
894.796	20206
894.918	20278
895.04	20092
895.161	20408
895.283	20237
895.405	20145
895.526	20210
895.648	20259
895.769	20343
895.891	20305
896.012	20381
896.134	20412
896.255	20396
896.376	20248
896.498	20328
896.619	20229
896.74	20206
896.861	20313
896.982	20412
897.103	20720
897.224	20632
897.345	20511
897.466	20396
897.587	20499
897.708	20564
897.828	20431
897.949	20408
898.07	20328
898.19	20492
898.311	20518
898.431	20385
898.552	20507
898.672	20533
898.792	20370
898.913	20336
899.033	20446
899.153	20328
899.273	20122
899.393	20210
899.513	20202
899.633	20237
899.753	20199
899.873	20126
899.993	20278
900.113	20130
900.232	20210
900.352	20103
900.472	20065
900.591	19963
900.711	19967
900.83	19993
900.95	20115
901.069	19997
901.189	19811
901.308	19704
901.427	19632
901.546	19647
901.665	19639
901.784	19563
901.904	19491
902.023	19426
902.141	19198
902.26	19015
902.379	19118
902.498	19080
902.617	18943
902.735	19084
902.854	18897
902.973	19038
903.091	18703
903.21	18715
903.328	18654
903.446	18707
903.565	18601
903.683	18532
903.801	18445
903.919	18498
904.038	18452
904.156	18323
904.274	18372
904.392	18319
904.51	18285
904.627	18304
904.745	18403
904.863	18418
904.981	18213
905.098	18026
905.216	17977
905.334	18144
905.451	18003
905.569	17908
905.686	18041
905.803	18034
905.921	17840
906.038	17745
906.155	17764
906.272	17604
906.389	17634
906.506	17512
906.623	17615
906.74	17467
906.857	17429
906.974	17372
907.091	17509
907.208	17570
907.324	17512
907.441	17436
907.557	17258
907.674	17303
907.79	17208
907.907	17151
908.023	17204
908.139	17254
908.256	17216
908.372	17143
908.488	17113
908.604	17006
908.72	17014
908.836	16995
908.952	16961
909.068	16984
909.184	16995
909.3	16896
909.415	16930
909.531	16946
909.647	16687
909.762	16782
909.878	16497
909.993	16668
910.108	16660
910.224	16653
910.339	16577
910.454	16459
910.57	16459
910.685	16379
910.8	16733
910.915	16596
911.03	16443
911.145	16249
911.259	16356
911.374	16310
911.489	16196
911.604	16090
911.718	16074
911.833	16002
911.947	15865
912.062	15736
912.176	16078
912.291	15911
912.405	15926
912.519	16097
912.633	16154
912.748	16021
912.862	15956
912.976	15800
913.09	15762
913.204	15698
913.318	15698
913.431	15850
913.545	15911
913.659	15835
913.772	15694
913.886	15637
914	15557
914.113	15603
914.226	15751
914.34	15660
914.453	15485
914.566	15614
914.68	15580
914.793	15462
914.906	15275
915.019	15275
915.132	15207
915.245	15218
915.358	15195
915.47	15203
915.583	15211
915.696	15237
915.809	15272
915.921	15355
916.034	15176
916.146	15256
916.259	15070
916.371	15161
916.483	15131
916.595	15028
916.708	14986
916.82	15062
916.932	14921
917.044	15001
917.156	14937
917.268	14807
917.38	14857
917.491	14899
917.603	14906
917.715	14941
917.826	14899
917.938	14845
918.049	14754
918.161	14788
918.272	14960
918.384	14925
918.495	14785
918.606	14644
918.717	14545
918.828	14606
918.939	14575
919.05	14533
919.161	14602
919.272	14343
919.383	14488
919.494	14613
919.604	14853
919.715	14583
919.826	14514
919.936	14587
920.047	14594
920.157	14613
920.267	14712
920.378	14625
920.488	14511
920.598	14758
920.708	14826
920.818	14781
920.928	14743
921.038	14963
921.148	14861
921.258	14457
921.368	14396
921.477	14309
921.587	14290
921.697	14240
921.806	14400
921.916	14172
922.025	13898
922.134	14012
922.244	13811
922.353	14005
922.462	13742
922.571	13776
922.68	13620
922.789	13731
922.898	13655
923.007	13590
923.116	13674
923.224	13521
923.333	13639
923.442	13396
923.55	13403
923.659	13392
923.767	13445
923.876	13362
923.984	13487
924.092	13312
924.201	13422
924.309	13362
924.417	13289
924.525	13419
924.633	13244
924.741	14176
924.849	13065
924.956	13244
925.064	13023
925.172	12939
925.279	13034
925.387	12962
925.494	12985
925.602	13179
925.709	13031
925.816	12886
925.924	12897
926.031	13095
926.138	12886
926.245	12973
926.352	12909
926.459	12985
926.566	13015
926.673	12935
926.779	12707
926.886	12753
926.993	12688
927.099	12521
927.206	12517
927.312	12460
927.419	12601
927.525	12612
927.631	12582
927.737	12403
927.843	12403
927.95	12220
928.056	12395
928.162	12464
928.267	12502
928.373	13000
928.479	12426
928.585	12197
928.69	12323
928.796	12308
928.901	12277
929.007	12178
929.112	12315
929.218	12197
929.323	12121
929.428	12140
929.533	12163
929.638	12117
929.743	12098
929.848	12030
929.953	12117
930.058	11988
930.163	11767
930.267	11748
930.372	11942
930.477	11688
930.581	11950
930.685	11775
930.79	11688
930.894	11703
930.998	11661
931.103	11729
931.207	11417
931.311	11330
931.415	11227
931.519	11094
931.623	11045
