Data from test_V78500241_1467.txt Node
Date: Fri Mar 25 15:20:04 CST 2022
User: usil
Spectrometer: V785-0024
Trigger mode: 0
Integration Time (sec): 4.000000E-1
Scans to average: 1
Nonlinearity correction enabled: false
Boxcar width: 0
Storing dark spectrum: false
XAxis mode: Wavelengths
Number of Pixels in Spectrum: 1024
>>>>>Begin Spectral Data<<<<<
801.071	28044
801.214	28082
801.356	27808
801.499	27629
801.641	27580
801.783	27648
801.926	27530
802.068	27542
802.211	27610
802.353	27447
802.496	27336
802.638	27348
802.78	27279
802.923	27211
803.065	27055
803.208	27199
803.35	27272
803.492	27408
803.635	27382
803.777	27241
803.919	27458
804.061	27770
804.204	27530
804.346	27454
804.488	27332
804.63	27515
804.773	27317
804.915	27538
805.057	27568
805.199	27348
805.341	27447
805.483	27739
805.626	27591
805.768	27443
805.91	27462
806.052	27568
806.194	27515
806.336	27827
806.478	27644
806.62	27648
806.762	27667
806.904	27819
807.046	27949
807.188	28036
807.33	28051
807.472	28067
807.614	28013
807.756	27964
807.898	27968
808.04	27720
808.182	27797
808.324	27808
808.465	27854
808.607	28032
808.749	28360
808.891	28341
809.033	28489
809.174	28291
809.316	28253
809.458	28325
809.6	28158
809.741	28375
809.883	28443
810.025	28512
810.166	28630
810.308	28519
810.45	28523
810.591	28504
810.733	28097
810.875	28310
811.016	28112
811.158	28090
811.299	28169
811.441	28390
811.582	28341
811.724	28379
811.865	28280
812.007	28257
812.148	28188
812.29	28261
812.431	28424
812.573	28653
812.714	28729
812.855	28816
812.997	28866
813.138	29052
813.279	28839
813.421	28790
813.562	28717
813.703	28603
813.845	28497
813.986	28162
814.127	28093
814.268	27926
814.41	27880
814.551	27956
814.692	28044
814.833	27857
814.974	27857
815.115	28067
815.256	27869
815.397	27701
815.539	27770
815.68	27732
815.821	27606
815.962	27747
816.103	27713
816.244	27682
816.385	27553
816.526	27481
816.666	27302
816.807	27313
816.948	27348
817.089	27458
817.23	27329
817.371	27245
817.512	27207
817.653	27252
817.793	27256
817.934	27180
818.075	27150
818.216	27310
818.356	27184
818.497	27024
818.638	26921
818.778	26925
818.919	27005
819.06	27100
819.2	27176
819.341	27329
819.481	27188
819.622	27294
819.762	27660
819.903	27363
820.043	27389
820.184	27389
820.324	27306
820.465	27431
820.605	27283
820.746	27291
820.886	27192
821.026	27321
821.167	27222
821.307	27416
821.447	27252
821.588	27085
821.728	27051
821.868	26845
822.008	26613
822.149	26651
822.289	26674
822.429	26339
822.569	26514
822.709	26492
822.849	26126
822.99	26130
823.13	26237
823.27	26202
823.41	26187
823.55	25898
823.69	26024
823.83	26016
823.97	26001
824.11	25712
824.25	25822
824.389	25830
824.529	25989
824.669	25803
824.809	25997
824.949	25879
825.089	25921
825.228	25860
825.368	25700
825.508	25734
825.648	25780
825.787	25753
825.927	25845
826.067	25685
826.206	25723
826.346	25746
826.485	25727
826.625	25814
826.765	25833
826.904	25818
827.044	25628
827.183	25460
827.323	25369
827.462	25483
827.601	25491
827.741	25415
827.88	25381
828.02	25400
828.159	25392
828.298	25388
828.437	25525
828.577	25396
828.716	25556
828.855	25369
828.994	25160
829.134	25194
829.273	25164
829.412	25080
829.551	25019
829.69	25183
829.829	25190
829.968	25160
830.107	25095
830.246	25187
830.385	25110
830.524	24981
830.663	24871
830.802	24840
830.941	24730
831.08	24677
831.219	24783
831.357	24829
831.496	24791
831.635	24692
831.774	24627
831.913	24696
832.051	24418
832.19	24585
832.329	24566
832.467	24441
832.606	24467
832.744	24327
832.883	24486
833.022	24380
833.16	24414
833.299	24414
833.437	24502
833.576	24456
833.714	24574
833.852	24483
833.991	24452
834.129	24437
834.267	24525
834.406	24498
834.544	24350
834.682	24479
834.821	24399
834.959	24677
835.097	24369
835.235	24486
835.373	24399
835.511	24422
835.65	24308
835.788	24239
835.926	24167
836.064	24079
836.202	24114
836.34	24361
836.478	24205
836.615	24239
836.753	24300
836.891	24167
837.029	24323
837.167	24273
837.305	24136
837.443	24129
837.58	24079
837.718	24247
837.856	24034
837.993	24121
838.131	24018
838.269	23859
838.406	23923
838.544	23870
838.681	23729
838.819	23802
838.956	23528
839.094	23501
839.231	23604
839.369	23752
839.506	23973
839.643	23779
839.781	23543
839.918	23554
840.055	23661
840.193	23459
840.33	23486
840.467	23535
840.604	23474
840.742	23737
840.879	23433
841.016	23467
841.153	23299
841.29	23478
841.427	23478
841.564	23535
841.701	23448
841.838	23395
841.975	23273
842.112	23543
842.249	23284
842.385	23181
842.522	23474
842.659	23288
842.796	23200
842.933	23292
843.069	23208
843.206	23208
843.343	23250
843.479	23174
843.616	23200
843.752	23010
843.889	23105
844.025	23162
844.162	22980
844.298	23075
844.435	23029
844.571	23010
844.708	22942
844.844	23143
844.98	23204
845.117	23124
845.253	22873
845.389	22938
845.525	22877
845.661	22820
845.798	22782
845.934	22736
846.07	22790
846.206	22588
846.342	22908
846.478	22691
846.614	22656
846.75	22405
846.886	22443
847.022	22535
847.158	22622
847.294	22428
847.429	22379
847.565	22470
847.701	22698
847.837	22166
847.972	22272
848.108	22291
848.244	22363
848.379	22105
848.515	22044
848.65	21979
848.786	21998
848.921	22154
849.057	22154
849.192	22131
849.328	22055
849.463	22112
849.598	21941
849.734	22051
849.869	21994
850.004	21895
850.14	21873
850.275	21934
850.41	21823
850.545	21854
850.68	21644
850.815	21865
850.95	21819
851.085	22059
851.22	21975
851.355	21892
851.49	21724
851.625	21785
851.76	21751
851.895	21720
852.03	21743
852.165	21865
852.299	21854
852.434	21816
852.569	21823
852.703	21709
852.838	21842
852.973	21937
853.107	21831
853.242	21755
853.376	21644
853.511	21606
853.645	21603
853.78	21785
853.914	21698
854.048	21545
854.183	21545
854.317	21549
854.451	21766
854.585	21587
854.72	21679
854.854	21682
854.988	21568
855.122	21603
855.256	21450
855.39	21545
855.524	21720
855.658	21587
855.792	21614
855.926	21644
856.06	21690
856.194	21766
856.327	21641
856.461	21591
856.595	21663
856.729	21686
856.862	21766
856.996	21637
857.13	21751
857.263	21709
857.397	21682
857.53	21591
857.664	21720
857.797	21644
857.931	21686
858.064	21572
858.197	21762
858.331	21663
858.464	21439
858.597	21622
858.731	21625
858.864	21656
858.997	21671
859.13	21690
859.263	21759
859.396	21720
859.529	21538
859.662	21561
859.795	21633
859.928	21629
860.061	21736
860.194	21911
860.327	21637
860.46	21694
860.592	21778
860.725	21701
860.858	21804
860.99	21694
861.123	21561
861.256	21622
861.388	21561
861.521	22219
861.653	21530
861.786	21420
861.918	21420
862.05	21580
862.183	21583
862.315	21545
862.447	21713
862.58	21545
862.712	21397
862.844	21241
862.976	21412
863.108	21401
863.24	21800
863.372	21340
863.504	21416
863.636	21355
863.768	21336
863.9	21252
864.032	21230
864.164	21214
864.296	21226
864.428	21412
864.559	21401
864.691	21374
864.823	21321
864.954	21317
865.086	21431
865.217	21241
865.349	21173
865.48	21279
865.612	21249
865.743	21313
865.875	21306
866.006	21211
866.137	21218
866.269	21188
866.4	21184
866.531	21188
866.662	21150
866.793	21161
866.924	21161
867.055	21275
867.186	21081
867.317	21070
867.448	21009
867.579	21180
867.71	21001
867.841	21180
867.972	21195
868.103	21157
868.233	21241
868.364	21184
868.495	21306
868.625	21393
868.756	21469
868.886	21294
869.017	21272
869.147	21428
869.278	21355
869.408	21382
869.539	21393
869.669	21511
869.799	21507
869.929	21538
870.06	21595
870.19	21709
870.32	21709
870.45	21705
870.58	21751
870.71	21979
870.84	21823
870.97	21850
871.1	21819
871.23	21884
871.36	22048
871.489	21899
871.619	22059
871.749	21918
871.879	22059
872.008	22124
872.138	21994
872.267	22017
872.397	21854
872.526	21804
872.656	21800
872.785	21926
872.915	22059
873.044	22105
873.173	22029
873.303	22010
873.432	22116
873.561	22181
873.69	21888
873.819	22044
873.948	22105
874.077	22044
874.206	21922
874.335	22006
874.464	22067
874.593	22234
874.722	22116
874.851	22112
874.979	22067
875.108	22219
875.237	22196
875.365	22181
875.494	22177
875.623	22329
875.751	22211
875.88	22325
876.008	22360
876.136	22337
876.265	22596
876.393	22740
876.521	22774
876.65	22710
876.778	22550
876.906	22519
877.034	22470
877.162	22675
877.29	22702
877.418	22478
877.546	22637
877.674	22588
877.802	22649
877.93	22504
878.058	22687
878.185	22417
878.313	22504
878.441	22561
878.568	22417
878.696	22535
878.824	22459
878.951	22664
879.079	22702
879.206	22858
879.333	22797
879.461	22611
879.588	22675
879.715	22740
879.842	22930
879.97	22729
880.097	22451
880.224	22409
880.351	22371
880.478	22375
880.605	22367
880.732	22344
880.859	22713
880.986	22325
881.112	22474
881.239	22181
881.366	22090
881.493	22059
881.619	21979
881.746	21987
881.872	21945
881.999	21922
882.125	21789
882.252	21835
882.378	22017
882.505	21979
882.631	21861
882.757	21682
882.883	21774
883.01	21667
883.136	21526
883.262	21507
883.388	21507
883.514	21549
883.64	21804
883.766	21572
883.892	21218
884.018	21564
884.143	21610
884.269	21679
884.395	21401
884.52	21264
884.646	21401
884.772	21203
884.897	21203
885.023	21344
885.148	21428
885.274	21504
885.399	21359
885.524	21256
885.65	21389
885.775	21230
885.9	21313
886.025	21393
886.15	21340
886.275	21287
886.4	21272
886.525	21348
886.65	21256
886.775	21195
886.9	21424
887.025	21466
887.149	21180
887.274	21180
887.399	21093
887.523	21036
887.648	20982
887.773	20826
887.897	21085
888.021	21047
888.146	20918
888.27	21028
888.395	21047
888.519	20956
888.643	21119
888.767	21146
888.891	20952
889.015	20883
889.139	20872
889.263	20792
889.387	20933
889.511	20937
889.635	21055
889.759	20773
889.883	20800
890.006	20864
890.13	20804
890.254	20830
890.377	20708
890.501	20655
890.624	20552
890.748	20598
890.871	20495
890.995	20271
891.118	20419
891.241	20518
891.364	20415
891.488	20590
891.611	20396
891.734	20469
891.857	20396
891.98	20385
892.103	20366
892.226	20278
892.349	20366
892.471	20206
892.594	20351
892.717	20355
892.839	20362
892.962	20370
893.085	20446
893.207	20404
893.33	20153
893.452	20206
893.575	20389
893.697	20225
893.819	20431
893.941	20492
894.064	20427
894.186	20244
894.308	20328
894.43	20434
894.552	20667
894.674	20362
894.796	20138
894.918	20294
895.04	20301
895.161	20438
895.283	20339
895.405	20282
895.526	20355
895.648	20290
895.769	20351
895.891	20377
896.012	20408
896.134	20385
896.255	20339
896.376	20263
896.498	20396
896.619	20385
896.74	20355
896.861	20461
896.982	20682
897.103	20800
897.224	20667
897.345	20594
897.466	20564
897.587	20590
897.708	20701
897.828	20571
897.949	20590
898.07	20476
898.19	20488
898.311	20636
898.431	20541
898.552	20541
898.672	20674
898.792	20541
898.913	20583
899.033	20396
899.153	20404
899.273	20309
899.393	20374
899.513	20263
899.633	20259
899.753	20233
899.873	20142
899.993	20362
900.113	20294
900.232	20294
900.352	20145
900.472	20199
900.591	20157
900.711	20134
900.83	19974
900.95	20191
901.069	20142
901.189	19932
901.308	19750
901.427	19635
901.546	19696
901.665	19719
901.784	19605
901.904	19571
902.023	19514
902.141	19194
902.26	19187
902.379	19255
902.498	19247
902.617	19228
902.735	19206
902.854	19187
902.973	19103
903.091	18802
903.21	18825
903.328	18924
903.446	18779
903.565	18692
903.683	18639
903.801	18604
903.919	18585
904.038	18551
904.156	18517
904.274	18479
904.392	18365
904.51	18391
904.627	18467
904.745	18464
904.863	18357
904.981	18140
905.098	18190
905.216	18121
905.334	18110
905.451	18136
905.569	18053
905.686	18220
905.803	18015
905.921	17958
906.038	17908
906.155	17942
906.272	17817
906.389	17836
906.506	17680
906.623	17653
906.74	17581
906.857	17425
906.974	17467
907.091	17623
907.208	17661
907.324	17642
907.441	17528
907.557	17334
907.674	17387
907.79	17269
907.907	17330
908.023	17387
908.139	17368
908.256	17296
908.372	17166
908.488	17155
908.604	17067
908.72	17060
908.836	17045
908.952	17037
909.068	17022
909.184	17189
909.3	17105
909.415	17029
909.531	17018
909.647	16816
909.762	16691
909.878	16721
909.993	16801
910.108	16744
910.224	16748
910.339	16713
910.454	16630
910.57	16500
910.685	16538
910.8	16729
910.915	16729
911.03	16512
911.145	16337
911.259	16329
911.374	16344
911.489	16265
911.604	16207
911.718	16082
911.833	16074
911.947	15953
912.062	15979
912.176	16097
912.291	16051
912.405	16086
912.519	16226
912.633	16196
912.748	16143
912.862	16105
912.976	15892
913.09	15816
913.204	15846
913.318	15926
913.431	16112
913.545	15941
913.659	16074
913.772	15739
913.886	15816
914	15682
914.113	15747
914.226	15739
914.34	15838
914.453	15587
914.566	15850
914.68	15561
914.793	15496
914.906	15469
915.019	15317
915.132	15260
915.245	15302
915.358	15420
915.47	15332
915.583	15348
915.696	15405
915.809	15416
915.921	15469
916.034	15268
916.146	15138
916.259	15211
916.371	15332
916.483	15211
916.595	15188
916.708	15188
916.82	15222
916.932	15123
917.044	15104
917.156	14937
917.268	14971
917.38	14979
917.491	14910
917.603	14971
917.715	15074
917.826	15013
917.938	14880
918.049	14838
918.161	14937
918.272	14967
918.384	15047
918.495	14853
918.606	14731
918.717	14777
918.828	14659
918.939	14629
919.05	14632
919.161	14686
919.272	14415
919.383	14579
919.494	14674
919.604	14975
919.715	14659
919.826	14545
919.936	14629
920.047	14636
920.157	14765
920.267	14872
920.378	14735
920.488	14560
920.598	14724
920.708	15005
920.818	14815
920.928	14777
921.038	14941
921.148	14864
921.258	14625
921.368	14503
921.477	14423
921.587	14286
921.697	14225
921.806	14313
921.916	14229
922.025	14046
922.134	14123
922.244	13959
922.353	14111
922.462	13963
922.571	13849
922.68	13734
922.789	13715
922.898	13731
923.007	13601
923.116	13689
923.224	13655
923.333	13636
923.442	13533
923.55	13491
923.659	13464
923.767	13590
923.876	13483
923.984	13476
924.092	13426
924.201	13396
924.309	13499
924.417	13369
924.525	13419
924.633	13304
924.741	14039
924.849	13133
924.956	13297
925.064	13141
925.172	13023
925.279	13103
925.387	13129
925.494	13061
925.602	13152
925.709	13091
925.816	13019
925.924	12996
926.031	13095
926.138	13012
926.245	13118
926.352	12935
926.459	13046
926.566	13091
926.673	12947
926.779	12764
926.886	12901
926.993	12734
927.099	12677
927.206	12669
927.312	12627
927.419	12597
927.525	12593
927.631	12734
927.737	12460
927.843	12437
927.95	12452
928.056	12464
928.162	12456
928.267	12494
928.373	13012
928.479	12532
928.585	12350
928.69	12361
928.796	12464
928.901	12319
929.007	12304
929.112	12273
929.218	12281
929.323	12232
929.428	12175
929.533	12254
929.638	12057
929.743	12171
929.848	12308
929.953	12144
930.058	12038
930.163	11828
930.267	11901
930.372	11988
930.477	11851
930.581	12136
930.685	11828
930.79	11737
930.894	11798
930.998	11741
931.103	11764
931.207	11486
931.311	11410
931.415	11349
931.519	11143
931.623	11102
