Data from test_V78500241_1661.txt Node
Date: Fri Mar 25 15:21:25 CST 2022
User: usil
Spectrometer: V785-0024
Trigger mode: 0
Integration Time (sec): 4.000000E-1
Scans to average: 1
Nonlinearity correction enabled: false
Boxcar width: 0
Storing dark spectrum: false
XAxis mode: Wavelengths
Number of Pixels in Spectrum: 1024
>>>>>Begin Spectral Data<<<<<
801.071	27972
801.214	27918
801.356	27705
801.499	27561
801.641	27500
801.783	27500
801.926	27447
802.068	27477
802.211	27389
802.353	27367
802.496	27176
802.638	27218
802.78	27222
802.923	27058
803.065	27085
803.208	26986
803.35	27260
803.492	27306
803.635	27351
803.777	27272
803.919	27393
804.061	27629
804.204	27386
804.346	27466
804.488	27405
804.63	27298
804.773	27405
804.915	27340
805.057	27545
805.199	27367
805.341	27420
805.483	27538
805.626	27473
805.768	27435
805.91	27424
806.052	27545
806.194	27382
806.336	27526
806.478	27538
806.62	27526
806.762	27663
806.904	27736
807.046	27991
807.188	27903
807.33	27873
807.472	27918
807.614	27804
807.756	27892
807.898	27724
808.04	27728
808.182	27785
808.324	27804
808.465	27774
808.607	28109
808.749	28158
808.891	28257
809.033	28215
809.174	28219
809.316	28055
809.458	28223
809.6	28090
809.741	28139
809.883	28185
810.025	28333
810.166	28348
810.308	28447
810.45	28428
810.591	28367
810.733	28173
810.875	28192
811.016	27949
811.158	27972
811.299	28143
811.441	28284
811.582	28181
811.724	28051
811.865	27964
812.007	28101
812.148	28219
812.29	28055
812.431	28291
812.573	28508
812.714	28455
812.855	28683
812.997	28763
813.138	28942
813.279	28706
813.421	28725
813.562	28569
813.703	28436
813.845	28272
813.986	28158
814.127	27800
814.268	27838
814.41	27831
814.551	27774
814.692	27819
814.833	27762
814.974	27781
815.115	27827
815.256	27728
815.397	27743
815.539	27690
815.68	27652
815.821	27507
815.962	27641
816.103	27656
816.244	27427
816.385	27561
816.526	27313
816.666	27294
816.807	27135
816.948	27119
817.089	27222
817.23	27214
817.371	27032
817.512	27096
817.653	27127
817.793	27020
817.934	27032
818.075	27161
818.216	27313
818.356	27001
818.497	26963
818.638	26842
818.778	26868
818.919	26800
819.06	26868
819.2	27085
819.341	27043
819.481	27066
819.622	27199
819.762	27420
819.903	27332
820.043	27321
820.184	27138
820.324	27268
820.465	27374
820.605	27199
820.746	27123
820.886	27211
821.026	27165
821.167	27104
821.307	27241
821.447	27146
821.588	26921
821.728	26883
821.868	26792
822.008	26541
822.149	26636
822.289	26594
822.429	26374
822.569	26256
822.709	26214
822.849	26164
822.99	26062
823.13	26069
823.27	26001
823.41	25875
823.55	25803
823.69	25959
823.83	25909
823.97	25921
824.11	25708
824.25	25723
824.389	25746
824.529	25765
824.669	25753
824.809	25833
824.949	25765
825.089	25849
825.228	25761
825.368	25670
825.508	25613
825.648	25731
825.787	25590
825.927	25643
826.067	25734
826.206	25495
826.346	25670
826.485	25651
826.625	25689
826.765	25712
826.904	25628
827.044	25434
827.183	25365
827.323	25354
827.462	25377
827.601	25384
827.741	25419
827.88	25324
828.02	25232
828.159	25308
828.298	25419
828.437	25335
828.577	25255
828.716	25426
828.855	25213
828.994	24913
829.134	24970
829.273	25050
829.412	25031
829.551	24966
829.69	25065
829.829	25072
829.968	24962
830.107	25194
830.246	25038
830.385	24981
830.524	24951
830.663	24871
830.802	24859
830.941	24669
831.08	24578
831.219	24753
831.357	24612
831.496	24817
831.635	24620
831.774	24467
831.913	24544
832.051	24395
832.19	24353
832.329	24388
832.467	24319
832.606	24277
832.744	24254
832.883	24205
833.022	24319
833.16	24376
833.299	24369
833.437	24300
833.576	24353
833.714	24361
833.852	24388
833.991	24350
834.129	24540
834.267	24395
834.406	24372
834.544	24369
834.682	24391
834.821	24300
834.959	24460
835.097	24311
835.235	24407
835.373	24209
835.511	24289
835.65	24224
835.788	24327
835.926	24095
836.064	23980
836.202	24015
836.34	24201
836.478	24323
836.615	24087
836.753	24197
836.891	24258
837.029	24338
837.167	24083
837.305	24076
837.443	24007
837.58	24235
837.718	24102
837.856	24106
837.993	24034
838.131	23973
838.269	23889
838.406	23885
838.544	23840
838.681	23668
838.819	23775
838.956	23455
839.094	23543
839.231	23585
839.369	23718
839.506	23775
839.643	23699
839.781	23520
839.918	23482
840.055	23570
840.193	23509
840.33	23459
840.467	23307
840.604	23448
840.742	23707
840.879	23265
841.016	23417
841.153	23280
841.29	23444
841.427	23318
841.564	23360
841.701	23417
841.838	23512
841.975	23284
842.112	23303
842.249	23102
842.385	23079
842.522	23414
842.659	23246
842.796	23132
842.933	23029
843.069	23151
843.206	23193
843.343	23231
843.479	23318
843.616	23170
843.752	23044
843.889	23067
844.025	23083
844.162	22976
844.298	23102
844.435	22949
844.571	22847
844.708	23098
844.844	23155
844.98	22999
845.117	22991
845.253	23067
845.389	22763
845.525	22915
845.661	22767
845.798	22679
845.934	22869
846.07	22736
846.206	22744
846.342	22850
846.478	22611
846.614	22409
846.75	22443
846.886	22371
847.022	22497
847.158	22386
847.294	22367
847.429	22531
847.565	22394
847.701	22698
847.837	22128
847.972	22131
848.108	22310
848.244	22166
848.379	21994
848.515	21903
848.65	22051
848.786	22082
848.921	21930
849.057	22131
849.192	22116
849.328	22051
849.463	22051
849.598	21945
849.734	22013
849.869	21819
850.004	21778
850.14	21800
850.275	21812
850.41	21751
850.545	21766
850.68	21838
850.815	21755
850.95	21762
851.085	22074
851.22	21808
851.355	21785
851.49	21835
851.625	21705
851.76	21656
851.895	21561
852.03	21568
852.165	21736
852.299	21766
852.434	21838
852.569	21778
852.703	21804
852.838	21800
852.973	21888
853.107	21873
853.242	21660
853.376	21557
853.511	21473
853.645	21606
853.78	21603
853.914	21648
854.048	21549
854.183	21648
854.317	21610
854.451	21831
854.585	21705
854.72	21591
854.854	21629
854.988	21542
855.122	21622
855.256	21492
855.39	21477
855.524	21633
855.658	21538
855.792	21542
855.926	21671
856.06	21576
856.194	21679
856.327	21595
856.461	21435
856.595	21652
856.729	21519
856.862	21625
856.996	21694
857.13	21591
857.263	21705
857.397	21747
857.53	21755
857.664	21728
857.797	21690
857.931	21751
858.064	21538
858.197	21789
858.331	21496
858.464	21561
858.597	21416
858.731	21568
858.864	21583
858.997	21496
859.13	21561
859.263	21671
859.396	21500
859.529	21538
859.662	21473
859.795	21557
859.928	21679
860.061	21709
860.194	21781
860.327	21641
860.46	21523
860.592	21679
860.725	21739
860.858	21709
860.99	21583
861.123	21534
861.256	21488
861.388	21542
861.521	22223
861.653	21363
861.786	21355
861.918	21443
862.05	21523
862.183	21523
862.315	21412
862.447	21447
862.58	21542
862.712	21359
862.844	21230
862.976	21378
863.108	21382
863.24	21808
863.372	21237
863.504	21302
863.636	21218
863.768	21386
863.9	21359
864.032	21233
864.164	21173
864.296	21397
864.428	21355
864.559	21332
864.691	21233
864.823	21412
864.954	21169
865.086	21283
865.217	21218
865.349	21203
865.48	21195
865.612	21310
865.743	21256
865.875	21226
866.006	21233
866.137	21245
866.269	21188
866.4	21260
866.531	21188
866.662	21199
866.793	21032
866.924	21192
867.055	21157
867.186	21146
867.317	21173
867.448	21024
867.579	21138
867.71	21043
867.841	20887
867.972	21051
868.103	21085
868.233	21127
868.364	21165
868.495	21161
868.625	21389
868.756	21439
868.886	21287
869.017	21317
869.147	21488
869.278	21466
869.408	21283
869.539	21386
869.669	21496
869.799	21485
869.929	21583
870.06	21477
870.19	21660
870.32	21694
870.45	21690
870.58	21842
870.71	21869
870.84	21884
870.97	21656
871.1	21747
871.23	21911
871.36	21793
871.489	21869
871.619	21842
871.749	21899
871.879	21964
872.008	21880
872.138	21892
872.267	21865
872.397	21888
872.526	21766
872.656	21804
872.785	21915
872.915	21922
873.044	22036
873.173	22135
873.303	22074
873.432	22063
873.561	22032
873.69	22021
873.819	22029
873.948	21994
874.077	21846
874.206	22017
874.335	21888
874.464	22006
874.593	22265
874.722	22223
874.851	22238
874.979	22226
875.108	22147
875.237	22097
875.365	22078
875.494	22063
875.623	22226
875.751	22147
875.88	22188
876.008	22306
876.136	22398
876.265	22561
876.393	22725
876.521	22577
876.65	22653
876.778	22531
876.906	22603
877.034	22489
877.162	22649
877.29	22531
877.418	22478
877.546	22603
877.674	22573
877.802	22527
877.93	22630
878.058	22504
878.185	22280
878.313	22329
878.441	22447
878.568	22459
878.696	22447
878.824	22653
878.951	22660
879.079	22759
879.206	22854
879.333	22733
879.461	22512
879.588	22622
879.715	22698
879.842	22733
879.97	22592
880.097	22447
880.224	22371
880.351	22497
880.478	22333
880.605	22398
880.732	22276
880.859	22466
880.986	22310
881.112	22440
881.239	22181
881.366	22112
881.493	22078
881.619	21960
881.746	21956
881.872	21941
881.999	21876
882.125	21781
882.252	22021
882.378	21949
882.505	22067
882.631	21690
882.757	21614
882.883	21682
883.01	21675
883.136	21603
883.262	21526
883.388	21485
883.514	21660
883.64	21603
883.766	21519
883.892	21435
884.018	21435
884.143	21603
884.269	21622
884.395	21355
884.52	21222
884.646	21321
884.772	21211
884.897	21188
885.023	21241
885.148	21264
885.274	21367
885.399	21340
885.524	21211
885.65	21298
885.775	21272
885.9	21176
886.025	21363
886.15	21298
886.275	21165
886.4	21135
886.525	21302
886.65	21112
886.775	21245
886.9	21389
887.025	21363
887.149	21214
887.274	21077
887.399	21020
887.523	21089
887.648	20982
887.773	21051
887.897	21108
888.021	21032
888.146	20960
888.27	21096
888.395	21116
888.519	20956
888.643	21013
888.767	20998
888.891	20857
889.015	20842
889.139	20811
889.263	20956
889.387	21036
889.511	21096
889.635	20914
889.759	20849
889.883	20918
890.006	20826
890.13	20857
890.254	20781
890.377	20735
890.501	20587
890.624	20571
890.748	20617
890.871	20377
890.995	20438
891.118	20317
891.241	20324
891.364	20298
891.488	20503
891.611	20389
891.734	20400
891.857	20552
891.98	20377
892.103	20438
892.226	20480
892.349	20332
892.471	20256
892.594	20267
892.717	20339
892.839	20343
892.962	20282
893.085	20313
893.207	20317
893.33	20221
893.452	20286
893.575	20377
893.697	20328
893.819	20377
893.941	20450
894.064	20415
894.186	20248
894.308	20275
894.43	20317
894.552	20412
894.674	20282
894.796	20180
894.918	20233
895.04	20320
895.161	20454
895.283	20320
895.405	20180
895.526	20431
895.648	20278
895.769	20305
895.891	20362
896.012	20438
896.134	20358
896.255	20252
896.376	20157
896.498	20206
896.619	20282
896.74	20370
896.861	20313
896.982	20625
897.103	20769
897.224	20602
897.345	20480
897.466	20469
897.587	20431
897.708	20537
897.828	20564
897.949	20396
898.07	20271
898.19	20438
898.311	20617
898.431	20427
898.552	20377
898.672	20571
898.792	20549
898.913	20423
899.033	20377
899.153	20240
899.273	20161
899.393	20317
899.513	20271
899.633	20218
899.753	20176
899.873	20111
899.993	20351
900.113	20130
900.232	20221
900.352	20214
900.472	20138
900.591	20035
900.711	20077
900.83	19993
900.95	20149
901.069	20145
901.189	19940
901.308	19658
901.427	19624
901.546	19548
901.665	19563
901.784	19582
901.904	19419
902.023	19308
902.141	19141
902.26	19209
902.379	19141
902.498	19061
902.617	19080
902.735	19160
902.854	19034
902.973	19038
903.091	18749
903.21	18844
903.328	18715
903.446	18722
903.565	18669
903.683	18528
903.801	18490
903.919	18521
904.038	18494
904.156	18365
904.274	18589
904.392	18300
904.51	18243
904.627	18315
904.745	18399
904.863	18334
904.981	18098
905.098	17984
905.216	17980
905.334	18060
905.451	18019
905.569	17889
905.686	18026
905.803	18064
905.921	17824
906.038	17897
906.155	17821
906.272	17699
906.389	17722
906.506	17562
906.623	17543
906.74	17524
906.857	17471
906.974	17535
907.091	17573
907.208	17657
907.324	17581
907.441	17421
907.557	17353
907.674	17265
907.79	17349
907.907	17242
908.023	17292
908.139	17334
908.256	17174
908.372	17155
908.488	17212
908.604	17025
908.72	16923
908.836	17033
908.952	16866
909.068	16961
909.184	17117
909.3	16862
909.415	16953
909.531	16942
909.647	16790
909.762	16782
909.878	16744
909.993	16668
910.108	16641
910.224	16607
910.339	16721
910.454	16603
910.57	16500
910.685	16413
910.8	16691
910.915	16626
911.03	16440
911.145	16382
911.259	16215
911.374	16299
911.489	16238
911.604	16185
911.718	16006
911.833	15972
911.947	15907
912.062	15850
912.176	16063
912.291	15907
912.405	15907
912.519	16147
912.633	16051
912.748	16101
912.862	15956
912.976	15865
913.09	15728
913.204	15720
913.318	15941
913.431	15945
913.545	15930
913.659	15972
913.772	15724
913.886	15682
914	15652
914.113	15694
914.226	15709
914.34	15732
914.453	15488
914.566	15675
914.68	15587
914.793	15584
914.906	15256
915.019	15176
915.132	15184
915.245	15218
915.358	15207
915.47	15252
915.583	15275
915.696	15199
915.809	15317
915.921	15256
916.034	15207
916.146	15161
916.259	15188
916.371	15218
916.483	15180
916.595	15013
916.708	15043
916.82	14986
916.932	15097
917.044	15036
917.156	15001
917.268	14872
917.38	14929
917.491	14925
917.603	14838
917.715	14960
917.826	14929
917.938	14746
918.049	14754
918.161	14842
918.272	14910
918.384	14982
918.495	14895
918.606	14686
918.717	14674
918.828	14724
918.939	14746
919.05	14575
919.161	14632
919.272	14400
919.383	14541
919.494	14712
919.604	14921
919.715	14724
919.826	14552
919.936	14693
920.047	14625
920.157	14693
920.267	14823
920.378	14629
920.488	14583
920.598	14826
920.708	14906
920.818	14815
920.928	14792
921.038	14849
921.148	14864
921.258	14640
921.368	14568
921.477	14275
921.587	14454
921.697	14237
921.806	14393
921.916	14206
922.025	14088
922.134	13967
922.244	13978
922.353	14062
922.462	13818
922.571	13704
922.68	13712
922.789	13689
922.898	13636
923.007	13609
923.116	13693
923.224	13628
923.333	13636
923.442	13529
923.55	13464
923.659	13514
923.767	13537
923.876	13422
923.984	13544
924.092	13400
924.201	13453
924.309	13369
924.417	13339
924.525	13301
924.633	13289
924.741	14058
924.849	13095
924.956	13293
925.064	13091
925.172	13008
925.279	13080
925.387	13091
925.494	13069
925.602	13149
925.709	13137
925.816	12916
925.924	13027
926.031	13099
926.138	12970
926.245	13034
926.352	12913
926.459	13114
926.566	13088
926.673	13000
926.779	12814
926.886	12741
926.993	12658
927.099	12677
927.206	12532
927.312	12578
927.419	12623
927.525	12681
927.631	12608
927.737	12578
927.843	12460
927.95	12399
928.056	12460
928.162	12509
928.267	12570
928.373	13110
928.479	12555
928.585	12350
928.69	12292
928.796	12532
928.901	12273
929.007	12129
929.112	12319
929.218	12258
929.323	12251
929.428	12171
929.533	12308
929.638	12098
929.743	12125
929.848	12213
929.953	12095
930.058	12038
930.163	11897
930.267	11859
930.372	12015
930.477	11764
930.581	12034
930.685	11927
930.79	11783
930.894	11779
930.998	11695
931.103	11847
931.207	11539
931.311	11414
931.415	11334
931.519	11166
931.623	11121
