Data from test_V78500241_617.txt Node
Date: Fri Mar 25 15:14:09 CST 2022
User: usil
Spectrometer: V785-0024
Trigger mode: 0
Integration Time (sec): 4.000000E-1
Scans to average: 1
Nonlinearity correction enabled: false
Boxcar width: 0
Storing dark spectrum: false
XAxis mode: Wavelengths
Number of Pixels in Spectrum: 1024
>>>>>Begin Spectral Data<<<<<
801.071	27633
801.214	27564
801.356	27245
801.499	27294
801.641	27180
801.783	27291
801.926	27367
802.068	27199
802.211	27222
802.353	27020
802.496	27013
802.638	26914
802.78	26735
802.923	26895
803.065	26762
803.208	26701
803.35	26876
803.492	26994
803.635	27074
803.777	27058
803.919	26918
804.061	27363
804.204	26994
804.346	27058
804.488	26982
804.63	26952
804.773	27055
804.915	26967
805.057	27123
805.199	26971
805.341	27165
805.483	27131
805.626	26998
805.768	27055
805.91	27150
806.052	27116
806.194	27089
806.336	27359
806.478	27142
806.62	27108
806.762	27249
806.904	27507
807.046	27720
807.188	27625
807.33	27488
807.472	27625
807.614	27439
807.756	27458
807.898	27450
808.04	27439
808.182	27466
808.324	27458
808.465	27561
808.607	27778
808.749	27675
808.891	27789
809.033	28036
809.174	27827
809.316	27907
809.458	27827
809.6	27781
809.741	27842
809.883	27987
810.025	28086
810.166	28097
810.308	28006
810.45	28109
810.591	28101
810.733	27960
810.875	27766
811.016	27648
811.158	27759
811.299	27831
811.441	27987
811.582	28025
811.724	27759
811.865	27755
812.007	27694
812.148	27857
812.29	27713
812.431	28002
812.573	28067
812.714	28261
812.855	28394
812.997	28462
813.138	28607
813.279	28489
813.421	28497
813.562	28280
813.703	28196
813.845	28048
813.986	27865
814.127	27633
814.268	27599
814.41	27496
814.551	27477
814.692	27713
814.833	27545
814.974	27450
815.115	27454
815.256	27370
815.397	27336
815.539	27325
815.68	27329
815.821	27241
815.962	27420
816.103	27294
816.244	27287
816.385	27013
816.526	27047
816.666	26994
816.807	26800
816.948	26762
817.089	26758
817.23	26921
817.371	26845
817.512	26853
817.653	26853
817.793	26743
817.934	26914
818.075	26914
818.216	26796
818.356	26716
818.497	26705
818.638	26651
818.778	26609
818.919	26587
819.06	26465
819.2	26667
819.341	26781
819.481	26796
819.622	26910
819.762	27074
819.903	27070
820.043	26918
820.184	26967
820.324	26971
820.465	26876
820.605	27028
820.746	26910
820.886	26727
821.026	26998
821.167	26891
821.307	27047
821.447	26830
821.588	26781
821.728	26583
821.868	26450
822.008	26374
822.149	26180
822.289	26351
822.429	25940
822.569	25993
822.709	25936
822.849	25795
822.99	25708
823.13	25757
823.27	25635
823.41	25670
823.55	25468
823.69	25578
823.83	25594
823.97	25563
824.11	25483
824.25	25297
824.389	25381
824.529	25495
824.669	25422
824.809	25453
824.949	25529
825.089	25540
825.228	25335
825.368	25266
825.508	25247
825.648	25297
825.787	25289
825.927	25350
826.067	25270
826.206	25312
826.346	25270
826.485	25335
826.625	25266
826.765	25365
826.904	25282
827.044	25072
827.183	25091
827.323	24970
827.462	24958
827.601	25000
827.741	25019
827.88	25023
828.02	24871
828.159	24985
828.298	24909
828.437	25099
828.577	25031
828.716	24958
828.855	24878
828.994	24646
829.134	24821
829.273	24722
829.412	24760
829.551	24604
829.69	24696
829.829	24665
829.968	24817
830.107	24726
830.246	24623
830.385	24654
830.524	24559
830.663	24483
830.802	24479
830.941	24289
831.08	24235
831.219	24224
831.357	24483
831.496	24479
831.635	24403
831.774	24148
831.913	24068
832.051	24174
832.19	24247
832.329	24015
832.467	24022
832.606	24057
832.744	24117
832.883	24049
833.022	24018
833.16	24011
833.299	24049
833.437	23973
833.576	23950
833.714	24076
833.852	24125
833.991	24140
834.129	24205
834.267	24072
834.406	24091
834.544	24095
834.682	24079
834.821	24057
834.959	24357
835.097	24133
835.235	24098
835.373	23965
835.511	24076
835.65	23954
835.788	23965
835.926	23764
836.064	23737
836.202	23729
836.34	23863
836.478	23935
836.615	23794
836.753	23756
836.891	23904
837.029	23939
837.167	23855
837.305	23840
837.443	23764
837.58	23741
837.718	23809
837.856	23794
837.993	23729
838.131	23680
838.269	23589
838.406	23642
838.544	23516
838.681	23345
838.819	23421
838.956	23258
839.094	23216
839.231	23258
839.369	23406
839.506	23577
839.643	23353
839.781	23170
839.918	23166
840.055	23094
840.193	23178
840.33	23086
840.467	23105
840.604	23242
840.742	23326
840.879	22968
841.016	22991
841.153	23162
841.29	23181
841.427	23102
841.564	23170
841.701	23178
841.838	23216
841.975	22976
842.112	23162
842.249	22767
842.385	22831
842.522	23109
842.659	22938
842.796	22957
842.933	22946
843.069	22797
843.206	22847
843.343	22968
843.479	22759
843.616	22824
843.752	22550
843.889	22618
844.025	22831
844.162	22725
844.298	22850
844.435	22538
844.571	22611
844.708	22729
844.844	22675
844.98	22767
845.117	22873
845.253	22653
845.389	22573
845.525	22554
845.661	22546
845.798	22428
845.934	22413
846.07	22322
846.206	22344
846.342	22474
846.478	22371
846.614	22188
846.75	22147
846.886	22185
847.022	22204
847.158	22090
847.294	22078
847.429	22128
847.565	22112
847.701	22284
847.837	21876
847.972	21789
848.108	22029
848.244	21812
848.379	21789
848.515	21778
848.65	21812
848.786	21705
848.921	21812
849.057	21781
849.192	21797
849.328	21679
849.463	21660
849.598	21686
849.734	21724
849.869	21603
850.004	21462
850.14	21538
850.275	21580
850.41	21492
850.545	21298
850.68	21386
850.815	21408
850.95	21382
851.085	21663
851.22	21682
851.355	21507
851.49	21447
851.625	21458
851.76	21469
851.895	21367
852.03	21397
852.165	21492
852.299	21534
852.434	21698
852.569	21595
852.703	21564
852.838	21633
852.973	21728
853.107	21477
853.242	21443
853.376	21431
853.511	21287
853.645	21256
853.78	21443
853.914	21382
854.048	21252
854.183	21233
854.317	21469
854.451	21428
854.585	21275
854.72	21287
854.854	21458
854.988	21192
855.122	21252
855.256	21146
855.39	21348
855.524	21408
855.658	21393
855.792	21249
855.926	21332
856.06	21363
856.194	21447
856.327	21443
856.461	21195
856.595	21264
856.729	21321
856.862	21359
856.996	21367
857.13	21462
857.263	21374
857.397	21359
857.53	21348
857.664	21370
857.797	21351
857.931	21473
858.064	21386
858.197	21416
858.331	21389
858.464	21241
858.597	21233
858.731	21222
858.864	21306
858.997	21313
859.13	21378
859.263	21291
859.396	21439
859.529	21218
859.662	21340
859.795	21268
859.928	21332
860.061	21447
860.194	21500
860.327	21313
860.46	21313
860.592	21367
860.725	21488
860.858	21298
860.99	21355
861.123	21146
861.256	21207
861.388	21367
861.521	22143
861.653	21195
861.786	21157
861.918	21165
862.05	21150
862.183	21176
862.315	21287
862.447	21336
862.58	21199
862.712	21089
862.844	20979
862.976	21100
863.108	21100
863.24	21435
863.372	21001
863.504	21089
863.636	21032
863.768	21020
863.9	21005
864.032	21047
864.164	20876
864.296	21108
864.428	20994
864.559	21131
864.691	20971
864.823	21020
864.954	21024
865.086	20944
865.217	21032
865.349	20872
865.48	20963
865.612	20948
865.743	21077
865.875	20830
866.006	20868
866.137	20910
866.269	20963
866.4	20861
866.531	20826
866.662	20735
866.793	20906
866.924	20880
867.055	20887
867.186	20925
867.317	20861
867.448	20781
867.579	20693
867.71	20727
867.841	20800
867.972	20880
868.103	20823
868.233	20823
868.364	20956
868.495	20910
868.625	20986
868.756	21222
868.886	20986
869.017	21085
869.147	21066
869.278	21214
869.408	21096
869.539	20990
869.669	21199
869.799	21180
869.929	21176
870.06	21211
870.19	21264
870.32	21321
870.45	21397
870.58	21564
870.71	21443
870.84	21629
870.97	21492
871.1	21405
871.23	21675
871.36	21591
871.489	21625
871.619	21679
871.749	21610
871.879	21652
872.008	21755
872.138	21671
872.267	21694
872.397	21637
872.526	21534
872.656	21515
872.785	21587
872.915	21732
873.044	21728
873.173	21660
873.303	21705
873.432	21793
873.561	21846
873.69	21542
873.819	21625
873.948	21701
874.077	21709
874.206	21629
874.335	21682
874.464	21907
874.593	21873
874.722	21907
874.851	21972
874.979	21831
875.108	21953
875.237	21789
875.365	21808
875.494	21960
875.623	21983
875.751	21892
875.88	21934
876.008	22032
876.136	22173
876.265	22238
876.393	22375
876.521	22337
876.65	22432
876.778	22287
876.906	22284
877.034	22287
877.162	22348
877.29	22162
877.418	22226
877.546	22280
877.674	22287
877.802	22230
877.93	22276
878.058	22147
878.185	22128
878.313	22356
878.441	22341
878.568	22162
878.696	22177
878.824	22246
878.951	22314
879.079	22474
879.206	22531
879.333	22390
879.461	22261
879.588	22478
879.715	22508
879.842	22451
879.97	22253
880.097	22261
880.224	22021
880.351	22177
880.478	22040
880.605	22101
880.732	22211
880.859	22344
880.986	22032
881.112	22063
881.239	21964
881.366	21701
881.493	21743
881.619	21755
881.746	21778
881.872	21660
881.999	21747
882.125	21572
882.252	21671
882.378	21622
882.505	21785
882.631	21572
882.757	21378
882.883	21477
883.01	21416
883.136	21230
883.262	21138
883.388	21195
883.514	21492
883.64	21336
883.766	21291
883.892	21222
884.018	21203
884.143	21329
884.269	21374
884.395	21028
884.52	20963
884.646	21036
884.772	20899
884.897	20800
885.023	21077
885.148	21070
885.274	21161
885.399	21024
885.524	20944
885.65	21062
885.775	21009
885.9	20929
886.025	21157
886.15	21013
886.275	20967
886.4	21020
886.525	20902
886.65	21005
886.775	20918
886.9	21131
887.025	21256
887.149	21001
887.274	20853
887.399	20743
887.523	20807
887.648	20708
887.773	20659
887.897	20891
888.021	20830
888.146	20788
888.27	20754
888.395	20937
888.519	20849
888.643	20804
888.767	20754
888.891	20636
889.015	20575
889.139	20625
889.263	20575
889.387	20663
889.511	20739
889.635	20712
889.759	20549
889.883	20499
890.006	20545
890.13	20640
890.254	20499
890.377	20499
890.501	20286
890.624	20294
890.748	20290
890.871	20355
890.995	20157
891.118	20134
891.241	20210
891.364	20267
891.488	20282
891.611	20142
891.734	20107
891.857	20221
891.98	20100
892.103	20199
892.226	20138
892.349	20157
892.471	19940
892.594	20069
892.717	19993
892.839	20096
892.962	20088
893.085	20016
893.207	20050
893.33	19928
893.452	20054
893.575	20081
893.697	20058
893.819	20358
893.941	20271
894.064	20161
894.186	20062
894.308	19959
894.43	20024
894.552	20237
894.674	20187
894.796	19917
894.918	20035
895.04	19936
895.161	20096
895.283	20324
895.405	20043
895.526	19963
895.648	20039
895.769	19982
895.891	20119
896.012	20210
896.134	20084
896.255	20073
896.376	19982
896.498	20016
896.619	20008
896.74	20096
896.861	20115
896.982	20377
897.103	20522
897.224	20370
897.345	20195
897.466	20138
897.587	20298
897.708	20389
897.828	20282
897.949	20233
898.07	20012
898.19	20046
898.311	20313
898.431	20134
898.552	20202
898.672	20309
898.792	20305
898.913	20305
899.033	20100
899.153	19932
899.273	19936
899.393	20046
899.513	20077
899.633	19997
899.753	19967
899.873	19894
899.993	20077
900.113	19936
900.232	19993
900.352	19955
900.472	19776
900.591	19791
900.711	19784
900.83	19731
900.95	19871
901.069	19788
901.189	19769
901.308	19403
901.427	19236
901.546	19426
901.665	19377
901.784	19445
901.904	19388
902.023	19141
902.141	19038
902.26	18966
902.379	19027
902.498	18924
902.617	18871
902.735	18833
902.854	18867
902.973	18882
903.091	18544
903.21	18483
903.328	18521
903.446	18547
903.565	18395
903.683	18395
903.801	18346
903.919	18304
904.038	18334
904.156	18129
904.274	18224
904.392	18152
904.51	18041
904.627	18129
904.745	18163
904.863	18076
904.981	17954
905.098	17764
905.216	17824
905.334	17980
905.451	17756
905.569	17737
905.686	17840
905.803	17935
905.921	17539
906.038	17714
906.155	17592
906.272	17516
906.389	17459
906.506	17452
906.623	17277
906.74	17318
906.857	17235
906.974	17250
907.091	17353
907.208	17512
907.324	17307
907.441	17174
907.557	17060
907.674	17029
907.79	17041
907.907	17006
908.023	17197
908.139	17086
908.256	17117
908.372	16896
908.488	17041
908.604	16710
908.72	16805
908.836	16896
908.952	16866
909.068	16759
909.184	16820
909.3	16710
909.415	16736
909.531	16778
909.647	16546
909.762	16432
909.878	16546
909.993	16542
910.108	16481
910.224	16447
910.339	16531
910.454	16523
910.57	16325
910.685	16310
910.8	16527
910.915	16470
911.03	16310
911.145	16071
911.259	15979
911.374	16055
911.489	15983
911.604	15922
911.718	15838
911.833	15880
911.947	15755
912.062	15625
912.176	15713
912.291	15812
912.405	15831
912.519	15975
912.633	16082
912.748	15857
912.862	15876
912.976	15614
913.09	15473
913.204	15610
913.318	15572
913.431	15743
913.545	15739
913.659	15755
913.772	15591
913.886	15580
914	15466
914.113	15530
914.226	15667
914.34	15530
914.453	15279
914.566	15500
914.68	15268
914.793	15241
914.906	15062
915.019	15097
915.132	15104
915.245	15085
915.358	15085
915.47	15058
915.583	15108
915.696	15150
915.809	15123
915.921	15100
916.034	15043
916.146	15001
916.259	14891
916.371	15039
916.483	14956
916.595	14944
916.708	14963
916.82	14811
916.932	14762
917.044	14887
917.156	14925
917.268	14708
917.38	14689
917.491	14678
917.603	14788
917.715	14758
917.826	14788
917.938	14571
918.049	14629
918.161	14606
918.272	14777
918.384	14746
918.495	14651
918.606	14469
918.717	14469
918.828	14484
918.939	14495
919.05	14404
919.161	14454
919.272	14191
919.383	14355
919.494	14446
919.604	14636
919.715	14465
919.826	14473
919.936	14431
920.047	14446
920.157	14465
920.267	14568
920.378	14442
920.488	14404
920.598	14514
920.708	14697
920.818	14613
920.928	14575
921.038	14758
921.148	14670
921.258	14385
921.368	14374
921.477	14172
921.587	14202
921.697	14001
921.806	14180
921.916	14027
922.025	13845
922.134	13826
922.244	13791
922.353	13887
922.462	13655
922.571	13658
922.68	13518
922.789	13457
922.898	13441
923.007	13419
923.116	13518
923.224	13460
923.333	13499
923.442	13304
923.55	13236
923.659	13339
923.767	13270
923.876	13259
923.984	13362
924.092	13168
924.201	13202
924.309	13274
924.417	13312
924.525	13107
924.633	13160
924.741	13871
924.849	12882
924.956	13107
925.064	12973
925.172	12886
925.279	12924
925.387	12958
925.494	12897
925.602	12993
925.709	12981
925.816	12757
925.924	12852
926.031	12886
926.138	12787
926.245	12878
926.352	12844
926.459	12951
926.566	12886
926.673	12814
926.779	12662
926.886	12662
926.993	12559
927.099	12490
927.206	12399
927.312	12384
927.419	12448
927.525	12498
927.631	12498
927.737	12342
927.843	12342
927.95	12190
928.056	12251
928.162	12315
928.267	12384
928.373	12791
928.479	12399
928.585	12178
928.69	12327
928.796	12270
928.901	12140
929.007	11977
929.112	12106
929.218	12053
929.323	12064
929.428	11954
929.533	12110
929.638	12064
929.743	11954
929.848	11996
929.953	12049
930.058	11851
930.163	11646
930.267	11707
930.372	11889
930.477	11710
930.581	11901
930.685	11786
930.79	11566
930.894	11627
930.998	11562
931.103	11661
931.207	11414
931.311	11277
931.415	11204
931.519	11056
931.623	10873
