Data from test_V78500241_61.txt Node
Date: Fri Mar 25 15:10:17 CST 2022
User: usil
Spectrometer: V785-0024
Trigger mode: 0
Integration Time (sec): 4.000000E-1
Scans to average: 1
Nonlinearity correction enabled: false
Boxcar width: 0
Storing dark spectrum: false
XAxis mode: Wavelengths
Number of Pixels in Spectrum: 1024
>>>>>Begin Spectral Data<<<<<
801.071	28694
801.214	28607
801.356	28421
801.499	28306
801.641	28188
801.783	28219
801.926	28287
802.068	28181
802.211	28131
802.353	28101
802.496	27869
802.638	27785
802.78	27747
802.923	27694
803.065	27709
803.208	27709
803.35	27618
803.492	27876
803.635	27884
803.777	27739
803.919	27880
804.061	28139
804.204	27884
804.346	27941
804.488	27922
804.63	27850
804.773	27808
804.915	27793
805.057	27823
805.199	27778
805.341	27922
805.483	27998
805.626	28002
805.768	27759
805.91	27975
806.052	27892
806.194	27846
806.336	28131
806.478	28013
806.62	27922
806.762	28082
806.904	28112
807.046	28466
807.188	28246
807.33	28219
807.472	28466
807.614	28211
807.756	28265
807.898	28025
808.04	28070
808.182	28200
808.324	28143
808.465	27956
808.607	28253
808.749	28348
808.891	28577
809.033	28531
809.174	28394
809.316	28303
809.458	28344
809.6	28440
809.741	28523
809.883	28398
810.025	28550
810.166	28618
810.308	28748
810.45	28538
810.591	28561
810.733	28333
810.875	28401
811.016	28238
811.158	28325
811.299	28401
811.441	28379
811.582	28535
811.724	28333
811.865	28265
812.007	28249
812.148	28253
812.29	28265
812.431	28569
812.573	28733
812.714	28771
812.855	28828
812.997	28843
813.138	28934
813.279	28961
813.421	28930
813.562	28786
813.703	28630
813.845	28478
813.986	28196
814.127	28147
814.268	28006
814.41	27945
814.551	27895
814.692	28013
814.833	27854
814.974	27846
815.115	27819
815.256	27705
815.397	27774
815.539	27781
815.68	27679
815.821	27595
815.962	27690
816.103	27641
816.244	27542
816.385	27393
816.526	27450
816.666	27374
816.807	27138
816.948	27116
817.089	27039
817.23	27214
817.371	27104
817.512	27089
817.653	27020
817.793	26906
817.934	27070
818.075	26956
818.216	27135
818.356	26842
818.497	26948
818.638	26838
818.778	26739
818.919	26826
819.06	26689
819.2	26807
819.341	27047
819.481	26975
819.622	27233
819.762	27363
819.903	27260
820.043	27157
820.184	27036
820.324	27051
820.465	27077
820.605	27039
820.746	27066
820.886	26948
821.026	26933
821.167	26956
821.307	27036
821.447	26940
821.588	26861
821.728	26708
821.868	26648
822.008	26598
822.149	26503
822.289	26339
822.429	26195
822.569	26115
822.709	26077
822.849	25917
822.99	25849
823.13	25883
823.27	25826
823.41	25795
823.55	25616
823.69	25731
823.83	25746
823.97	25761
824.11	25537
824.25	25362
824.389	25537
824.529	25605
824.669	25472
824.809	25624
824.949	25479
825.089	25575
825.228	25643
825.368	25358
825.508	25297
825.648	25293
825.787	25278
825.927	25282
826.067	25320
826.206	25187
826.346	25365
826.485	25247
826.625	25324
826.765	25350
826.904	25278
827.044	25099
827.183	25038
827.323	24875
827.462	25053
827.601	25072
827.741	24951
827.88	24886
828.02	24810
828.159	24837
828.298	24882
828.437	25069
828.577	24806
828.716	24943
828.855	24833
828.994	24673
829.134	24650
829.273	24623
829.412	24631
829.551	24574
829.69	24593
829.829	24589
829.968	24760
830.107	24559
830.246	24604
830.385	24445
830.524	24452
830.663	24486
830.802	24346
830.941	24163
831.08	24015
831.219	24171
831.357	24083
831.496	24426
831.635	24270
831.774	24064
831.913	24068
832.051	23961
832.19	23950
832.329	23874
832.467	23771
832.606	23745
832.744	23672
832.883	23722
833.022	23824
833.16	23764
833.299	23863
833.437	23756
833.576	23707
833.714	23752
833.852	23809
833.991	23832
834.129	23672
834.267	23783
834.406	23832
834.544	23809
834.682	23745
834.821	23775
834.959	23946
835.097	23642
835.235	23737
835.373	23619
835.511	23813
835.65	23611
835.788	23722
835.926	23562
836.064	23497
836.202	23436
836.34	23551
836.478	23627
836.615	23528
836.753	23608
836.891	23615
837.029	23520
837.167	23577
837.305	23459
837.443	23566
837.58	23395
837.718	23531
837.856	23471
837.993	23368
838.131	23406
838.269	23239
838.406	23197
838.544	23193
838.681	23208
838.819	23010
838.956	22873
839.094	22976
839.231	22953
839.369	23029
839.506	23307
839.643	23231
839.781	22896
839.918	22759
840.055	22828
840.193	22763
840.33	22759
840.467	22782
840.604	22645
840.742	23086
840.879	22584
841.016	22706
841.153	22702
841.29	22805
841.427	22706
841.564	22862
841.701	22744
841.838	22672
841.975	22599
842.112	22596
842.249	22668
842.385	22516
842.522	22637
842.659	22470
842.796	22531
842.933	22478
843.069	22409
843.206	22440
843.343	22516
843.479	22504
843.616	22360
843.752	22200
843.889	22135
844.025	22371
844.162	22162
844.298	22181
844.435	22169
844.571	22105
844.708	22128
844.844	22188
844.98	22318
845.117	22314
845.253	22143
845.389	22025
845.525	21994
845.661	21972
845.798	21899
845.934	22006
846.07	21827
846.206	21945
846.342	22002
846.478	21717
846.614	21629
846.75	21553
846.886	21526
847.022	21770
847.158	21641
847.294	21720
847.429	21690
847.565	21500
847.701	21808
847.837	21332
847.972	21260
848.108	21439
848.244	21393
848.379	21169
848.515	21222
848.65	21146
848.786	21256
848.921	21230
849.057	21241
849.192	21169
849.328	21116
849.463	21165
849.598	21218
849.734	21077
849.869	20982
850.004	20921
850.14	20952
850.275	20853
850.41	20800
850.545	20823
850.68	20925
850.815	20842
850.95	20834
851.085	20956
851.22	20880
851.355	20845
851.49	20777
851.625	20899
851.76	20906
851.895	20739
852.03	20689
852.165	20773
852.299	20838
852.434	20899
852.569	20986
852.703	20823
852.838	20914
852.973	21081
853.107	20910
853.242	20769
853.376	20838
853.511	20689
853.645	20720
853.78	20834
853.914	20720
854.048	20594
854.183	20693
854.317	20727
854.451	20899
854.585	20724
854.72	20663
854.854	20743
854.988	20560
855.122	20716
855.256	20564
855.39	20579
855.524	20689
855.658	20617
855.792	20758
855.926	20682
856.06	20731
856.194	20697
856.327	20819
856.461	20625
856.595	20659
856.729	20632
856.862	20727
856.996	20667
857.13	20823
857.263	20674
857.397	20648
857.53	20651
857.664	20746
857.797	20648
857.931	20724
858.064	20537
858.197	20792
858.331	20541
858.464	20556
858.597	20419
858.731	20602
858.864	20564
858.997	20724
859.13	20552
859.263	20602
859.396	20735
859.529	20571
859.662	20575
859.795	20518
859.928	20438
860.061	20701
860.194	20746
860.327	20621
860.46	20518
860.592	20541
860.725	20727
860.858	20640
860.99	20571
861.123	20457
861.256	20408
861.388	20560
861.521	21055
861.653	20305
861.786	20347
861.918	20476
862.05	20499
862.183	20568
862.315	20617
862.447	20609
862.58	20571
862.712	20488
862.844	20347
862.976	20404
863.108	20393
863.24	20804
863.372	20290
863.504	20317
863.636	20142
863.768	20237
863.9	20267
864.032	20343
864.164	20115
864.296	20298
864.428	20240
864.559	20286
864.691	20351
864.823	20412
864.954	20320
865.086	20256
865.217	20229
865.349	20096
865.48	20054
865.612	20168
865.743	20210
865.875	20244
866.006	20157
866.137	20157
866.269	20202
866.4	20176
866.531	20081
866.662	20161
866.793	20046
866.924	20024
867.055	20111
867.186	20122
867.317	19974
867.448	20024
867.579	20103
867.71	20020
867.841	20027
867.972	20157
868.103	20096
868.233	20103
868.364	20054
868.495	20103
868.625	20218
868.756	20347
868.886	20210
869.017	20336
869.147	20431
869.278	20427
869.408	20301
869.539	20256
869.669	20446
869.799	20450
869.929	20400
870.06	20377
870.19	20568
870.32	20545
870.45	20678
870.58	20724
870.71	20868
870.84	20796
870.97	20659
871.1	20716
871.23	20800
871.36	20937
871.489	20861
871.619	20937
871.749	20990
871.879	21020
872.008	20990
872.138	20880
872.267	20895
872.397	20773
872.526	20754
872.656	20750
872.785	20716
872.915	20929
873.044	21013
873.173	20944
873.303	20967
873.432	20921
873.561	21055
873.69	20921
873.819	20902
873.948	21001
874.077	20906
874.206	20944
874.335	20925
874.464	21051
874.593	21150
874.722	21096
874.851	21226
874.979	21252
875.108	21256
875.237	21252
875.365	20979
875.494	21119
875.623	21260
875.751	21138
875.88	21245
876.008	21245
876.136	21378
876.265	21625
876.393	21892
876.521	21778
876.65	21720
876.778	21648
876.906	21515
877.034	21469
877.162	21576
877.29	21363
877.418	21606
877.546	21519
877.674	21538
877.802	21500
877.93	21519
878.058	21564
878.185	21348
878.313	21595
878.441	21450
878.568	21317
878.696	21462
878.824	21564
878.951	21641
879.079	21682
879.206	21991
879.333	21576
879.461	21572
879.588	21641
879.715	21663
879.842	21751
879.97	21542
880.097	21416
880.224	21363
880.351	21412
880.478	21473
880.605	21336
880.732	21488
880.859	21618
880.986	21450
881.112	21488
881.239	21287
881.366	21108
881.493	21119
881.619	20963
881.746	20921
881.872	20948
881.999	20880
882.125	20864
882.252	20895
882.378	20914
882.505	21165
882.631	20826
882.757	20708
882.883	20804
883.01	20754
883.136	20636
883.262	20583
883.388	20514
883.514	20781
883.64	20731
883.766	20613
883.892	20473
884.018	20530
884.143	20746
884.269	20792
884.395	20320
884.52	20168
884.646	20324
884.772	20374
884.897	20084
885.023	20419
885.148	20438
885.274	20541
885.399	20438
885.524	20278
885.65	20320
885.775	20347
885.9	20332
886.025	20552
886.15	20301
886.275	20176
886.4	20218
886.525	20286
886.65	20191
886.775	20275
886.9	20438
887.025	20670
887.149	20320
887.274	19993
887.399	20096
887.523	20115
887.648	20153
887.773	19989
887.897	20138
888.021	20043
888.146	19898
888.27	20157
888.395	20115
888.519	20115
888.643	20111
888.767	20244
888.891	20046
889.015	19940
889.139	19898
889.263	19719
889.387	19940
889.511	20016
889.635	19986
889.759	19811
889.883	19734
890.006	19879
890.13	20024
890.254	19780
890.377	19784
890.501	19548
890.624	19480
890.748	19616
890.871	19601
890.995	19491
891.118	19438
891.241	19449
891.364	19529
891.488	19575
891.611	19457
891.734	19400
891.857	19449
891.98	19400
892.103	19533
892.226	19495
892.349	19343
892.471	19206
892.594	19301
892.717	19343
892.839	19358
892.962	19365
893.085	19415
893.207	19441
893.33	19324
893.452	19289
893.575	19331
893.697	19270
893.819	19533
893.941	19556
894.064	19521
894.186	19350
894.308	19259
894.43	19510
894.552	19480
894.674	19403
894.796	19274
894.918	19384
895.04	19320
895.161	19400
895.283	19388
895.405	19312
895.526	19381
895.648	19377
895.769	19377
895.891	19350
896.012	19499
896.134	19453
896.255	19468
896.376	19381
896.498	19346
896.619	19392
896.74	19434
896.861	19480
896.982	19799
897.103	19986
897.224	19662
897.345	19715
897.466	19639
897.587	19685
897.708	19769
897.828	19559
897.949	19556
898.07	19464
898.19	19571
898.311	19719
898.431	19616
898.552	19620
898.672	19693
898.792	19803
898.913	19571
899.033	19476
899.153	19407
899.273	19339
899.393	19236
899.513	19415
899.633	19263
899.753	19270
899.873	19244
899.993	19304
900.113	19293
900.232	19312
900.352	19129
900.472	19221
900.591	19168
900.711	19213
900.83	19065
900.95	19168
901.069	19289
901.189	18970
901.308	18875
901.427	18719
901.546	18738
901.665	18700
901.784	18791
901.904	18646
902.023	18452
902.141	18350
902.26	18266
902.379	18376
902.498	18270
902.617	18216
902.735	18277
902.854	18140
902.973	18136
903.091	17836
903.21	17939
903.328	17973
903.446	17729
903.565	17764
903.683	17630
903.801	17585
903.919	17642
904.038	17623
904.156	17501
904.274	17573
904.392	17497
904.51	17505
904.627	17455
904.745	17547
904.863	17554
904.981	17250
905.098	17136
905.216	17105
905.334	17170
905.451	17250
905.569	17048
905.686	17174
905.803	17170
905.921	16968
906.038	17060
906.155	16991
906.272	16828
906.389	16774
906.506	16774
906.623	16752
906.74	16634
906.857	16554
906.974	16569
907.091	16664
907.208	16790
907.324	16656
907.441	16519
907.557	16318
907.674	16413
907.79	16287
907.907	16352
908.023	16500
908.139	16344
908.256	16253
908.372	16379
908.488	16207
908.604	16078
908.72	16010
908.836	16051
908.952	16021
909.068	16025
909.184	16265
909.3	16086
909.415	16086
909.531	15991
909.647	15724
909.762	15736
909.878	15701
909.993	15694
910.108	15709
910.224	15736
910.339	15694
910.454	15561
910.57	15500
910.685	15370
910.8	15785
910.915	15682
911.03	15561
911.145	15443
911.259	15218
911.374	15344
911.489	15351
911.604	15249
911.718	15020
911.833	15066
911.947	15051
912.062	14933
912.176	15081
912.291	15119
912.405	15062
912.519	15230
912.633	15272
912.748	15154
912.862	15093
912.976	14842
913.09	14807
913.204	14830
913.318	14929
913.431	14948
913.545	15005
913.659	14998
913.772	14876
913.886	14804
914	14762
914.113	14807
914.226	14925
914.34	14785
914.453	14583
914.566	14773
914.68	14727
914.793	14575
914.906	14393
915.019	14431
915.132	14324
915.245	14404
915.358	14347
915.47	14438
915.583	14362
915.696	14446
915.809	14423
915.921	14492
916.034	14263
916.146	14309
916.259	14218
916.371	14362
916.483	14313
916.595	14214
916.708	14145
916.82	14248
916.932	14176
917.044	14191
917.156	14149
917.268	14069
917.38	14001
917.491	13955
917.603	14001
917.715	14157
917.826	14115
917.938	13955
918.049	13860
918.161	14001
918.272	14092
918.384	14142
918.495	13936
918.606	13898
918.717	13822
918.828	13849
918.939	13917
919.05	13769
919.161	13822
919.272	13586
919.383	13647
919.494	13822
919.604	13940
919.715	13887
919.826	13632
919.936	13712
920.047	13723
920.157	13776
920.267	13947
920.378	13814
920.488	13830
920.598	13932
920.708	13993
920.818	13947
920.928	13890
921.038	14058
921.148	13947
921.258	13677
921.368	13613
921.477	13506
921.587	13441
921.697	13327
921.806	13403
921.916	13316
922.025	13194
922.134	13149
922.244	12993
922.353	13187
922.462	13053
922.571	12977
922.68	12856
922.789	12726
922.898	12745
923.007	12684
923.116	12722
923.224	12658
923.333	12730
923.442	12642
923.55	12540
923.659	12532
923.767	12623
923.876	12616
923.984	12669
924.092	12471
924.201	12551
924.309	12532
924.417	12494
924.525	12418
924.633	12528
924.741	13190
924.849	12292
924.956	12357
925.064	12182
925.172	12216
925.279	12175
925.387	12334
925.494	12281
925.602	12338
925.709	12232
925.816	12148
925.924	12197
926.031	12273
926.138	12216
926.245	12171
926.352	12064
926.459	12311
926.566	12273
926.673	12129
926.779	12060
926.886	12011
926.993	11863
927.099	11874
927.206	11790
927.312	11805
927.419	11889
927.525	11836
927.631	11889
927.737	11745
927.843	11657
927.95	11577
928.056	11680
928.162	11611
928.267	11729
928.373	12323
928.479	11722
928.585	11490
928.69	11577
928.796	11627
928.901	11471
929.007	11368
929.112	11566
929.218	11478
929.323	11368
929.428	11410
929.533	11505
929.638	11296
929.743	11280
929.848	11402
929.953	11318
930.058	11178
930.163	11113
930.267	11117
930.372	11197
930.477	10972
930.581	11284
930.685	11060
930.79	10942
930.894	10946
930.998	10961
931.103	11086
931.207	10733
931.311	10634
931.415	10508
931.519	10265
931.623	10390
