Data from test_V78500241_3443.txt Node
Date: Fri Mar 25 15:33:50 CST 2022
User: usil
Spectrometer: V785-0024
Trigger mode: 0
Integration Time (sec): 4.000000E-1
Scans to average: 1
Nonlinearity correction enabled: false
Boxcar width: 0
Storing dark spectrum: false
XAxis mode: Wavelengths
Number of Pixels in Spectrum: 1024
>>>>>Begin Spectral Data<<<<<
801.071	27367
801.214	27344
801.356	27024
801.499	26914
801.641	26842
801.783	26773
801.926	26933
802.068	26838
802.211	26880
802.353	26686
802.496	26514
802.638	26686
802.78	26313
802.923	26499
803.065	26313
803.208	26389
803.35	26389
803.492	26533
803.635	26670
803.777	26514
803.919	26640
804.061	26944
804.204	26579
804.346	26533
804.488	26541
804.63	26564
804.773	26484
804.915	26587
805.057	26693
805.199	26526
805.341	26697
805.483	26712
805.626	26720
805.768	26606
805.91	26663
806.052	26765
806.194	26526
806.336	26781
806.478	26811
806.62	26697
806.762	26724
806.904	27028
807.046	27302
807.188	27093
807.33	27188
807.472	27085
807.614	27169
807.756	27081
807.898	27028
808.04	26781
808.182	26811
808.324	26918
808.465	27005
808.607	27154
808.749	27260
808.891	27450
809.033	27386
809.174	27374
809.316	27325
809.458	27332
809.6	27165
809.741	27287
809.883	27420
810.025	27462
810.166	27515
810.308	27641
810.45	27595
810.591	27458
810.733	27397
810.875	27199
811.016	27150
811.158	27260
811.299	27317
811.441	27424
811.582	27431
811.724	27233
811.865	27252
812.007	27184
812.148	27138
812.29	27397
812.431	27439
812.573	27648
812.714	27610
812.855	27846
812.997	27892
813.138	28074
813.279	27895
813.421	27842
813.562	27835
813.703	27633
813.845	27473
813.986	27218
814.127	27043
814.268	27024
814.41	27127
814.551	26929
814.692	27066
814.833	26891
814.974	26944
815.115	27005
815.256	26773
815.397	26849
815.539	26788
815.68	26891
815.821	26571
815.962	26716
816.103	26701
816.244	26495
816.385	26514
816.526	26518
816.666	26271
816.807	26111
816.948	26366
817.089	26355
817.23	26233
817.371	26172
817.512	26237
817.653	26126
817.793	26142
817.934	26252
818.075	26393
818.216	26229
818.356	26290
818.497	25997
818.638	25890
818.778	25925
818.919	26050
819.06	25887
819.2	26153
819.341	26142
819.481	26115
819.622	26355
819.762	26530
819.903	26450
820.043	26339
820.184	26339
820.324	26267
820.465	26294
820.605	26271
820.746	26324
820.886	26313
821.026	26381
821.167	26259
821.307	26480
821.447	26195
821.588	26229
821.728	25989
821.868	25860
822.008	25601
822.149	25700
822.289	25746
822.429	25582
822.569	25441
822.709	25377
822.849	25160
822.99	25225
823.13	25213
823.27	25209
823.41	25057
823.55	24947
823.69	25038
823.83	24905
823.97	24863
824.11	24757
824.25	24814
824.389	24954
824.529	24992
824.669	24764
824.809	24932
824.949	24859
825.089	24977
825.228	24859
825.368	24642
825.508	24661
825.648	24574
825.787	24749
825.927	24806
826.067	24707
826.206	24639
826.346	24627
826.485	24829
826.625	24703
826.765	24684
826.904	24757
827.044	24452
827.183	24532
827.323	24403
827.462	24418
827.601	24361
827.741	24486
827.88	24505
828.02	24228
828.159	24437
828.298	24353
828.437	24399
828.577	24327
828.716	24608
828.855	24292
828.994	24114
829.134	24174
829.273	24174
829.412	24053
829.551	24041
829.69	24106
829.829	24197
829.968	24266
830.107	24228
830.246	24228
830.385	24068
830.524	23958
830.663	23965
830.802	23760
830.941	23764
831.08	23760
831.219	23760
831.357	23783
831.496	23931
831.635	23836
831.774	23695
831.913	23653
832.051	23493
832.19	23642
832.329	23478
832.467	23440
832.606	23425
832.744	23341
832.883	23433
833.022	23254
833.16	23368
833.299	23581
833.437	23368
833.576	23444
833.714	23520
833.852	23592
833.991	23543
834.129	23501
834.267	23623
834.406	23657
834.544	23497
834.682	23410
834.821	23478
834.959	23699
835.097	23391
835.235	23531
835.373	23395
835.511	23482
835.65	23433
835.788	23292
835.926	23242
836.064	23174
836.202	23235
836.34	23318
836.478	23444
836.615	23254
836.753	23345
836.891	23334
837.029	23334
837.167	23250
837.305	23417
837.443	23162
837.58	23265
837.718	23277
837.856	23258
837.993	23113
838.131	23341
838.269	23067
838.406	23075
838.544	23025
838.681	22790
838.819	22812
838.956	22786
839.094	22755
839.231	22812
839.369	22778
839.506	23090
839.643	22911
839.781	22687
839.918	22668
840.055	22717
840.193	22626
840.33	22561
840.467	22649
840.604	22573
840.742	22801
840.879	22459
841.016	22535
841.153	22443
841.29	22729
841.427	22550
841.564	22577
841.701	22554
841.838	22584
841.975	22611
842.112	22596
842.249	22424
842.385	22398
842.522	22660
842.659	22424
842.796	22402
842.933	22295
843.069	22295
843.206	22367
843.343	22375
843.479	22363
843.616	22348
843.752	22169
843.889	22169
844.025	22318
844.162	22109
844.298	22325
844.435	22162
844.571	22147
844.708	22226
844.844	22207
844.98	22265
845.117	22249
845.253	22143
845.389	22105
845.525	22139
845.661	22055
845.798	21869
845.934	22013
846.07	21888
846.206	21838
846.342	22086
846.478	21800
846.614	21694
846.75	21610
846.886	21523
847.022	21781
847.158	21652
847.294	21561
847.429	21713
847.565	21713
847.701	21819
847.837	21374
847.972	21329
848.108	21462
848.244	21378
848.379	21165
848.515	21264
848.65	21272
848.786	21245
848.921	21222
849.057	21340
849.192	21336
849.328	21203
849.463	21157
849.598	21161
849.734	21100
849.869	21036
850.004	21036
850.14	21058
850.275	20857
850.41	21047
850.545	20929
850.68	20899
850.815	20967
850.95	21005
851.085	21154
851.22	20982
851.355	21093
851.49	20975
851.625	20952
851.76	20887
851.895	20853
852.03	20910
852.165	20963
852.299	21085
852.434	20960
852.569	20952
852.703	20895
852.838	21001
852.973	21093
853.107	21047
853.242	20975
853.376	20815
853.511	20693
853.645	20724
853.78	20918
853.914	20880
854.048	20769
854.183	20781
854.317	20746
854.451	20933
854.585	20792
854.72	20804
854.854	20975
854.988	20777
855.122	20819
855.256	20583
855.39	20838
855.524	20845
855.658	20750
855.792	20750
855.926	20811
856.06	20731
856.194	20743
856.327	20857
856.461	20651
856.595	20743
856.729	20674
856.862	20895
856.996	20781
857.13	20925
857.263	20914
857.397	20963
857.53	20902
857.664	20880
857.797	20823
857.931	20914
858.064	20762
858.197	20880
858.331	20925
858.464	20830
858.597	20769
858.731	20823
858.864	20804
858.997	20727
859.13	20864
859.263	20785
859.396	20861
859.529	20807
859.662	20750
859.795	20724
859.928	20792
860.061	20868
860.194	20963
860.327	20838
860.46	20857
860.592	20834
860.725	20944
860.858	20952
860.99	20804
861.123	20701
861.256	20758
861.388	20773
861.521	21469
861.653	20651
861.786	20575
861.918	20705
862.05	20644
862.183	20788
862.315	20807
862.447	20720
862.58	20724
862.712	20556
862.844	20454
862.976	20663
863.108	20587
863.24	21112
863.372	20461
863.504	20427
863.636	20518
863.768	20556
863.9	20530
864.032	20347
864.164	20465
864.296	20552
864.428	20556
864.559	20621
864.691	20602
864.823	20560
864.954	20465
865.086	20431
865.217	20454
865.349	20351
865.48	20404
865.612	20473
865.743	20602
865.875	20469
866.006	20526
866.137	20552
866.269	20427
866.4	20355
866.531	20480
866.662	20377
866.793	20309
866.924	20294
867.055	20469
867.186	20442
867.317	20355
867.448	20259
867.579	20271
867.71	20438
867.841	20263
867.972	20366
868.103	20431
868.233	20438
868.364	20404
868.495	20503
868.625	20499
868.756	20674
868.886	20488
869.017	20762
869.147	20792
869.278	20765
869.408	20606
869.539	20625
869.669	20617
869.799	20670
869.929	20670
870.06	20792
870.19	20902
870.32	20895
870.45	20914
870.58	20929
870.71	21116
870.84	21093
870.97	21058
871.1	21055
871.23	21138
871.36	21241
871.489	21104
871.619	21241
871.749	21192
871.879	21203
872.008	21317
872.138	21249
872.267	21287
872.397	21081
872.526	21138
872.656	21142
872.785	21108
872.915	21173
873.044	21355
873.173	21173
873.303	21249
873.432	21317
873.561	21348
873.69	21256
873.819	21157
873.948	21389
874.077	21138
874.206	21283
874.335	21207
874.464	21359
874.593	21507
874.722	21420
874.851	21538
874.979	21534
875.108	21378
875.237	21370
875.365	21466
875.494	21447
875.623	21606
875.751	21351
875.88	21481
876.008	21625
876.136	21679
876.265	21850
876.393	22021
876.521	21945
876.65	21827
876.778	21941
876.906	21956
877.034	21895
877.162	21934
877.29	21823
877.418	21808
877.546	21827
877.674	21873
877.802	21972
877.93	21831
878.058	21728
878.185	21652
878.313	21759
878.441	21850
878.568	21720
878.696	21762
878.824	21797
878.951	21903
879.079	22063
879.206	22055
879.333	22067
879.461	21892
879.588	21934
879.715	22055
879.842	22147
879.97	21865
880.097	21629
880.224	21637
880.351	21686
880.478	21774
880.605	21633
880.732	21656
880.859	21899
880.986	21732
881.112	21656
881.239	21587
881.366	21389
881.493	21340
881.619	21169
881.746	21241
881.872	21310
881.999	21161
882.125	21028
882.252	21230
882.378	21123
882.505	21332
882.631	21066
882.757	21043
882.883	21058
883.01	21036
883.136	21028
883.262	20716
883.388	20880
883.514	20963
883.64	21024
883.766	20868
883.892	20663
884.018	20796
884.143	20929
884.269	21009
884.395	20701
884.52	20590
884.646	20606
884.772	20514
884.897	20667
885.023	20674
885.148	20689
885.274	20876
885.399	20826
885.524	20617
885.65	20648
885.775	20583
885.9	20632
886.025	20613
886.15	20686
886.275	20518
886.4	20476
886.525	20579
886.65	20473
886.775	20396
886.9	20762
887.025	20788
887.149	20663
887.274	20427
887.399	20408
887.523	20275
887.648	20339
887.773	20240
887.897	20530
888.021	20434
888.146	20339
888.27	20366
888.395	20408
888.519	20408
888.643	20476
888.767	20313
888.891	20282
889.015	20290
889.139	20069
889.263	20180
889.387	20210
889.511	20282
889.635	20298
889.759	20263
889.883	20214
890.006	20328
890.13	20256
890.254	20103
890.377	20050
890.501	19944
890.624	19887
890.748	19932
890.871	19868
890.995	19757
891.118	19601
891.241	19769
891.364	19723
891.488	19860
891.611	19791
891.734	19742
891.857	19830
891.98	19765
892.103	19807
892.226	19765
892.349	19731
892.471	19578
892.594	19723
892.717	19677
892.839	19544
892.962	19685
893.085	19704
893.207	19624
893.33	19597
893.452	19434
893.575	19723
893.697	19647
893.819	19696
893.941	19875
894.064	19803
894.186	19681
894.308	19491
894.43	19769
894.552	19807
894.674	19719
894.796	19537
894.918	19590
895.04	19609
895.161	19788
895.283	19757
895.405	19674
895.526	19658
895.648	19575
895.769	19689
895.891	19704
896.012	19628
896.134	19685
896.255	19620
896.376	19643
896.498	19635
896.619	19662
896.74	19715
896.861	19849
896.982	19936
897.103	20195
897.224	19849
897.345	19917
897.466	19902
897.587	19986
897.708	19921
897.828	20024
897.949	19761
898.07	19647
898.19	19837
898.311	19967
898.431	19879
898.552	19887
898.672	19936
898.792	19989
898.913	19894
899.033	19803
899.153	19765
899.273	19499
899.393	19578
899.513	19647
899.633	19655
899.753	19537
899.873	19571
899.993	19658
900.113	19613
900.232	19518
900.352	19556
900.472	19476
900.591	19358
900.711	19453
900.83	19426
900.95	19362
901.069	19373
901.189	19362
901.308	19114
901.427	18916
901.546	18970
901.665	19065
901.784	19042
901.904	18848
902.023	18833
902.141	18673
902.26	18509
902.379	18684
902.498	18582
902.617	18429
902.735	18547
902.854	18517
902.973	18281
903.091	18155
903.21	18239
903.328	18197
903.446	18068
903.565	18053
903.683	18011
903.801	17866
903.919	17999
904.038	17992
904.156	17786
904.274	17828
904.392	17733
904.51	17657
904.627	17627
904.745	17832
904.863	17775
904.981	17554
905.098	17376
905.216	17509
905.334	17547
905.451	17490
905.569	17455
905.686	17482
905.803	17501
905.921	17223
906.038	17364
906.155	17311
906.272	17102
906.389	17208
906.506	16972
906.623	17178
906.74	16938
906.857	16953
906.974	16995
907.091	16984
907.208	17025
907.324	17067
907.441	16889
907.557	16816
907.674	16717
907.79	16702
907.907	16721
908.023	16797
908.139	16721
908.256	16641
908.372	16698
908.488	16599
908.604	16500
908.72	16481
908.836	16470
908.952	16394
909.068	16470
909.184	16592
909.3	16500
909.415	16561
909.531	16421
909.647	16303
909.762	16143
909.878	16166
909.993	16147
910.108	16086
910.224	16158
910.339	16135
910.454	16124
910.57	16055
910.685	15892
910.8	16177
910.915	16048
911.03	16025
911.145	15774
911.259	15701
911.374	15751
911.489	15675
911.604	15667
911.718	15625
911.833	15629
911.947	15439
912.062	15450
912.176	15606
912.291	15523
912.405	15538
912.519	15743
912.633	15739
912.748	15648
912.862	15545
912.976	15336
913.09	15317
913.204	15298
913.318	15382
913.431	15450
913.545	15382
913.659	15572
913.772	15454
913.886	15203
914	15218
914.113	15222
914.226	15340
914.34	15249
914.453	15074
914.566	15173
914.68	15005
914.793	15093
914.906	14891
915.019	14762
915.132	14682
915.245	14686
915.358	14769
915.47	14739
915.583	14842
915.696	14891
915.809	14982
915.921	14769
916.034	14773
916.146	14678
916.259	14689
916.371	14807
916.483	14727
916.595	14613
916.708	14670
916.82	14617
916.932	14655
917.044	14564
917.156	14568
917.268	14560
917.38	14495
917.491	14533
917.603	14537
917.715	14522
917.826	14541
917.938	14427
918.049	14278
918.161	14408
918.272	14522
918.384	14503
918.495	14385
918.606	14210
918.717	14225
918.828	14275
918.939	14187
919.05	14088
919.161	14115
919.272	14024
919.383	14054
919.494	14259
919.604	14450
919.715	14206
919.826	14119
919.936	14225
920.047	14210
920.157	14214
920.267	14393
920.378	14183
920.488	14164
920.598	14351
920.708	14328
920.818	14271
920.928	14275
921.038	14465
921.148	14469
921.258	14107
921.368	14077
921.477	13917
921.587	13826
921.697	13852
921.806	13917
921.916	13704
922.025	13616
922.134	13655
922.244	13476
922.353	13696
922.462	13457
922.571	13362
922.68	13232
922.789	13247
922.898	13339
923.007	13114
923.116	13202
923.224	13198
923.333	13175
923.442	12993
923.55	13095
923.659	13107
923.767	13110
923.876	13027
923.984	13152
924.092	13057
924.201	12973
924.309	13004
924.417	12901
924.525	12897
924.633	12890
924.741	13841
924.849	12749
924.956	12852
925.064	12662
925.172	12559
925.279	12639
925.387	12627
925.494	12700
925.602	12707
925.709	12703
925.816	12494
925.924	12574
926.031	12700
926.138	12601
926.245	12646
926.352	12471
926.459	12616
926.566	12642
926.673	12502
926.779	12388
926.886	12426
926.993	12296
927.099	12266
927.206	12152
927.312	12239
927.419	12220
927.525	12133
927.631	12262
927.737	12125
927.843	12030
927.95	12015
928.056	11977
928.162	12038
928.267	12129
928.373	12715
928.479	12140
928.585	11863
928.69	11996
928.796	12114
928.901	11950
929.007	11745
929.112	11939
929.218	11863
929.323	11859
929.428	11802
929.533	11931
929.638	11779
929.743	11695
929.848	11790
929.953	11726
930.058	11688
930.163	11493
930.267	11490
930.372	11615
930.477	11372
930.581	11729
930.685	11524
930.79	11433
930.894	11376
930.998	11395
931.103	11459
931.207	11212
931.311	10999
931.415	11045
931.519	10847
931.623	10698
