Data from test_V78500241_569.txt Node
Date: Fri Mar 25 15:13:49 CST 2022
User: usil
Spectrometer: V785-0024
Trigger mode: 0
Integration Time (sec): 4.000000E-1
Scans to average: 1
Nonlinearity correction enabled: false
Boxcar width: 0
Storing dark spectrum: false
XAxis mode: Wavelengths
Number of Pixels in Spectrum: 1024
>>>>>Begin Spectral Data<<<<<
801.071	26868
801.214	26883
801.356	26758
801.499	26613
801.641	26476
801.783	26324
801.926	26453
802.068	26396
802.211	26507
802.353	26180
802.496	26240
802.638	26043
802.78	25966
802.923	25966
803.065	25986
803.208	26130
803.35	26031
803.492	26172
803.635	26218
803.777	26092
803.919	25989
804.061	26320
804.204	26096
804.346	26256
804.488	26176
804.63	26187
804.773	25970
804.915	26164
805.057	26370
805.199	26309
805.341	26206
805.483	26210
805.626	26218
805.768	26183
805.91	26294
806.052	26282
806.194	26191
806.336	26408
806.478	26351
806.62	26320
806.762	26358
806.904	26499
807.046	26823
807.188	26849
807.33	26609
807.472	26754
807.614	26644
807.756	26629
807.898	26617
808.04	26457
808.182	26552
808.324	26434
808.465	26606
808.607	26777
808.749	26826
808.891	26975
809.033	26982
809.174	26960
809.316	26933
809.458	26933
809.6	26864
809.741	26933
809.883	26918
810.025	27207
810.166	27241
810.308	27062
810.45	27176
810.591	26986
810.733	26883
810.875	26754
811.016	26743
811.158	26735
811.299	26868
811.441	26990
811.582	26982
811.724	26868
811.865	26788
812.007	26872
812.148	26857
812.29	26952
812.431	26990
812.573	27188
812.714	27306
812.855	27397
812.997	27466
813.138	27679
813.279	27526
813.421	27431
813.562	27344
813.703	27302
813.845	27123
813.986	26910
814.127	26720
814.268	26743
814.41	26632
814.551	26419
814.692	26465
814.833	26415
814.974	26499
815.115	26476
815.256	26434
815.397	26457
815.539	26575
815.68	26328
815.821	26218
815.962	26320
816.103	26381
816.244	26191
816.385	26016
816.526	26081
816.666	25978
816.807	25715
816.948	25887
817.089	25898
817.23	25708
817.371	25814
817.512	25841
817.653	25734
817.793	25776
817.934	25841
818.075	25742
818.216	25852
818.356	25879
818.497	25742
818.638	25616
818.778	25609
818.919	25419
819.06	25590
819.2	25708
819.341	25837
819.481	25811
819.622	25913
819.762	26168
819.903	26024
820.043	25894
820.184	26008
820.324	25921
820.465	26024
820.605	25906
820.746	25879
820.886	25609
821.026	25925
821.167	25845
821.307	25928
821.447	25936
821.588	25704
821.728	25559
821.868	25381
822.008	25289
822.149	25312
822.289	25145
822.429	24928
822.569	24863
822.709	24916
822.849	24787
822.99	24734
823.13	24772
823.27	24753
823.41	24509
823.55	24475
823.69	24608
823.83	24658
823.97	24525
824.11	24232
824.25	24380
824.389	24361
824.529	24429
824.669	24414
824.809	24620
824.949	24395
825.089	24525
825.228	24486
825.368	24171
825.508	24334
825.648	24285
825.787	24178
825.927	24384
826.067	24186
826.206	24281
826.346	24228
826.485	24388
826.625	24300
826.765	24403
826.904	24308
827.044	24129
827.183	24022
827.323	23878
827.462	24114
827.601	23999
827.741	24041
827.88	24018
828.02	23828
828.159	24057
828.298	24182
828.437	24140
828.577	23882
828.716	23980
828.855	23958
828.994	23752
829.134	23691
829.273	23771
829.412	23668
829.551	23577
829.69	23657
829.829	23733
829.968	23718
830.107	23901
830.246	23786
830.385	23646
830.524	23627
830.663	23539
830.802	23372
830.941	23216
831.08	23303
831.219	23376
831.357	23482
831.496	23486
831.635	23429
831.774	23265
831.913	23162
832.051	23090
832.19	23071
832.329	23181
832.467	23033
832.606	23094
832.744	22984
832.883	22995
833.022	23086
833.16	22968
833.299	22991
833.437	23037
833.576	23124
833.714	23170
833.852	23079
833.991	23132
834.129	23094
834.267	23235
834.406	23083
834.544	23162
834.682	23117
834.821	22946
834.959	23334
835.097	22961
835.235	23098
835.373	22984
835.511	23143
835.65	22923
835.788	22869
835.926	22850
836.064	22733
836.202	22759
836.34	23048
836.478	23033
836.615	22801
836.753	22919
836.891	22999
837.029	22999
837.167	22885
837.305	22854
837.443	22858
837.58	22831
837.718	22797
837.856	22790
837.993	22736
838.131	22656
838.269	22664
838.406	22607
838.544	22706
838.681	22402
838.819	22436
838.956	22242
839.094	22352
839.231	22257
839.369	22459
839.506	22622
839.643	22402
839.781	22261
839.918	22173
840.055	22268
840.193	22158
840.33	22272
840.467	22051
840.604	22086
840.742	22314
840.879	22055
841.016	22120
841.153	22105
841.29	22242
841.427	22204
841.564	22253
841.701	22074
841.838	22158
841.975	22078
842.112	22120
842.249	21979
842.385	21926
842.522	22116
842.659	22063
842.796	21991
842.933	21960
843.069	21918
843.206	21903
843.343	22040
843.479	22013
843.616	21861
843.752	21682
843.889	21698
844.025	21800
844.162	21781
844.298	21800
844.435	21717
844.571	21568
844.708	21724
844.844	21884
844.98	21808
845.117	21846
845.253	21698
845.389	21694
845.525	21545
845.661	21564
845.798	21507
845.934	21568
846.07	21458
846.206	21519
846.342	21553
846.478	21416
846.614	21291
846.75	21127
846.886	21192
847.022	21173
847.158	21275
847.294	21173
847.429	21230
847.565	21096
847.701	21507
847.837	20925
847.972	20990
848.108	20960
848.244	21036
848.379	20804
848.515	20830
848.65	20819
848.786	20697
848.921	20823
849.057	20880
849.192	20872
849.328	20785
849.463	20735
849.598	20708
849.734	20750
849.869	20705
850.004	20590
850.14	20537
850.275	20473
850.41	20499
850.545	20503
850.68	20480
850.815	20648
850.95	20598
851.085	20720
851.22	20648
851.355	20606
851.49	20450
851.625	20568
851.76	20621
851.895	20412
852.03	20446
852.165	20461
852.299	20571
852.434	20594
852.569	20457
852.703	20457
852.838	20621
852.973	20712
853.107	20720
853.242	20488
853.376	20434
853.511	20256
853.645	20336
853.78	20507
853.914	20415
854.048	20328
854.183	20294
854.317	20336
854.451	20598
854.585	20343
854.72	20385
854.854	20446
854.988	20362
855.122	20484
855.256	20282
855.39	20252
855.524	20374
855.658	20526
855.792	20431
855.926	20412
856.06	20431
856.194	20442
856.327	20240
856.461	20408
856.595	20351
856.729	20370
856.862	20495
856.996	20427
857.13	20381
857.263	20457
857.397	20545
857.53	20457
857.664	20488
857.797	20446
857.931	20549
858.064	20473
858.197	20522
858.331	20377
858.464	20248
858.597	20328
858.731	20366
858.864	20427
858.997	20320
859.13	20286
859.263	20450
859.396	20404
859.529	20412
859.662	20320
859.795	20313
859.928	20393
860.061	20533
860.194	20556
860.327	20400
860.46	20454
860.592	20480
860.725	20442
860.858	20541
860.99	20393
861.123	20267
861.256	20385
861.388	20339
861.521	21131
861.653	20195
861.786	20206
861.918	20145
862.05	20275
862.183	20298
862.315	20366
862.447	20385
862.58	20298
862.712	20107
862.844	20046
862.976	20202
863.108	20199
863.24	20541
863.372	20069
863.504	20138
863.636	20043
863.768	20126
863.9	20130
864.032	20001
864.164	20046
864.296	20138
864.428	20054
864.559	20107
864.691	20115
864.823	20149
864.954	20062
865.086	20046
865.217	20050
865.349	19906
865.48	20027
865.612	19974
865.743	20172
865.875	20134
866.006	19936
866.137	19982
866.269	20031
866.4	19951
866.531	20043
866.662	19883
866.793	19890
866.924	19898
867.055	19883
867.186	20035
867.317	19986
867.448	19925
867.579	19963
867.71	19788
867.841	19856
867.972	19845
868.103	20001
868.233	20077
868.364	20024
868.495	20005
868.625	20111
868.756	20202
868.886	20142
869.017	20130
869.147	20301
869.278	20301
869.408	20096
869.539	20202
869.669	20206
869.799	20183
869.929	20286
870.06	20309
870.19	20476
870.32	20583
870.45	20549
870.58	20457
870.71	20655
870.84	20697
870.97	20625
871.1	20632
871.23	20830
871.36	20743
871.489	20762
871.619	20663
871.749	20773
871.879	20811
872.008	20876
872.138	20899
872.267	20899
872.397	20629
872.526	20659
872.656	20693
872.785	20708
872.915	20777
873.044	20819
873.173	20720
873.303	20842
873.432	20872
873.561	20868
873.69	20838
873.819	20872
873.948	20864
874.077	20826
874.206	20746
874.335	20902
874.464	20921
874.593	21055
874.722	21142
874.851	21020
874.979	21131
875.108	21142
875.237	21032
875.365	21013
875.494	21005
875.623	21077
875.751	21055
875.88	21036
876.008	21199
876.136	21180
876.265	21523
876.393	21542
876.521	21553
876.65	21576
876.778	21488
876.906	21348
877.034	21408
877.162	21435
877.29	21367
877.418	21298
877.546	21420
877.674	21450
877.802	21428
877.93	21405
878.058	21348
878.185	21218
878.313	21416
878.441	21435
878.568	21283
878.696	21321
878.824	21519
878.951	21428
879.079	21561
879.206	21667
879.333	21686
879.461	21447
879.588	21389
879.715	21595
879.842	21690
879.97	21500
880.097	21222
880.224	21230
880.351	21173
880.478	21233
880.605	21176
880.732	21386
880.859	21313
880.986	21298
881.112	21214
881.239	21184
881.366	20979
881.493	20845
881.619	20815
881.746	20925
881.872	20929
881.999	20758
882.125	20731
882.252	20876
882.378	20746
882.505	20967
882.631	20727
882.757	20579
882.883	20552
883.01	20682
883.136	20434
883.262	20317
883.388	20511
883.514	20636
883.64	20541
883.766	20511
883.892	20431
884.018	20298
884.143	20431
884.269	20400
884.395	20157
884.52	20214
884.646	20275
884.772	20172
884.897	20229
885.023	20111
885.148	20168
885.274	20286
885.399	20199
885.524	20199
885.65	20073
885.775	20282
885.9	20145
886.025	20199
886.15	20263
886.275	20252
886.4	20084
886.525	20202
886.65	20119
886.775	20149
886.9	20275
887.025	20355
887.149	20031
887.274	19951
887.399	19856
887.523	19982
887.648	19894
887.773	19947
887.897	20043
888.021	20073
888.146	19951
888.27	20161
888.395	20069
888.519	20039
888.643	19936
888.767	19928
888.891	19955
889.015	19719
889.139	19814
889.263	19738
889.387	19887
889.511	19875
889.635	19925
889.759	19757
889.883	19807
890.006	19822
890.13	19875
890.254	19567
890.377	19670
890.501	19495
890.624	19464
890.748	19563
890.871	19426
890.995	19422
891.118	19266
891.241	19320
891.364	19407
891.488	19506
891.611	19285
891.734	19350
891.857	19537
891.98	19388
892.103	19438
892.226	19400
892.349	19285
892.471	19091
892.594	19270
892.717	19274
892.839	19206
892.962	19209
893.085	19350
893.207	19381
893.33	19118
893.452	19126
893.575	19247
893.697	19206
893.819	19430
893.941	19339
894.064	19396
894.186	19225
894.308	19145
894.43	19381
894.552	19422
894.674	19343
894.796	19240
894.918	19175
895.04	19107
895.161	19339
895.283	19304
895.405	19221
895.526	19190
895.648	19331
895.769	19331
895.891	19308
896.012	19369
896.134	19377
896.255	19244
896.376	19384
896.498	19373
896.619	19236
896.74	19320
896.861	19369
896.982	19582
897.103	19818
897.224	19575
897.345	19597
897.466	19468
897.587	19483
897.708	19639
897.828	19582
897.949	19506
898.07	19343
898.19	19537
898.311	19635
898.431	19415
898.552	19476
898.672	19529
898.792	19575
898.913	19521
899.033	19495
899.153	19388
899.273	19168
899.393	19209
899.513	19381
899.633	19316
899.753	19316
899.873	19187
899.993	19320
900.113	19266
900.232	19324
900.352	19217
900.472	19145
900.591	19053
900.711	19206
900.83	19004
900.95	19187
901.069	19175
901.189	18947
901.308	18772
901.427	18642
901.546	18734
901.665	18646
901.784	18688
901.904	18589
902.023	18574
902.141	18190
902.26	18251
902.379	18213
902.498	18232
902.617	18140
902.735	18205
902.854	18129
902.973	18072
903.091	17916
903.21	17832
903.328	17748
903.446	17783
903.565	17805
903.683	17649
903.801	17551
903.919	17653
904.038	17615
904.156	17448
904.274	17539
904.392	17353
904.51	17455
904.627	17398
904.745	17391
904.863	17547
904.981	17235
905.098	17052
905.216	17105
905.334	17162
905.451	17128
905.569	17075
905.686	17094
905.803	17124
905.921	16896
906.038	17102
906.155	17018
906.272	16744
906.389	16904
906.506	16656
906.623	16645
906.74	16584
906.857	16584
906.974	16645
907.091	16721
907.208	16752
907.324	16717
907.441	16516
907.557	16478
907.674	16440
907.79	16409
907.907	16360
908.023	16421
908.139	16375
908.256	16299
908.372	16219
908.488	16295
908.604	16185
908.72	16105
908.836	16181
908.952	16097
909.068	16093
909.184	16265
909.3	16090
909.415	16200
909.531	16204
909.647	15823
909.762	15884
909.878	15732
909.993	15831
910.108	15892
910.224	15720
910.339	15876
910.454	15701
910.57	15736
910.685	15538
910.8	15869
910.915	15835
911.03	15580
911.145	15477
911.259	15580
911.374	15412
911.489	15348
911.604	15275
911.718	15188
911.833	15112
911.947	15230
912.062	15074
912.176	15066
912.291	15245
912.405	15211
912.519	15306
912.633	15367
912.748	15230
912.862	15036
912.976	15013
913.09	14944
913.204	15009
913.318	14921
913.431	15100
913.545	15131
913.659	15154
913.772	15028
913.886	14921
914	14705
914.113	14819
914.226	14994
914.34	14765
914.453	14765
914.566	14823
914.68	14765
914.793	14689
914.906	14568
915.019	14522
915.132	14385
915.245	14484
915.358	14446
915.47	14526
915.583	14473
915.696	14488
915.809	14526
915.921	14610
916.034	14370
916.146	14396
916.259	14366
916.371	14492
916.483	14324
916.595	14347
916.708	14324
916.82	14229
916.932	14294
917.044	14225
917.156	14096
917.268	14081
917.38	14157
917.491	14195
917.603	14164
917.715	14161
917.826	14240
917.938	14164
918.049	14035
918.161	14058
918.272	14210
918.384	14278
918.495	14176
918.606	13845
918.717	13875
918.828	13917
918.939	13921
919.05	13852
919.161	13936
919.272	13757
919.383	13818
919.494	13993
919.604	14187
919.715	14001
919.826	13887
919.936	13917
920.047	13951
920.157	13856
920.267	14111
920.378	13967
920.488	13811
920.598	14107
920.708	14180
920.818	14050
920.928	14062
921.038	14172
921.148	14107
921.258	13974
921.368	13727
921.477	13719
921.587	13658
921.697	13514
921.806	13567
921.916	13411
922.025	13453
922.134	13266
922.244	13350
922.353	13331
922.462	13168
922.571	13103
922.68	12932
922.789	12909
922.898	12996
923.007	12806
923.116	12958
923.224	12909
923.333	12894
923.442	12730
923.55	12662
923.659	12760
923.767	12806
923.876	12711
923.984	12776
924.092	12650
924.201	12772
924.309	12707
924.417	12703
924.525	12631
924.633	12623
924.741	13464
924.849	12525
924.956	12486
925.064	12460
925.172	12319
925.279	12372
925.387	12327
925.494	12350
925.602	12456
925.709	12403
925.816	12327
925.924	12361
926.031	12334
926.138	12384
926.245	12460
926.352	12311
926.459	12456
926.566	12437
926.673	12357
926.779	12155
926.886	12049
926.993	11965
927.099	11984
927.206	11996
927.312	11882
927.419	12049
927.525	11969
927.631	12045
927.737	11935
927.843	11821
927.95	11676
928.056	11790
928.162	11824
928.267	11786
928.373	12414
928.479	11904
928.585	11638
928.69	11722
928.796	11889
928.901	11672
929.007	11554
929.112	11733
929.218	11668
929.323	11539
929.428	11592
929.533	11649
929.638	11490
929.743	11577
929.848	11532
929.953	11512
930.058	11364
930.163	11322
930.267	11254
930.372	11471
930.477	11166
930.581	11448
930.685	11269
930.79	11201
930.894	11273
930.998	11159
931.103	11227
931.207	10942
931.311	10858
931.415	10824
931.519	10523
931.623	10474
