Data from test_V78500241_862.txt Node
Date: Fri Mar 25 15:15:51 CST 2022
User: usil
Spectrometer: V785-0024
Trigger mode: 0
Integration Time (sec): 4.000000E-1
Scans to average: 1
Nonlinearity correction enabled: false
Boxcar width: 0
Storing dark spectrum: false
XAxis mode: Wavelengths
Number of Pixels in Spectrum: 1024
>>>>>Begin Spectral Data<<<<<
801.071	28291
801.214	28143
801.356	27998
801.499	27800
801.641	27903
801.783	27838
801.926	27854
802.068	27861
802.211	27656
802.353	27618
802.496	27431
802.638	27439
802.78	27450
802.923	27389
803.065	27488
803.208	27439
803.35	27412
803.492	27663
803.635	27599
803.777	27568
803.919	27644
804.061	27899
804.204	27736
804.346	27728
804.488	27561
804.63	27614
804.773	27618
804.915	27690
805.057	27705
805.199	27564
805.341	27743
805.483	27682
805.626	27679
805.768	27667
805.91	27675
806.052	27949
806.194	27751
806.336	27975
806.478	27926
806.62	27884
806.762	27835
806.904	28006
807.046	28398
807.188	28143
807.33	28306
807.472	28268
807.614	28070
807.756	28306
807.898	28192
808.04	28017
808.182	28074
808.324	28135
808.465	28257
808.607	28276
808.749	28618
808.891	28440
809.033	28603
809.174	28565
809.316	28481
809.458	28660
809.6	28432
809.741	28557
809.883	28459
810.025	28755
810.166	28797
810.308	28763
810.45	28725
810.591	28675
810.733	28500
810.875	28455
811.016	28417
811.158	28360
811.299	28542
811.441	28634
811.582	28615
811.724	28417
811.865	28352
812.007	28516
812.148	28421
812.29	28421
812.431	28630
812.573	28908
812.714	28858
812.855	28999
812.997	29079
813.138	29429
813.279	29143
813.421	28873
813.562	29102
813.703	28858
813.845	28793
813.986	28489
814.127	28291
814.268	28158
814.41	28230
814.551	28135
814.692	28226
814.833	28287
814.974	28325
815.115	28299
815.256	28150
815.397	28169
815.539	28131
815.68	27857
815.821	28021
815.962	27968
816.103	28078
816.244	27937
816.385	27892
816.526	27835
816.666	27660
816.807	27355
816.948	27728
817.089	27743
817.23	27526
817.371	27694
817.512	27587
817.653	27469
817.793	27538
817.934	27477
818.075	27523
818.216	27644
818.356	27587
818.497	27549
818.638	27169
818.778	27291
818.919	27268
819.06	27310
819.2	27359
819.341	27462
819.481	27614
819.622	27587
819.762	27732
819.903	27789
820.043	27599
820.184	27663
820.324	27663
820.465	27686
820.605	27614
820.746	27690
820.886	27393
821.026	27557
821.167	27679
821.307	27603
821.447	27587
821.588	27462
821.728	27203
821.868	27165
822.008	26937
822.149	26979
822.289	26952
822.429	26785
822.569	26575
822.709	26716
822.849	26442
822.99	26408
823.13	26533
823.27	26476
823.41	26362
823.55	26100
823.69	26355
823.83	26309
823.97	26362
824.11	26054
824.25	26081
824.389	26172
824.529	26164
824.669	26195
824.809	26195
824.949	26176
825.089	26237
825.228	26206
825.368	25993
825.508	25944
825.648	25959
825.787	26130
825.927	26111
826.067	25944
826.206	26054
826.346	26096
826.485	26027
826.625	26012
826.765	26176
826.904	25966
827.044	25917
827.183	25814
827.323	25753
827.462	25845
827.601	25883
827.741	25723
827.88	25906
828.02	25628
828.159	25639
828.298	25959
828.437	25807
828.577	25647
828.716	25890
828.855	25670
828.994	25548
829.134	25388
829.273	25487
829.412	25441
829.551	25400
829.69	25335
829.829	25544
829.968	25605
830.107	25430
830.246	25582
830.385	25365
830.524	25396
830.663	25297
830.802	25099
830.941	24954
831.08	24981
831.219	25137
831.357	25133
831.496	25346
831.635	25042
831.774	25023
831.913	24913
832.051	24985
832.19	24795
832.329	24916
832.467	24802
832.606	24703
832.744	24829
832.883	24791
833.022	24722
833.16	24692
833.299	24738
833.437	24821
833.576	24837
833.714	24821
833.852	24856
833.991	24905
834.129	24996
834.267	24916
834.406	24833
834.544	24806
834.682	24814
834.821	24852
834.959	24966
835.097	24673
835.235	24821
835.373	24745
835.511	24779
835.65	24673
835.788	24604
835.926	24479
836.064	24669
836.202	24395
836.34	24566
836.478	24753
836.615	24669
836.753	24688
836.891	24692
837.029	24677
837.167	24635
837.305	24639
837.443	24559
837.58	24483
837.718	24532
837.856	24475
837.993	24399
838.131	24426
838.269	24330
838.406	24464
838.544	24342
838.681	24007
838.819	24015
838.956	24041
839.094	23927
839.231	23977
839.369	24155
839.506	24243
839.643	24152
839.781	23958
839.918	23836
840.055	23859
840.193	23851
840.33	23920
840.467	23817
840.604	23912
840.742	24018
840.879	23642
841.016	23699
841.153	23665
841.29	23828
841.427	23828
841.564	23874
841.701	23813
841.838	23722
841.975	23687
842.112	23718
842.249	23729
842.385	23646
842.522	23798
842.659	23608
842.796	23543
842.933	23547
843.069	23577
843.206	23528
843.343	23554
843.479	23539
843.616	23497
843.752	23360
843.889	23459
844.025	23433
844.162	23360
844.298	23577
844.435	23334
844.571	23337
844.708	23356
844.844	23611
844.98	23471
845.117	23402
845.253	23273
845.389	23273
845.525	23273
845.661	23162
845.798	23147
845.934	23124
846.07	23071
846.206	23174
846.342	23143
846.478	23200
846.614	22858
846.75	22752
846.886	22850
847.022	22896
847.158	22736
847.294	22976
847.429	22812
847.565	22702
847.701	23025
847.837	22622
847.972	22436
848.108	22569
848.244	22618
848.379	22470
848.515	22382
848.65	22432
848.786	22382
848.921	22398
849.057	22500
849.192	22542
849.328	22462
849.463	22348
849.598	22409
849.734	22352
849.869	22257
850.004	22211
850.14	22143
850.275	22295
850.41	22158
850.545	22036
850.68	22093
850.815	22192
850.95	22120
851.085	22367
851.22	22230
851.355	22230
851.49	22226
851.625	22162
851.76	22162
851.895	22059
852.03	22116
852.165	22128
852.299	22177
852.434	22272
852.569	22124
852.703	22219
852.838	22287
852.973	22303
853.107	22272
853.242	22109
853.376	22036
853.511	21949
853.645	21808
853.78	22173
853.914	22021
854.048	21911
854.183	22021
854.317	22086
854.451	22352
854.585	21960
854.72	22017
854.854	22040
854.988	21949
855.122	21960
855.256	21838
855.39	21998
855.524	22097
855.658	22044
855.792	22036
855.926	22006
856.06	22029
856.194	22188
856.327	21934
856.461	21987
856.595	21857
856.729	21907
856.862	22131
856.996	21987
857.13	22109
857.263	22006
857.397	22109
857.53	22048
857.664	21937
857.797	22013
857.931	22150
858.064	22055
858.197	22070
858.331	21831
858.464	21922
858.597	21994
858.731	21930
858.864	22006
858.997	21876
859.13	21960
859.263	21953
859.396	22055
859.529	22063
859.662	21953
859.795	21934
859.928	22051
860.061	22143
860.194	22261
860.327	21987
860.46	21899
860.592	22181
860.725	22036
860.858	22131
860.99	21945
861.123	21998
861.256	21911
861.388	21987
861.521	22752
861.653	21751
861.786	21819
861.918	21842
862.05	21838
862.183	21941
862.315	21934
862.447	22032
862.58	22029
862.712	21660
862.844	21614
862.976	21800
863.108	21675
863.24	22002
863.372	21709
863.504	21705
863.636	21739
863.768	21789
863.9	21568
864.032	21641
864.164	21633
864.296	21781
864.428	21930
864.559	21739
864.691	21842
864.823	21789
864.954	21709
865.086	21698
865.217	21660
865.349	21401
865.48	21587
865.612	21561
865.743	21686
865.875	21610
866.006	21610
866.137	21682
866.269	21587
866.4	21644
866.531	21447
866.662	21397
866.793	21428
866.924	21450
867.055	21603
867.186	21629
867.317	21481
867.448	21435
867.579	21515
867.71	21431
867.841	21511
867.972	21488
868.103	21538
868.233	21599
868.364	21397
868.495	21656
868.625	21819
868.756	21945
868.886	21701
869.017	21709
869.147	21884
869.278	21785
869.408	21785
869.539	21857
869.669	21724
869.799	21812
869.929	21816
870.06	21778
870.19	22112
870.32	22105
870.45	22036
870.58	22154
870.71	22143
870.84	22287
870.97	22223
871.1	22143
871.23	22291
871.36	22466
871.489	22181
871.619	22306
871.749	22238
871.879	22295
872.008	22527
872.138	22280
872.267	22348
872.397	22196
872.526	22158
872.656	22253
872.785	22109
872.915	22451
873.044	22504
873.173	22314
873.303	22417
873.432	22428
873.561	22428
873.69	22356
873.819	22398
873.948	22405
874.077	22329
874.206	22135
874.335	22333
874.464	22527
874.593	22580
874.722	22459
874.851	22630
874.979	22538
875.108	22561
875.237	22565
875.365	22440
875.494	22519
875.623	22691
875.751	22481
875.88	22577
876.008	22710
876.136	22702
876.265	22908
876.393	23033
876.521	22987
876.65	23064
876.778	23052
876.906	22953
877.034	22820
877.162	22949
877.29	22831
877.418	22991
877.546	23067
877.674	22873
877.802	22896
877.93	22866
878.058	22854
878.185	22847
878.313	22949
878.441	22885
878.568	22645
878.696	22816
878.824	23048
878.951	23025
879.079	23098
879.206	23124
879.333	23029
879.461	22938
879.588	22987
879.715	23022
879.842	23159
879.97	22923
880.097	22763
880.224	22767
880.351	22698
880.478	22786
880.605	22687
880.732	22710
880.859	22900
880.986	22740
881.112	22816
881.239	22675
881.366	22459
881.493	22287
881.619	22333
881.746	22367
881.872	22360
881.999	22295
882.125	22169
882.252	22265
882.378	22246
882.505	22405
882.631	22166
882.757	21964
882.883	22131
883.01	22078
883.136	21888
883.262	21994
883.388	21888
883.514	21960
883.64	21994
883.766	21895
883.892	21816
884.018	21724
884.143	21880
884.269	22074
884.395	21667
884.52	21648
884.646	21675
884.772	21572
884.897	21530
885.023	21705
885.148	21660
885.274	21778
885.399	21778
885.524	21545
885.65	21606
885.775	21686
885.9	21599
886.025	21603
886.15	21720
886.275	21542
886.4	21424
886.525	21530
886.65	21515
886.775	21542
886.9	21663
887.025	21842
887.149	21405
887.274	21431
887.399	21439
887.523	21344
887.648	21264
887.773	21386
887.897	21370
888.021	21454
888.146	21405
888.27	21500
888.395	21477
888.519	21329
888.643	21386
888.767	21473
888.891	21283
889.015	21268
889.139	21226
889.263	21119
889.387	21382
889.511	21469
889.635	21283
889.759	21142
889.883	21077
890.006	21173
890.13	21211
890.254	21157
890.377	21108
890.501	20982
890.624	20921
890.748	21138
890.871	20743
890.995	20800
891.118	20670
891.241	20708
891.364	20651
891.488	20826
891.611	20845
891.734	20682
891.857	20807
891.98	20762
892.103	20781
892.226	20735
892.349	20758
892.471	20552
892.594	20617
892.717	20716
892.839	20659
892.962	20773
893.085	20705
893.207	20579
893.33	20499
893.452	20552
893.575	20678
893.697	20625
893.819	20720
893.941	20857
894.064	20758
894.186	20609
894.308	20632
894.43	20663
894.552	20750
894.674	20731
894.796	20613
894.918	20609
895.04	20678
895.161	20689
895.283	20769
895.405	20621
895.526	20583
895.648	20579
895.769	20716
895.891	20640
896.012	20773
896.134	20735
896.255	20705
896.376	20594
896.498	20670
896.619	20564
896.74	20530
896.861	20678
896.982	20979
897.103	21093
897.224	20883
897.345	20758
897.466	20823
897.587	20925
897.708	20990
897.828	20883
897.949	20720
898.07	20663
898.19	20876
898.311	20914
898.431	20773
898.552	20902
898.672	20921
898.792	20906
898.913	20686
899.033	20720
899.153	20750
899.273	20571
899.393	20499
899.513	20648
899.633	20530
899.753	20644
899.873	20537
899.993	20511
900.113	20495
900.232	20598
900.352	20461
900.472	20381
900.591	20328
900.711	20332
900.83	20328
900.95	20404
901.069	20488
901.189	20328
901.308	20001
901.427	19993
901.546	20012
901.665	19967
901.784	19879
901.904	19879
902.023	19712
902.141	19518
902.26	19415
902.379	19464
902.498	19358
902.617	19411
902.735	19480
902.854	19453
902.973	19350
903.091	19152
903.21	19148
903.328	19129
903.446	19053
903.565	18977
903.683	19076
903.801	18817
903.919	18897
904.038	18897
904.156	18692
904.274	18776
904.392	18692
904.51	18677
904.627	18608
904.745	18707
904.863	18707
904.981	18486
905.098	18262
905.216	18357
905.334	18384
905.451	18372
905.569	18327
905.686	18350
905.803	18197
905.921	18152
906.038	18243
906.155	18129
906.272	17992
906.389	18060
906.506	17786
906.623	17992
906.74	17817
906.857	17840
906.974	17764
907.091	17996
907.208	18015
907.324	17805
907.441	17783
907.557	17585
907.674	17604
907.79	17592
907.907	17623
908.023	17589
908.139	17649
908.256	17528
908.372	17474
908.488	17490
908.604	17395
908.72	17261
908.836	17303
908.952	17212
909.068	17280
909.184	17391
909.3	17337
909.415	17216
909.531	17353
909.647	17113
909.762	17056
909.878	17071
909.993	16972
910.108	17003
910.224	16999
910.339	16953
910.454	16881
910.57	16862
910.685	16706
910.8	16961
910.915	16968
911.03	16752
911.145	16599
911.259	16573
911.374	16474
911.489	16462
911.604	16455
911.718	16314
911.833	16371
911.947	16120
912.062	16223
912.176	16341
912.291	16402
912.405	16234
912.519	16489
912.633	16516
912.748	16455
912.862	16352
912.976	16242
913.09	16139
913.204	16120
913.318	16166
913.431	16299
913.545	16230
913.659	16394
913.772	16120
913.886	16029
914	15964
914.113	16002
914.226	16032
914.34	15953
914.453	15892
914.566	16029
914.68	15865
914.793	15736
914.906	15656
915.019	15648
915.132	15553
915.245	15553
915.358	15561
915.47	15576
915.583	15614
915.696	15561
915.809	15603
915.921	15599
916.034	15496
916.146	15450
916.259	15420
916.371	15462
916.483	15488
916.595	15405
916.708	15351
916.82	15382
916.932	15370
917.044	15275
917.156	15272
917.268	15074
917.38	15214
917.491	15268
917.603	15233
917.715	15294
917.826	15291
917.938	15085
918.049	15017
918.161	15203
918.272	15116
918.384	15329
918.495	15142
918.606	14902
918.717	14845
918.828	14853
918.939	14963
919.05	14830
919.161	14887
919.272	14762
919.383	14739
919.494	14891
919.604	15085
919.715	14971
919.826	14937
919.936	14880
920.047	14971
920.157	14880
920.267	15039
920.378	14830
920.488	14857
920.598	15123
920.708	15161
920.818	15036
920.928	14982
921.038	15157
921.148	15066
921.258	14853
921.368	14773
921.477	14636
921.587	14545
921.697	14492
921.806	14598
921.916	14514
922.025	14358
922.134	14157
922.244	14275
922.353	14248
922.462	14206
922.571	14138
922.68	13879
922.789	13890
922.898	13894
923.007	13837
923.116	13856
923.224	13959
923.333	13871
923.442	13670
923.55	13677
923.659	13727
923.767	13860
923.876	13681
923.984	13696
924.092	13578
924.201	13693
924.309	13662
924.417	13590
924.525	13590
924.633	13620
924.741	14240
924.849	13304
924.956	13426
925.064	13293
925.172	13304
925.279	13301
925.387	13263
925.494	13327
925.602	13445
925.709	13388
925.816	13168
925.924	13118
926.031	13274
926.138	13232
926.245	13240
926.352	13194
926.459	13228
926.566	13293
926.673	13088
926.779	12989
926.886	13015
926.993	12833
927.099	12890
927.206	12760
927.312	12764
927.419	12909
927.525	12787
927.631	12878
927.737	12791
927.843	12722
927.95	12604
928.056	12642
928.162	12623
928.267	12768
928.373	13266
928.479	12722
928.585	12433
928.69	12574
928.796	12604
928.901	12452
929.007	12414
929.112	12506
929.218	12418
929.323	12384
929.428	12372
929.533	12509
929.638	12319
929.743	12308
929.848	12308
929.953	12292
930.058	12216
930.163	12087
930.267	12045
930.372	12209
930.477	12007
930.581	12228
930.685	12095
930.79	11973
930.894	11958
930.998	11882
931.103	11977
931.207	11699
931.311	11600
931.415	11463
931.519	11376
931.623	11334
