Data from test_V78500241_912.txt Node
Date: Fri Mar 25 15:16:12 CST 2022
User: usil
Spectrometer: V785-0024
Trigger mode: 0
Integration Time (sec): 4.000000E-1
Scans to average: 1
Nonlinearity correction enabled: false
Boxcar width: 0
Storing dark spectrum: false
XAxis mode: Wavelengths
Number of Pixels in Spectrum: 1024
>>>>>Begin Spectral Data<<<<<
801.071	28112
801.214	28082
801.356	27842
801.499	27827
801.641	27686
801.783	27694
801.926	27599
802.068	27709
802.211	27606
802.353	27450
802.496	27363
802.638	27393
802.78	27291
802.923	27287
803.065	27291
803.208	27302
803.35	27370
803.492	27473
803.635	27557
803.777	27386
803.919	27458
804.061	27831
804.204	27610
804.346	27545
804.488	27485
804.63	27485
804.773	27568
804.915	27488
805.057	27701
805.199	27641
805.341	27660
805.483	27656
805.626	27622
805.768	27530
805.91	27614
806.052	27739
806.194	27675
806.336	27846
806.478	27778
806.62	27778
806.762	27895
806.904	28048
807.046	28169
807.188	28120
807.33	28086
807.472	28166
807.614	27941
807.756	28032
807.898	27781
808.04	27918
808.182	27914
808.324	28036
808.465	28013
808.607	28158
808.749	28272
808.891	28519
809.033	28443
809.174	28481
809.316	28386
809.458	28318
809.6	28344
809.741	28424
809.883	28466
810.025	28702
810.166	28573
810.308	28672
810.45	28656
810.591	28504
810.733	28409
810.875	28421
811.016	28143
811.158	28401
811.299	28443
811.441	28618
811.582	28443
811.724	28257
811.865	28325
812.007	28512
812.148	28287
812.29	28379
812.431	28618
812.573	28702
812.714	28839
812.855	28980
812.997	29052
813.138	29098
813.279	29075
813.421	28881
813.562	28763
813.703	28812
813.845	28679
813.986	28344
814.127	28261
814.268	28078
814.41	28169
814.551	27991
814.692	28166
814.833	27968
814.974	27888
815.115	27918
815.256	28006
815.397	27838
815.539	27907
815.68	27800
815.821	27789
815.962	27838
816.103	27781
816.244	27831
816.385	27686
816.526	27622
816.666	27458
816.807	27287
816.948	27523
817.089	27622
817.23	27382
817.371	27408
817.512	27386
817.653	27511
817.793	27416
817.934	27370
818.075	27283
818.216	27450
818.356	27450
818.497	27298
818.638	27001
818.778	27058
818.919	27138
819.06	27195
819.2	27256
819.341	27386
819.481	27260
819.622	27568
819.762	27732
819.903	27713
820.043	27610
820.184	27511
820.324	27507
820.465	27580
820.605	27447
820.746	27568
820.886	27348
821.026	27564
821.167	27401
821.307	27583
821.447	27477
821.588	27367
821.728	27161
821.868	26990
822.008	26902
822.149	26902
822.289	26788
822.429	26629
822.569	26381
822.709	26526
822.849	26320
822.99	26263
823.13	26385
823.27	26263
823.41	26195
823.55	26077
823.69	26088
823.83	26168
823.97	26153
824.11	26001
824.25	26005
824.389	26073
824.529	26153
824.669	26043
824.809	25974
824.949	26176
825.089	26016
825.228	26027
825.368	25818
825.508	25811
825.648	25868
825.787	25871
825.927	26005
826.067	25830
826.206	25772
826.346	25947
826.485	25959
826.625	25932
826.765	25871
826.904	25791
827.044	25670
827.183	25681
827.323	25499
827.462	25609
827.601	25499
827.741	25556
827.88	25761
828.02	25502
828.159	25681
828.298	25628
828.437	25506
828.577	25548
828.716	25655
828.855	25491
828.994	25396
829.134	25388
829.273	25365
829.412	25312
829.551	25247
829.69	25369
829.829	25308
829.968	25282
830.107	25403
830.246	25278
830.385	25244
830.524	25122
830.663	25099
830.802	25034
830.941	24981
831.08	24863
831.219	25183
831.357	25080
831.496	25168
831.635	24981
831.774	24859
831.913	24833
832.051	24810
832.19	24764
832.329	24738
832.467	24593
832.606	24464
832.744	24623
832.883	24517
833.022	24505
833.16	24536
833.299	24650
833.437	24585
833.576	24768
833.714	24616
833.852	24760
833.991	24722
834.129	24681
834.267	24787
834.406	24730
834.544	24829
834.682	24669
834.821	24802
834.959	24776
835.097	24654
835.235	24719
835.373	24688
835.511	24669
835.65	24521
835.788	24498
835.926	24410
836.064	24266
836.202	24437
836.34	24555
836.478	24646
836.615	24513
836.753	24505
836.891	24688
837.029	24460
837.167	24422
837.305	24448
837.443	24319
837.58	24365
837.718	24452
837.856	24296
837.993	24319
838.131	24384
838.269	24171
838.406	24251
838.544	24091
838.681	24079
838.819	23916
838.956	23889
839.094	23771
839.231	23897
839.369	23923
839.506	24258
839.643	24038
839.781	23863
839.918	23821
840.055	23733
840.193	23748
840.33	23589
840.467	23790
840.604	23707
840.742	24003
840.879	23448
841.016	23638
841.153	23649
841.29	23684
841.427	23737
841.564	23790
841.701	23604
841.838	23737
841.975	23638
842.112	23554
842.249	23467
842.385	23341
842.522	23638
842.659	23520
842.796	23505
842.933	23414
843.069	23303
843.206	23520
843.343	23558
843.479	23364
843.616	23516
843.752	23280
843.889	23311
844.025	23459
844.162	23220
844.298	23429
844.435	23189
844.571	23136
844.708	23303
844.844	23387
844.98	23391
845.117	23349
845.253	23136
845.389	23075
845.525	23109
845.661	23239
845.798	23041
845.934	23006
846.07	22930
846.206	22927
846.342	23185
846.478	22930
846.614	22687
846.75	22653
846.886	22622
847.022	22801
847.158	22569
847.294	22710
847.429	22809
847.565	22668
847.701	22915
847.837	22440
847.972	22493
848.108	22462
848.244	22615
848.379	22253
848.515	22348
848.65	22276
848.786	22310
848.921	22318
849.057	22386
849.192	22417
849.328	22367
849.463	22379
849.598	22226
849.734	22196
849.869	22204
850.004	22036
850.14	22143
850.275	22040
850.41	21949
850.545	21895
850.68	22074
850.815	22044
850.95	22048
851.085	22158
851.22	22192
851.355	21983
851.49	22128
851.625	22002
851.76	21987
851.895	21968
852.03	22067
852.165	22082
852.299	22067
852.434	22166
852.569	21983
852.703	22082
852.838	21960
852.973	22219
853.107	22253
853.242	21915
853.376	21861
853.511	21854
853.645	21793
853.78	21953
853.914	21865
854.048	21819
854.183	21937
854.317	21880
854.451	22029
854.585	21937
854.72	21850
854.854	22017
854.988	21854
855.122	21934
855.256	21812
855.39	21873
855.524	21884
855.658	21899
855.792	21842
855.926	22013
856.06	21785
856.194	21880
856.327	21934
856.461	21869
856.595	21869
856.729	21850
856.862	21998
856.996	21884
857.13	21899
857.263	22002
857.397	21956
857.53	21892
857.664	21915
857.797	21979
857.931	21869
858.064	21869
858.197	22025
858.331	21793
858.464	21953
858.597	21800
858.731	21911
858.864	21892
858.997	21778
859.13	21926
859.263	21892
859.396	21911
859.529	21808
859.662	21831
859.795	21911
859.928	21884
860.061	22093
860.194	22078
860.327	21983
860.46	21907
860.592	21956
860.725	22044
860.858	22067
860.99	21861
861.123	21934
861.256	21865
861.388	21907
861.521	22710
861.653	21751
861.786	21599
861.918	21827
862.05	21857
862.183	21793
862.315	21972
862.447	21903
862.58	21884
862.712	21671
862.844	21568
862.976	21679
863.108	21644
863.24	21922
863.372	21408
863.504	21671
863.636	21667
863.768	21526
863.9	21553
864.032	21519
864.164	21496
864.296	21549
864.428	21804
864.559	21637
864.691	21580
864.823	21583
864.954	21618
865.086	21504
865.217	21492
865.349	21336
865.48	21523
865.612	21477
865.743	21637
865.875	21469
866.006	21363
866.137	21580
866.269	21355
866.4	21424
866.531	21439
866.662	21450
866.793	21416
866.924	21367
867.055	21435
867.186	21458
867.317	21431
867.448	21363
867.579	21351
867.71	21283
867.841	21336
867.972	21351
868.103	21435
868.233	21408
868.364	21332
868.495	21545
868.625	21652
868.756	21671
868.886	21625
869.017	21660
869.147	21739
869.278	21690
869.408	21545
869.539	21603
869.669	21781
869.799	21610
869.929	21804
870.06	21774
870.19	21918
870.32	21918
870.45	21972
870.58	21953
870.71	22166
870.84	22109
870.97	21991
871.1	21979
871.23	22196
871.36	22215
871.489	22124
871.619	22211
871.749	22306
871.879	22219
872.008	22318
872.138	22200
872.267	22280
872.397	22112
872.526	22017
872.656	22051
872.785	22074
872.915	22272
873.044	22314
873.173	22268
873.303	22455
873.432	22272
873.561	22333
873.69	22299
873.819	22204
873.948	22299
874.077	22265
874.206	22154
874.335	22314
874.464	22314
874.593	22413
874.722	22478
874.851	22455
874.979	22615
875.108	22470
875.237	22474
875.365	22348
875.494	22447
875.623	22527
875.751	22306
875.88	22478
876.008	22569
876.136	22687
876.265	22927
876.393	23037
876.521	22843
876.65	22934
876.778	22816
876.906	22889
877.034	22831
877.162	22793
877.29	22824
877.418	22672
877.546	22713
877.674	22801
877.802	22816
877.93	22790
878.058	22767
878.185	22634
878.313	22653
878.441	22755
878.568	22683
878.696	22733
878.824	22816
878.951	23003
879.079	23003
879.206	23086
879.333	23094
879.461	22858
879.588	22908
879.715	22877
879.842	22991
879.97	22889
880.097	22599
880.224	22611
880.351	22569
880.478	22615
880.605	22535
880.732	22626
880.859	22881
880.986	22675
881.112	22660
881.239	22565
881.366	22367
881.493	22253
881.619	22196
881.746	22242
881.872	22268
881.999	22242
882.125	22207
882.252	22173
882.378	22169
882.505	22390
882.631	21987
882.757	22013
882.883	22048
883.01	21983
883.136	21876
883.262	21911
883.388	21732
883.514	21873
883.64	21926
883.766	21736
883.892	21576
884.018	21717
884.143	21827
884.269	21918
884.395	21507
884.52	21507
884.646	21641
884.772	21473
884.897	21564
885.023	21599
885.148	21629
885.274	21720
885.399	21660
885.524	21564
885.65	21591
885.775	21576
885.9	21534
886.025	21606
886.15	21644
886.275	21374
886.4	21412
886.525	21564
886.65	21447
886.775	21469
886.9	21618
887.025	21766
887.149	21549
887.274	21382
887.399	21294
887.523	21382
887.648	21298
887.773	21192
887.897	21367
888.021	21329
888.146	21291
888.27	21526
888.395	21435
888.519	21268
888.643	21325
888.767	21386
888.891	21180
889.015	21173
889.139	21169
889.263	21089
889.387	21230
889.511	21287
889.635	21188
889.759	21066
889.883	21184
890.006	21077
890.13	21150
890.254	21123
890.377	21089
890.501	20883
890.624	20937
890.748	20914
890.871	20659
890.995	20667
891.118	20571
891.241	20533
891.364	20720
891.488	20773
891.611	20701
891.734	20617
891.857	20765
891.98	20678
892.103	20659
892.226	20648
892.349	20629
892.471	20476
892.594	20514
892.717	20530
892.839	20503
892.962	20545
893.085	20644
893.207	20773
893.33	20476
893.452	20389
893.575	20644
893.697	20408
893.819	20689
893.941	20796
894.064	20762
894.186	20564
894.308	20629
894.43	20590
894.552	20735
894.674	20644
894.796	20457
894.918	20518
895.04	20427
895.161	20549
895.283	20689
895.405	20488
895.526	20465
895.648	20511
895.769	20564
895.891	20716
896.012	20693
896.134	20457
896.255	20484
896.376	20393
896.498	20522
896.619	20640
896.74	20590
896.861	20613
896.982	20800
897.103	20948
897.224	20830
897.345	20781
897.466	20720
897.587	20739
897.708	20807
897.828	20811
897.949	20758
898.07	20777
898.19	20667
898.311	20682
898.431	20746
898.552	20663
898.672	20750
898.792	20796
898.913	20686
899.033	20625
899.153	20492
899.273	20537
899.393	20495
899.513	20587
899.633	20450
899.753	20587
899.873	20320
899.993	20541
900.113	20438
900.232	20530
900.352	20450
900.472	20328
900.591	20145
900.711	20278
900.83	20221
900.95	20328
901.069	20332
901.189	20107
901.308	19906
901.427	19833
901.546	19822
901.665	19852
901.784	19860
901.904	19719
902.023	19643
902.141	19563
902.26	19324
902.379	19476
902.498	19384
902.617	19240
902.735	19487
902.854	19255
902.973	19331
903.091	19061
903.21	19019
903.328	19099
903.446	18981
903.565	18749
903.683	18715
903.801	18707
903.919	18829
904.038	18703
904.156	18540
904.274	18620
904.392	18620
904.51	18566
904.627	18521
904.745	18593
904.863	18646
904.981	18437
905.098	18186
905.216	18330
905.334	18319
905.451	18277
905.569	18197
905.686	18323
905.803	18254
905.921	17984
906.038	18060
906.155	18136
906.272	17912
906.389	17973
906.506	17741
906.623	17817
906.74	17722
906.857	17653
906.974	17699
907.091	17832
907.208	17901
907.324	17847
907.441	17707
907.557	17589
907.674	17486
907.79	17471
907.907	17562
908.023	17532
908.139	17596
908.256	17402
908.372	17410
908.488	17356
908.604	17170
908.72	17231
908.836	17250
908.952	17155
909.068	17216
909.184	17269
909.3	17140
909.415	17299
909.531	17151
909.647	17010
909.762	16987
909.878	16839
909.993	16961
910.108	16968
910.224	16854
910.339	16809
910.454	16740
910.57	16672
910.685	16713
910.8	16835
910.915	16934
911.03	16611
911.145	16577
911.259	16558
911.374	16554
911.489	16481
911.604	16413
911.718	16211
911.833	16287
911.947	16158
912.062	16048
912.176	16105
912.291	16341
912.405	16253
912.519	16508
912.633	16489
912.748	16276
912.862	16166
912.976	16013
913.09	15960
913.204	16067
913.318	16124
913.431	16112
913.545	16131
913.659	16154
913.772	16082
913.886	15892
914	15827
914.113	15934
914.226	15922
914.34	15926
914.453	15720
914.566	15808
914.68	15751
914.793	15698
914.906	15500
915.019	15439
915.132	15485
915.245	15397
915.358	15469
915.47	15473
915.583	15458
915.696	15408
915.809	15564
915.921	15545
916.034	15454
916.146	15332
916.259	15310
916.371	15530
916.483	15450
916.595	15393
916.708	15283
916.82	15214
916.932	15272
917.044	15252
917.156	15150
917.268	15009
917.38	15036
917.491	15020
917.603	15104
917.715	15173
917.826	15116
917.938	15020
918.049	14956
918.161	15013
918.272	15161
918.384	15165
918.495	15085
918.606	14872
918.717	14731
918.828	14895
918.939	14788
919.05	14735
919.161	14705
919.272	14689
919.383	14765
919.494	14895
919.604	15005
919.715	14834
919.826	14701
919.936	14796
920.047	14918
920.157	14861
920.267	14952
920.378	14849
920.488	14800
920.598	14998
920.708	15093
920.818	14902
920.928	14880
921.038	15062
921.148	15104
921.258	14746
921.368	14735
921.477	14530
921.587	14526
921.697	14476
921.806	14575
921.916	14389
922.025	14294
922.134	14225
922.244	14115
922.353	14157
922.462	14130
922.571	14012
922.68	13871
922.789	13822
922.898	13833
923.007	13715
923.116	13811
923.224	13776
923.333	13708
923.442	13704
923.55	13605
923.659	13674
923.767	13651
923.876	13556
923.984	13674
924.092	13514
924.201	13556
924.309	13552
924.417	13544
924.525	13537
924.633	13537
924.741	14229
924.849	13217
924.956	13407
925.064	13274
925.172	13141
925.279	13213
925.387	13274
925.494	13156
925.602	13270
925.709	13183
925.816	13061
925.924	13171
926.031	13335
926.138	13133
926.245	13156
926.352	13038
926.459	13175
926.566	13156
926.673	12993
926.779	12981
926.886	12890
926.993	12840
927.099	12764
927.206	12738
927.312	12650
927.419	12810
927.525	12665
927.631	12817
927.737	12646
927.843	12604
927.95	12475
928.056	12509
928.162	12658
928.267	12635
928.373	13221
928.479	12665
928.585	12407
928.69	12528
928.796	12509
928.901	12460
929.007	12296
929.112	12502
929.218	12388
929.323	12292
929.428	12346
929.533	12399
929.638	12220
929.743	12205
929.848	12338
929.953	12155
930.058	12175
930.163	11980
930.267	11984
930.372	12182
930.477	11893
930.581	12220
930.685	12060
930.79	11965
930.894	11893
930.998	11847
931.103	11935
931.207	11630
931.311	11627
931.415	11341
931.519	11231
931.623	11181
