Data from test_V78500241_1388.txt Node
Date: Fri Mar 25 15:19:31 CST 2022
User: usil
Spectrometer: V785-0024
Trigger mode: 0
Integration Time (sec): 4.000000E-1
Scans to average: 1
Nonlinearity correction enabled: false
Boxcar width: 0
Storing dark spectrum: false
XAxis mode: Wavelengths
Number of Pixels in Spectrum: 1024
>>>>>Begin Spectral Data<<<<<
801.071	28204
801.214	28139
801.356	27838
801.499	27876
801.641	27728
801.783	27743
801.926	27827
802.068	27819
802.211	27701
802.353	27660
802.496	27549
802.638	27408
802.78	27462
802.923	27252
803.065	27408
803.208	27370
803.35	27378
803.492	27542
803.635	27660
803.777	27355
803.919	27595
804.061	27934
804.204	27675
804.346	27450
804.488	27530
804.63	27618
804.773	27561
804.915	27785
805.057	27690
805.199	27492
805.341	27648
805.483	27854
805.626	27766
805.768	27736
805.91	27747
806.052	27743
806.194	27682
806.336	27956
806.478	27785
806.62	27880
806.762	28002
806.904	28082
807.046	28455
807.188	28112
807.33	28188
807.472	28112
807.614	28215
807.756	28124
807.898	28177
808.04	28021
808.182	28067
808.324	28128
808.465	28105
808.607	28253
808.749	28500
808.891	28428
809.033	28546
809.174	28489
809.316	28421
809.458	28257
809.6	28344
809.741	28698
809.883	28538
810.025	28717
810.166	28729
810.308	28733
810.45	28694
810.591	28531
810.733	28504
810.875	28375
811.016	28375
811.158	28356
811.299	28527
811.441	28626
811.582	28653
811.724	28401
811.865	28409
812.007	28344
812.148	28421
812.29	28478
812.431	28519
812.573	28816
812.714	28900
812.855	28908
812.997	29086
813.138	29147
813.279	29109
813.421	29155
813.562	29159
813.703	28820
813.845	28577
813.986	28356
814.127	28299
814.268	28025
814.41	28196
814.551	28097
814.692	28333
814.833	28090
814.974	28188
815.115	28154
815.256	27987
815.397	28048
815.539	27956
815.68	27926
815.821	27850
815.962	27903
816.103	27972
816.244	27804
816.385	27603
816.526	27667
816.666	27405
816.807	27405
816.948	27511
817.089	27618
817.23	27348
817.371	27321
817.512	27485
817.653	27420
817.793	27332
817.934	27420
818.075	27481
818.216	27435
818.356	27382
818.497	27233
818.638	27180
818.778	27085
818.919	27116
819.06	27279
819.2	27279
819.341	27553
819.481	27568
819.622	27641
819.762	27831
819.903	27599
820.043	27606
820.184	27515
820.324	27443
820.465	27671
820.605	27561
820.746	27530
820.886	27580
821.026	27656
821.167	27568
821.307	27618
821.447	27454
821.588	27252
821.728	27256
821.868	27089
822.008	26929
822.149	26857
822.289	26933
822.429	26571
822.569	26651
822.709	26655
822.849	26358
822.99	26450
823.13	26328
823.27	26362
823.41	26298
823.55	26161
823.69	26320
823.83	26320
823.97	26145
824.11	25966
824.25	26134
824.389	26001
824.529	26153
824.669	26134
824.809	26145
824.949	26275
825.089	26100
825.228	26199
825.368	25989
825.508	26054
825.648	25913
825.787	25887
825.927	26020
826.067	25887
826.206	26016
826.346	26035
826.485	25997
826.625	25879
826.765	26043
826.904	26035
827.044	25822
827.183	25696
827.323	25487
827.462	25731
827.601	25685
827.741	25670
827.88	25616
828.02	25563
828.159	25647
828.298	25578
828.437	25605
828.577	25670
828.716	25803
828.855	25556
828.994	25346
829.134	25285
829.273	25403
829.412	25282
829.551	25263
829.69	25472
829.829	25324
829.968	25400
830.107	25407
830.246	25365
830.385	25316
830.524	25266
830.663	25206
830.802	25099
830.941	24871
831.08	25084
831.219	25187
831.357	25019
831.496	25209
831.635	24943
831.774	24848
831.913	24867
832.051	24848
832.19	24681
832.329	24749
832.467	24623
832.606	24483
832.744	24551
832.883	24616
833.022	24547
833.16	24566
833.299	24627
833.437	24665
833.576	24779
833.714	24669
833.852	24650
833.991	24753
834.129	24650
834.267	24806
834.406	24703
834.544	24719
834.682	24631
834.821	24688
834.959	24734
835.097	24757
835.235	24688
835.373	24601
835.511	24650
835.65	24540
835.788	24521
835.926	24376
836.064	24395
836.202	24304
836.34	24540
836.478	24601
836.615	24502
836.753	24403
836.891	24551
837.029	24551
837.167	24505
837.305	24376
837.443	24372
837.58	24380
837.718	24452
837.856	24357
837.993	24327
838.131	24384
838.269	24330
838.406	24372
838.544	24254
838.681	23954
838.819	23954
838.956	23794
839.094	23809
839.231	24018
839.369	24018
839.506	24304
839.643	24049
839.781	23847
839.918	23790
840.055	23821
840.193	23802
840.33	23672
840.467	23809
840.604	23843
840.742	23996
840.879	23604
841.016	23627
841.153	23634
841.29	23802
841.427	23672
841.564	23824
841.701	23630
841.838	23767
841.975	23592
842.112	23577
842.249	23600
842.385	23471
842.522	23638
842.659	23535
842.796	23444
842.933	23493
843.069	23455
843.206	23353
843.343	23592
843.479	23497
843.616	23429
843.752	23109
843.889	23349
844.025	23436
844.162	23239
844.298	23425
844.435	23117
844.571	23223
844.708	23204
844.844	23410
844.98	23239
845.117	23284
845.253	23349
845.389	23147
845.525	23056
845.661	23048
845.798	22911
845.934	22915
846.07	22904
846.206	22987
846.342	23121
846.478	22953
846.614	22694
846.75	22637
846.886	22664
847.022	22774
847.158	22759
847.294	22797
847.429	22809
847.565	22588
847.701	22809
847.837	22390
847.972	22485
848.108	22550
848.244	22504
848.379	22272
848.515	22268
848.65	22261
848.786	22268
848.921	22234
849.057	22455
849.192	22367
849.328	22356
849.463	22306
849.598	22188
849.734	22253
849.869	22135
850.004	22120
850.14	22158
850.275	22169
850.41	22116
850.545	21964
850.68	22067
850.815	22048
850.95	21987
851.085	22204
851.22	22147
851.355	22246
851.49	22131
851.625	21994
851.76	22067
851.895	21869
852.03	21968
852.165	22185
852.299	21979
852.434	22025
852.569	22112
852.703	22109
852.838	22306
852.973	22135
853.107	22242
853.242	21975
853.376	22017
853.511	21819
853.645	21842
853.78	22090
853.914	21857
854.048	21857
854.183	21960
854.317	21823
854.451	21968
854.585	21903
854.72	21850
854.854	22010
854.988	21781
855.122	21865
855.256	21846
855.39	21926
855.524	21911
855.658	21838
855.792	21907
855.926	21926
856.06	21857
856.194	21915
856.327	21899
856.461	21831
856.595	21895
856.729	21835
856.862	22116
856.996	21903
857.13	22044
857.263	21960
857.397	22051
857.53	21899
857.664	21903
857.797	21941
857.931	21907
858.064	22010
858.197	21975
858.331	21781
858.464	21804
858.597	21778
858.731	21785
858.864	21846
858.997	21812
859.13	21827
859.263	21781
859.396	21937
859.529	21861
859.662	21838
859.795	21762
859.928	21736
860.061	21994
860.194	22090
860.327	21926
860.46	21835
860.592	22177
860.725	21960
860.858	21983
860.99	21968
861.123	21880
861.256	21812
861.388	21888
861.521	22550
861.653	21774
861.786	21701
861.918	21557
862.05	21713
862.183	21759
862.315	21800
862.447	21861
862.58	21812
862.712	21603
862.844	21599
862.976	21675
863.108	21648
863.24	21918
863.372	21462
863.504	21591
863.636	21572
863.768	21637
863.9	21618
864.032	21321
864.164	21466
864.296	21587
864.428	21728
864.559	21667
864.691	21637
864.823	21519
864.954	21515
865.086	21473
865.217	21439
865.349	21435
865.48	21519
865.612	21355
865.743	21595
865.875	21534
866.006	21348
866.137	21473
866.269	21454
866.4	21435
866.531	21321
866.662	21336
866.793	21382
866.924	21340
867.055	21450
867.186	21469
867.317	21393
867.448	21389
867.579	21325
867.71	21485
867.841	21291
867.972	21412
868.103	21230
868.233	21370
868.364	21245
868.495	21542
868.625	21667
868.756	21739
868.886	21481
869.017	21633
869.147	21663
869.278	21762
869.408	21682
869.539	21652
869.669	21755
869.799	21762
869.929	21682
870.06	21675
870.19	21895
870.32	21857
870.45	21876
870.58	22029
870.71	22280
870.84	22082
870.97	21945
871.1	22017
871.23	22185
871.36	22109
871.489	22242
871.619	22135
871.749	22169
871.879	22147
872.008	22470
872.138	22147
872.267	22234
872.397	22082
872.526	22105
872.656	22029
872.785	22078
872.915	22268
873.044	22405
873.173	22299
873.303	22291
873.432	22352
873.561	22375
873.69	22249
873.819	22268
873.948	22166
874.077	22246
874.206	22158
874.335	22135
874.464	22280
874.593	22402
874.722	22421
874.851	22436
874.979	22344
875.108	22588
875.237	22474
875.365	22382
875.494	22508
875.623	22630
875.751	22417
875.88	22306
876.008	22634
876.136	22557
876.265	22835
876.393	22866
876.521	22946
876.65	22869
876.778	22847
876.906	22774
877.034	22698
877.162	22767
877.29	22748
877.418	22759
877.546	22782
877.674	22725
877.802	22816
877.93	22698
878.058	22748
878.185	22630
878.313	22767
878.441	22809
878.568	22634
878.696	22835
878.824	22843
878.951	22877
879.079	22877
879.206	23124
879.333	23022
879.461	22809
879.588	22835
879.715	22831
879.842	23136
879.97	22740
880.097	22774
880.224	22504
880.351	22573
880.478	22637
880.605	22527
880.732	22645
880.859	22793
880.986	22755
881.112	22592
881.239	22470
881.366	22379
881.493	22325
881.619	22124
881.746	22181
881.872	22196
881.999	22074
882.125	22207
882.252	22246
882.378	22177
882.505	22200
882.631	22036
882.757	21991
882.883	21922
883.01	21915
883.136	21823
883.262	21812
883.388	21766
883.514	21861
883.64	21930
883.766	21869
883.892	21660
884.018	21603
884.143	21785
884.269	21846
884.395	21545
884.52	21458
884.646	21458
884.772	21424
884.897	21435
885.023	21549
885.148	21526
885.274	21583
885.399	21682
885.524	21576
885.65	21557
885.775	21591
885.9	21447
886.025	21599
886.15	21595
886.275	21435
886.4	21374
886.525	21405
886.65	21382
886.775	21466
886.9	21564
887.025	21800
887.149	21447
887.274	21359
887.399	21226
887.523	21332
887.648	21226
887.773	21230
887.897	21359
888.021	21367
888.146	21245
888.27	21306
888.395	21329
888.519	21363
888.643	21272
888.767	21291
888.891	21203
889.015	21089
889.139	21188
889.263	21017
889.387	21123
889.511	21192
889.635	21142
889.759	21112
889.883	20975
890.006	21066
890.13	21119
890.254	20925
890.377	20849
890.501	20861
890.624	20876
890.748	20895
890.871	20689
890.995	20598
891.118	20636
891.241	20735
891.364	20644
891.488	20716
891.611	20579
891.734	20762
891.857	20708
891.98	20526
892.103	20648
892.226	20609
892.349	20507
892.471	20473
892.594	20476
892.717	20408
892.839	20438
892.962	20518
893.085	20613
893.207	20541
893.33	20415
893.452	20457
893.575	20640
893.697	20488
893.819	20625
893.941	20606
894.064	20438
894.186	20495
894.308	20347
894.43	20674
894.552	20621
894.674	20541
894.796	20339
894.918	20393
895.04	20495
895.161	20705
895.283	20686
895.405	20594
895.526	20438
895.648	20549
895.769	20560
895.891	20606
896.012	20575
896.134	20545
896.255	20473
896.376	20457
896.498	20518
896.619	20575
896.74	20461
896.861	20480
896.982	20724
897.103	20895
897.224	20735
897.345	20902
897.466	20731
897.587	20655
897.708	20781
897.828	20838
897.949	20571
898.07	20518
898.19	20777
898.311	20830
898.431	20785
898.552	20689
898.672	20796
898.792	20762
898.913	20773
899.033	20655
899.153	20488
899.273	20484
899.393	20473
899.513	20526
899.633	20530
899.753	20495
899.873	20476
899.993	20552
900.113	20465
900.232	20450
900.352	20438
900.472	20351
900.591	20317
900.711	20240
900.83	20145
900.95	20336
901.069	20355
901.189	20161
901.308	19830
901.427	19887
901.546	19909
901.665	19955
901.784	19799
901.904	19559
902.023	19506
902.141	19316
902.26	19247
902.379	19320
902.498	19308
902.617	19301
902.735	19377
902.854	19293
902.973	19232
903.091	18932
903.21	19053
903.328	19008
903.446	18810
903.565	18890
903.683	18734
903.801	18696
903.919	18738
904.038	18646
904.156	18418
904.274	18498
904.392	18544
904.51	18589
904.627	18540
904.745	18521
904.863	18639
904.981	18372
905.098	18197
905.216	18266
905.334	18243
905.451	18285
905.569	18220
905.686	18251
905.803	18171
905.921	18026
906.038	18114
906.155	17977
906.272	17813
906.389	17931
906.506	17874
906.623	17859
906.74	17805
906.857	17615
906.974	17661
907.091	17779
907.208	17859
907.324	17726
907.441	17604
907.557	17474
907.674	17436
907.79	17280
907.907	17376
908.023	17592
908.139	17395
908.256	17356
908.372	17406
908.488	17246
908.604	17337
908.72	17261
908.836	17261
908.952	17318
909.068	17056
909.184	17223
909.3	17170
909.415	17193
909.531	17113
909.647	16972
909.762	16927
909.878	16831
909.993	16873
910.108	16786
910.224	16877
910.339	16774
910.454	16793
910.57	16710
910.685	16664
910.8	16961
910.915	16847
911.03	16713
911.145	16561
911.259	16398
911.374	16356
911.489	16424
911.604	16322
911.718	16272
911.833	16223
911.947	16143
912.062	15983
912.176	16147
912.291	16261
912.405	16135
912.519	16375
912.633	16341
912.748	16261
912.862	16177
912.976	16078
913.09	15911
913.204	15964
913.318	16051
913.431	16154
913.545	16029
913.659	16109
913.772	16029
913.886	15895
914	15911
914.113	15991
914.226	15915
914.34	15888
914.453	15686
914.566	15842
914.68	15785
914.793	15606
914.906	15420
915.019	15481
915.132	15397
915.245	15321
915.358	15466
915.47	15519
915.583	15386
915.696	15488
915.809	15625
915.921	15667
916.034	15313
916.146	15424
916.259	15310
916.371	15313
916.483	15378
916.595	15173
916.708	15416
916.82	15306
916.932	15188
917.044	15127
917.156	15058
917.268	15097
917.38	15077
917.491	15127
917.603	15150
917.715	15184
917.826	15131
917.938	14952
918.049	14979
918.161	15017
918.272	15112
918.384	15127
918.495	14952
918.606	14914
918.717	14788
918.828	14807
918.939	14845
919.05	14731
919.161	14769
919.272	14549
919.383	14655
919.494	14762
919.604	14937
919.715	14788
919.826	14693
919.936	14731
920.047	14857
920.157	14800
920.267	15036
920.378	14819
920.488	14697
920.598	15001
920.708	15070
920.818	14910
920.928	14982
921.038	15036
921.148	15081
921.258	14746
921.368	14731
921.477	14495
921.587	14469
921.697	14339
921.806	14564
921.916	14374
922.025	14195
922.134	14172
922.244	14081
922.353	14115
922.462	14103
922.571	13925
922.68	13849
922.789	13693
922.898	13788
923.007	13742
923.116	13837
923.224	13750
923.333	13750
923.442	13556
923.55	13571
923.659	13613
923.767	13636
923.876	13597
923.984	13636
924.092	13605
924.201	13540
924.309	13628
924.417	13525
924.525	13460
924.633	13457
924.741	14225
924.849	13179
924.956	13266
925.064	13240
925.172	13099
925.279	13187
925.387	13263
925.494	13145
925.602	13301
925.709	13259
925.816	13099
925.924	13099
926.031	13255
926.138	13190
926.245	13107
926.352	13065
926.459	13149
926.566	13187
926.673	13031
926.779	12901
926.886	12867
926.993	12840
927.099	12779
927.206	12787
927.312	12677
927.419	12703
927.525	12833
927.631	12833
927.737	12593
927.843	12582
927.95	12471
928.056	12479
928.162	12601
928.267	12597
928.373	13175
928.479	12616
928.585	12372
928.69	12528
928.796	12578
928.901	12388
929.007	12388
929.112	12365
929.218	12357
929.323	12254
929.428	12289
929.533	12391
929.638	12220
929.743	12235
929.848	12243
929.953	12277
930.058	12079
930.163	12022
930.267	11965
930.372	12110
930.477	11882
930.581	12106
930.685	12038
930.79	11870
930.894	11813
930.998	11840
931.103	12019
931.207	11566
931.311	11551
931.415	11452
931.519	11246
931.623	11227
