Data from test_V78500241_1552.txt Node
Date: Fri Mar 25 15:20:39 CST 2022
User: usil
Spectrometer: V785-0024
Trigger mode: 0
Integration Time (sec): 4.000000E-1
Scans to average: 1
Nonlinearity correction enabled: false
Boxcar width: 0
Storing dark spectrum: false
XAxis mode: Wavelengths
Number of Pixels in Spectrum: 1024
>>>>>Begin Spectral Data<<<<<
801.071	27930
801.214	27964
801.356	27614
801.499	27553
801.641	27412
801.783	27454
801.926	27557
802.068	27450
802.211	27450
802.353	27287
802.496	27249
802.638	27123
802.78	27108
802.923	27028
803.065	27017
803.208	26944
803.35	27096
803.492	27222
803.635	27317
803.777	27203
803.919	27393
804.061	27614
804.204	27496
804.346	27146
804.488	27157
804.63	27313
804.773	27264
804.915	27294
805.057	27329
805.199	27355
805.341	27469
805.483	27534
805.626	27519
805.768	27427
805.91	27496
806.052	27504
806.194	27431
806.336	27542
806.478	27557
806.62	27431
806.762	27523
806.904	27797
807.046	28063
807.188	27808
807.33	27964
807.472	27972
807.614	27816
807.756	27880
807.898	27720
808.04	27755
808.182	27713
808.324	27827
808.465	27842
808.607	28086
808.749	28131
808.891	28166
809.033	28287
809.174	28230
809.316	28120
809.458	28166
809.6	28109
809.741	28135
809.883	28272
810.025	28428
810.166	28443
810.308	28394
810.45	28356
810.591	28215
810.733	28226
810.875	28166
811.016	28074
811.158	27949
811.299	28223
811.441	28265
811.582	28333
811.724	28112
811.865	28188
812.007	28017
812.148	28150
812.29	28200
812.431	28337
812.573	28474
812.714	28508
812.855	28767
812.997	28710
813.138	28904
813.279	28744
813.421	28702
813.562	28554
813.703	28428
813.845	28322
813.986	27941
814.127	27793
814.268	27755
814.41	27907
814.551	27907
814.692	27914
814.833	27831
814.974	27899
815.115	27857
815.256	27713
815.397	27690
815.539	27739
815.68	27637
815.821	27545
815.962	27660
816.103	27614
816.244	27393
816.385	27393
816.526	27218
816.666	27256
816.807	27230
816.948	27135
817.089	27298
817.23	27017
817.371	27169
817.512	27192
817.653	27085
817.793	26994
817.934	27066
818.075	27157
818.216	27192
818.356	26891
818.497	26910
818.638	26796
818.778	26899
818.919	26876
819.06	27001
819.2	27017
819.341	27062
819.481	27047
819.622	27180
819.762	27389
819.903	27283
820.043	27268
820.184	27325
820.324	27222
820.465	27306
820.605	27230
820.746	27123
820.886	27154
821.026	27199
821.167	27051
821.307	27241
821.447	27135
821.588	27013
821.728	26746
821.868	26663
822.008	26514
822.149	26629
822.289	26457
822.429	26389
822.569	26142
822.709	26278
822.849	26149
822.99	26103
823.13	26069
823.27	25936
823.41	25989
823.55	25799
823.69	25978
823.83	25860
823.97	25902
824.11	25719
824.25	25746
824.389	25655
824.529	25871
824.669	25712
824.809	25959
824.949	25734
825.089	25864
825.228	25712
825.368	25544
825.508	25651
825.648	25624
825.787	25567
825.927	25727
826.067	25571
826.206	25540
826.346	25689
826.485	25639
826.625	25605
826.765	25677
826.904	25521
827.044	25266
827.183	25354
827.323	25301
827.462	25362
827.601	25259
827.741	25362
827.88	25384
828.02	25266
828.159	25225
828.298	25285
828.437	25324
828.577	25244
828.716	25263
828.855	25282
828.994	24852
829.134	24924
829.273	25122
829.412	24928
829.551	24886
829.69	25088
829.829	25027
829.968	25095
830.107	25053
830.246	25038
830.385	24928
830.524	24814
830.663	24802
830.802	24829
830.941	24627
831.08	24585
831.219	24616
831.357	24837
831.496	24894
831.635	24563
831.774	24665
831.913	24612
832.051	24460
832.19	24460
832.329	24395
832.467	24350
832.606	24308
832.744	24346
832.883	24220
833.022	24232
833.16	24239
833.299	24376
833.437	24361
833.576	24448
833.714	24350
833.852	24483
833.991	24475
834.129	24517
834.267	24471
834.406	24388
834.544	24334
834.682	24315
834.821	24254
834.959	24532
835.097	24266
835.235	24433
835.373	24201
835.511	24292
835.65	24155
835.788	24304
835.926	24163
836.064	24038
836.202	24041
836.34	24220
836.478	24262
836.615	24114
836.753	24384
836.891	24197
837.029	24254
837.167	24057
837.305	24045
837.443	24140
837.58	24003
837.718	24064
837.856	24060
837.993	24022
838.131	23893
838.269	23878
838.406	23969
838.544	23745
838.681	23661
838.819	23600
838.956	23509
839.094	23455
839.231	23474
839.369	23531
839.506	23916
839.643	23813
839.781	23448
839.918	23417
840.055	23535
840.193	23410
840.33	23433
840.467	23372
840.604	23452
840.742	23646
840.879	23296
841.016	23387
841.153	23197
841.29	23433
841.427	23341
841.564	23421
841.701	23326
841.838	23315
841.975	23311
842.112	23265
842.249	23349
842.385	23189
842.522	23368
842.659	23189
842.796	23109
842.933	23189
843.069	23143
843.206	23140
843.343	23124
843.479	23216
843.616	23174
843.752	22972
843.889	23003
844.025	22904
844.162	22869
844.298	23117
844.435	22961
844.571	22900
844.708	23029
844.844	23162
844.98	23006
845.117	23029
845.253	22854
845.389	22733
845.525	22927
845.661	22694
845.798	22603
845.934	22733
846.07	22577
846.206	22660
846.342	22790
846.478	22577
846.614	22443
846.75	22329
846.886	22363
847.022	22497
847.158	22375
847.294	22516
847.429	22455
847.565	22280
847.701	22653
847.837	21964
847.972	22162
848.108	22249
848.244	22204
848.379	21892
848.515	22021
848.65	22036
848.786	22032
848.921	22120
849.057	22006
849.192	22021
849.328	21895
849.463	22025
849.598	21934
849.734	21781
849.869	21922
850.004	21800
850.14	21846
850.275	21785
850.41	21770
850.545	21701
850.68	21819
850.815	21595
850.95	21713
851.085	21918
851.22	21785
851.355	21785
851.49	21713
851.625	21679
851.76	21732
851.895	21709
852.03	21526
852.165	21743
852.299	21720
852.434	21739
852.569	21686
852.703	21686
852.838	21808
852.973	21895
853.107	21869
853.242	21751
853.376	21667
853.511	21485
853.645	21538
853.78	21599
853.914	21679
854.048	21496
854.183	21595
854.317	21591
854.451	21785
854.585	21625
854.72	21481
854.854	21682
854.988	21466
855.122	21481
855.256	21370
855.39	21583
855.524	21595
855.658	21625
855.792	21572
855.926	21641
856.06	21660
856.194	21770
856.327	21507
856.461	21469
856.595	21374
856.729	21534
856.862	21583
856.996	21633
857.13	21511
857.263	21747
857.397	21648
857.53	21466
857.664	21511
857.797	21671
857.931	21709
858.064	21637
858.197	21663
858.331	21641
858.464	21367
858.597	21329
858.731	21439
858.864	21561
858.997	21504
859.13	21614
859.263	21534
859.396	21553
859.529	21599
859.662	21553
859.795	21542
859.928	21443
860.061	21823
860.194	21709
860.327	21633
860.46	21572
860.592	21629
860.725	21667
860.858	21724
860.99	21564
861.123	21614
861.256	21530
861.388	21511
861.521	22207
861.653	21458
861.786	21382
861.918	21378
862.05	21424
862.183	21492
862.315	21507
862.447	21538
862.58	21412
862.712	21241
862.844	21154
862.976	21363
863.108	21325
863.24	21523
863.372	21135
863.504	21249
863.636	21378
863.768	21161
863.9	21332
864.032	21249
864.164	21169
864.296	21420
864.428	21435
864.559	21306
864.691	21340
864.823	21279
864.954	21249
865.086	21302
865.217	21165
865.349	21096
865.48	21150
865.612	21180
865.743	21165
865.875	21081
866.006	21211
866.137	21157
866.269	21093
866.4	21112
866.531	21127
866.662	21039
866.793	21043
866.924	21108
867.055	21089
867.186	21074
867.317	21066
867.448	20914
867.579	21123
867.71	21070
867.841	21077
867.972	21051
868.103	21100
868.233	21013
868.364	21066
868.495	21165
868.625	21252
868.756	21306
868.886	21233
869.017	21428
869.147	21435
869.278	21393
869.408	21268
869.539	21431
869.669	21431
869.799	21439
869.929	21370
870.06	21504
870.19	21686
870.32	21583
870.45	21603
870.58	21648
870.71	21736
870.84	21800
870.97	21732
871.1	21652
871.23	21793
871.36	21865
871.489	21766
871.619	21979
871.749	21953
871.879	22002
872.008	22086
872.138	21998
872.267	21869
872.397	21800
872.526	21648
872.656	21701
872.785	21759
872.915	21926
873.044	21975
873.173	22006
873.303	22067
873.432	21998
873.561	21911
873.69	21949
873.819	21861
873.948	22055
874.077	21968
874.206	21854
874.335	21857
874.464	21949
874.593	22154
874.722	22124
874.851	22223
874.979	22154
875.108	22223
875.237	22021
875.365	22093
875.494	22105
875.623	22177
875.751	22268
875.88	22059
876.008	22246
876.136	22413
876.265	22527
876.393	22649
876.521	22519
876.65	22603
876.778	22432
876.906	22618
877.034	22531
877.162	22550
877.29	22424
877.418	22470
877.546	22443
877.674	22436
877.802	22508
877.93	22382
878.058	22447
878.185	22363
878.313	22363
878.441	22538
878.568	22284
878.696	22417
878.824	22489
878.951	22592
879.079	22584
879.206	22824
879.333	22634
879.461	22497
879.588	22615
879.715	22569
879.842	22698
879.97	22596
880.097	22295
880.224	22196
880.351	22276
880.478	22322
880.605	22303
880.732	22402
880.859	22493
880.986	22371
881.112	22367
881.239	22268
881.366	22109
881.493	21991
881.619	21926
881.746	21994
881.872	21979
881.999	21964
882.125	21873
882.252	21857
882.378	21793
882.505	22040
882.631	21755
882.757	21587
882.883	21679
883.01	21561
883.136	21538
883.262	21443
883.388	21294
883.514	21549
883.64	21694
883.766	21488
883.892	21359
884.018	21336
884.143	21644
884.269	21606
884.395	21306
884.52	21249
884.646	21218
884.772	21169
884.897	21005
885.023	21306
885.148	21283
885.274	21374
885.399	21279
885.524	21214
885.65	21131
885.775	21195
885.9	21218
886.025	21378
886.15	21279
886.275	21176
886.4	21142
886.525	21165
886.65	21222
886.775	21287
886.9	21370
887.025	21382
887.149	21184
887.274	21013
887.399	21039
887.523	21036
887.648	20910
887.773	20754
887.897	21055
888.021	21028
888.146	20811
888.27	21074
888.395	20971
888.519	21013
888.643	21055
888.767	20998
888.891	21005
889.015	20804
889.139	20739
889.263	20849
889.387	20971
889.511	21119
889.635	20872
889.759	20788
889.883	20781
890.006	20724
890.13	20906
890.254	20674
890.377	20811
890.501	20499
890.624	20556
890.748	20594
890.871	20423
890.995	20320
891.118	20202
891.241	20305
891.364	20347
891.488	20499
891.611	20393
891.734	20351
891.857	20415
891.98	20465
892.103	20434
892.226	20347
892.349	20339
892.471	20153
892.594	20313
892.717	20275
892.839	20252
892.962	20252
893.085	20240
893.207	20240
893.33	20119
893.452	20183
893.575	20199
893.697	20320
893.819	20225
893.941	20549
894.064	20381
894.186	20126
894.308	20142
894.43	20290
894.552	20381
894.674	20218
894.796	20180
894.918	20039
895.04	20298
895.161	20282
895.283	20271
895.405	20176
895.526	20195
895.648	20374
895.769	20317
895.891	20343
896.012	20286
896.134	20225
896.255	20138
896.376	20233
896.498	20206
896.619	20290
896.74	20180
896.861	20309
896.982	20579
897.103	20674
897.224	20431
897.345	20457
897.466	20434
897.587	20495
897.708	20625
897.828	20450
897.949	20427
898.07	20286
898.19	20355
898.311	20552
898.431	20347
898.552	20339
898.672	20400
898.792	20537
898.913	20476
899.033	20309
899.153	20191
899.273	20092
899.393	20202
899.513	20256
899.633	20134
899.753	20218
899.873	20107
899.993	20195
900.113	20126
900.232	20206
900.352	20142
900.472	20134
900.591	19890
900.711	20024
900.83	20016
900.95	20024
901.069	20050
901.189	19742
901.308	19715
901.427	19616
901.546	19597
901.665	19605
901.784	19491
901.904	19480
902.023	19343
902.141	19148
902.26	19206
902.379	19240
902.498	19076
902.617	19057
902.735	19164
902.854	19038
902.973	18951
903.091	18745
903.21	18791
903.328	18795
903.446	18722
903.565	18532
903.683	18517
903.801	18445
903.919	18616
904.038	18467
904.156	18270
904.274	18369
904.392	18273
904.51	18285
904.627	18273
904.745	18319
904.863	18357
904.981	18079
905.098	17977
905.216	18034
905.334	18041
905.451	17950
905.569	17923
905.686	17950
905.803	18057
905.921	17737
906.038	17836
906.155	17809
906.272	17604
906.389	17695
906.506	17493
906.623	17486
906.74	17414
906.857	17421
906.974	17326
907.091	17581
907.208	17524
907.324	17436
907.441	17436
907.557	17258
907.674	17334
907.79	17136
907.907	17117
908.023	17322
908.139	17204
908.256	17143
908.372	17113
908.488	17022
908.604	16987
908.72	16908
908.836	16923
908.952	16949
909.068	16831
909.184	17098
909.3	16873
909.415	16991
909.531	16900
909.647	16577
909.762	16668
909.878	16599
909.993	16656
910.108	16653
910.224	16584
910.339	16763
910.454	16451
910.57	16447
910.685	16363
910.8	16733
910.915	16577
911.03	16398
911.145	16337
911.259	16242
911.374	16215
911.489	16211
911.604	16139
911.718	15934
911.833	16120
911.947	15884
912.062	15812
912.176	15945
912.291	16032
912.405	16021
912.519	16124
912.633	16135
912.748	16006
912.862	15903
912.976	15831
913.09	15652
913.204	15736
913.318	15831
913.431	15922
913.545	15873
913.659	15892
913.772	15819
913.886	15625
914	15591
914.113	15709
914.226	15660
914.34	15759
914.453	15443
914.566	15637
914.68	15500
914.793	15545
914.906	15275
915.019	15112
915.132	15157
915.245	15062
915.358	15195
915.47	15142
915.583	15275
915.696	15192
915.809	15294
915.921	15245
916.034	15142
916.146	15036
916.259	15104
916.371	15195
916.483	15070
916.595	14975
916.708	15032
916.82	15135
916.932	14975
917.044	15005
917.156	14948
917.268	14899
917.38	14914
917.491	14883
917.603	14883
917.715	14990
917.826	14944
917.938	14762
918.049	14769
918.161	14769
918.272	14902
918.384	14895
918.495	14758
918.606	14648
918.717	14549
918.828	14701
918.939	14667
919.05	14549
919.161	14568
919.272	14339
919.383	14499
919.494	14575
919.604	14773
919.715	14530
919.826	14492
919.936	14492
920.047	14579
920.157	14670
920.267	14682
920.378	14568
920.488	14549
920.598	14708
920.708	14891
920.818	14708
920.928	14746
921.038	14895
921.148	14743
921.258	14457
921.368	14442
921.477	14454
921.587	14377
921.697	14172
921.806	14282
921.916	14092
922.025	14016
922.134	13921
922.244	13906
922.353	13925
922.462	13803
922.571	13738
922.68	13601
922.789	13632
922.898	13537
923.007	13510
923.116	13643
923.224	13487
923.333	13491
923.442	13468
923.55	13422
923.659	13419
923.767	13411
923.876	13358
923.984	13403
924.092	13236
924.201	13422
924.309	13331
924.417	13384
924.525	13168
924.633	13289
924.741	14001
924.849	13095
924.956	13259
925.064	12947
925.172	12856
925.279	12909
925.387	12996
925.494	12951
925.602	13164
925.709	12993
925.816	12920
925.924	12958
926.031	12981
926.138	12951
926.245	12916
926.352	12757
926.459	13004
926.566	13000
926.673	12848
926.779	12814
926.886	12726
926.993	12658
927.099	12623
927.206	12445
927.312	12483
927.419	12658
927.525	12593
927.631	12589
927.737	12471
927.843	12426
927.95	12292
928.056	12376
928.162	12433
928.267	12490
928.373	13038
928.479	12494
928.585	12209
928.69	12304
928.796	12350
928.901	12251
929.007	12072
929.112	12258
929.218	12155
929.323	12171
929.428	12114
929.533	12239
929.638	12057
929.743	12068
929.848	12144
929.953	12026
930.058	11920
930.163	11726
930.267	11863
930.372	11901
930.477	11745
930.581	11988
930.685	11821
930.79	11668
930.894	11767
930.998	11627
931.103	11840
931.207	11471
931.311	11341
931.415	11261
931.519	11045
931.623	11048
