Data from test_V78500241_2908.txt Node
Date: Fri Mar 25 15:30:06 CST 2022
User: usil
Spectrometer: V785-0024
Trigger mode: 0
Integration Time (sec): 4.000000E-1
Scans to average: 1
Nonlinearity correction enabled: false
Boxcar width: 0
Storing dark spectrum: false
XAxis mode: Wavelengths
Number of Pixels in Spectrum: 1024
>>>>>Begin Spectral Data<<<<<
801.071	27230
801.214	27085
801.356	26952
801.499	26967
801.641	26636
801.783	26746
801.926	26834
802.068	26765
802.211	26849
802.353	26530
802.496	26442
802.638	26415
802.78	26469
802.923	26389
803.065	26267
803.208	26282
803.35	26324
803.492	26541
803.635	26613
803.777	26408
803.919	26522
804.061	26887
804.204	26579
804.346	26560
804.488	26286
804.63	26537
804.773	26423
804.915	26533
805.057	26663
805.199	26518
805.341	26598
805.483	26625
805.626	26678
805.768	26609
805.91	26697
806.052	26541
806.194	26583
806.336	26796
806.478	26602
806.62	26781
806.762	26788
806.904	27013
807.046	27077
807.188	27036
807.33	27119
807.472	27214
807.614	27074
807.756	27009
807.898	26929
808.04	26861
808.182	26899
808.324	26921
808.465	27039
808.607	27245
808.749	27488
808.891	27401
809.033	27355
809.174	27310
809.316	27344
809.458	27249
809.6	27173
809.741	27348
809.883	27496
810.025	27500
810.166	27519
810.308	27564
810.45	27515
810.591	27504
810.733	27427
810.875	27275
811.016	27260
811.158	27165
811.299	27344
811.441	27500
811.582	27431
811.724	27298
811.865	27207
812.007	27245
812.148	27302
812.29	27233
812.431	27329
812.573	27466
812.714	27724
812.855	27797
812.997	27755
813.138	27964
813.279	27751
813.421	27800
813.562	27705
813.703	27641
813.845	27450
813.986	27138
814.127	26963
814.268	26880
814.41	26891
814.551	26807
814.692	26990
814.833	26823
814.974	26762
815.115	27039
815.256	26724
815.397	26796
815.539	26697
815.68	26701
815.821	26541
815.962	26697
816.103	26689
816.244	26495
816.385	26556
816.526	26476
816.666	26275
816.807	26100
816.948	26271
817.089	26294
817.23	26138
817.371	26088
817.512	26088
817.653	26172
817.793	25970
817.934	26218
818.075	26103
818.216	26168
818.356	26244
818.497	26115
818.638	25871
818.778	25856
818.919	25890
819.06	26081
819.2	25951
819.341	26149
819.481	26069
819.622	26313
819.762	26552
819.903	26400
820.043	26370
820.184	26259
820.324	26366
820.465	26339
820.605	26252
820.746	26233
820.886	26005
821.026	26206
821.167	26419
821.307	26328
821.447	26229
821.588	26054
821.728	25883
821.868	25746
822.008	25666
822.149	25750
822.289	25677
822.429	25472
822.569	25274
822.709	25293
822.849	25126
822.99	25225
823.13	25110
823.27	25038
823.41	24958
823.55	24821
823.69	24985
823.83	24909
823.97	24726
824.11	24757
824.25	24612
824.389	24871
824.529	24757
824.669	24859
824.809	24814
824.949	24837
825.089	24939
825.228	24726
825.368	24559
825.508	24559
825.648	24684
825.787	24711
825.927	24734
826.067	24654
826.206	24631
826.346	24684
826.485	24601
826.625	24551
826.765	24795
826.904	24528
827.044	24399
827.183	24399
827.323	24327
827.462	24315
827.601	24422
827.741	24254
827.88	24380
828.02	24296
828.159	24194
828.298	24228
828.437	24327
828.577	24224
828.716	24403
828.855	24308
828.994	23992
829.134	23999
829.273	24079
829.412	23996
829.551	23939
829.69	24049
829.829	24022
829.968	24163
830.107	24083
830.246	24095
830.385	23920
830.524	23889
830.663	23817
830.802	23707
830.941	23604
831.08	23581
831.219	23741
831.357	23722
831.496	23885
831.635	23554
831.774	23505
831.913	23452
832.051	23246
832.19	23433
832.329	23452
832.467	23379
832.606	23174
832.744	23235
832.883	23227
833.022	23189
833.16	23265
833.299	23383
833.437	23334
833.576	23414
833.714	23356
833.852	23391
833.991	23299
834.129	23425
834.267	23417
834.406	23322
834.544	23425
834.682	23322
834.821	23429
834.959	23429
835.097	23307
835.235	23387
835.373	23299
835.511	23288
835.65	23128
835.788	23250
835.926	23090
836.064	22923
836.202	23037
836.34	23162
836.478	23220
836.615	23170
836.753	23204
836.891	23254
837.029	23155
837.167	23185
837.305	23159
837.443	23022
837.58	22965
837.718	23014
837.856	23044
837.993	23014
838.131	22965
838.269	22824
838.406	22862
838.544	22877
838.681	22767
838.819	22778
838.956	22538
839.094	22550
839.231	22618
839.369	22573
839.506	22972
839.643	22706
839.781	22554
839.918	22443
840.055	22394
840.193	22497
840.33	22451
840.467	22470
840.604	22664
840.742	22698
840.879	22246
841.016	22325
841.153	22363
841.29	22493
841.427	22386
841.564	22512
841.701	22402
841.838	22356
841.975	22390
842.112	22409
842.249	22303
842.385	22139
842.522	22440
842.659	22284
842.796	22253
842.933	22200
843.069	22055
843.206	22078
843.343	22219
843.479	22128
843.616	22150
843.752	21953
843.889	21915
844.025	21998
844.162	21903
844.298	22040
844.435	21911
844.571	21854
844.708	22025
844.844	22177
844.98	22002
845.117	22025
845.253	21865
845.389	21854
845.525	21865
845.661	21835
845.798	21698
845.934	21770
846.07	21705
846.206	21736
846.342	21819
846.478	21720
846.614	21515
846.75	21389
846.886	21389
847.022	21496
847.158	21564
847.294	21367
847.429	21488
847.565	21370
847.701	21751
847.837	21119
847.972	21112
848.108	21230
848.244	21184
848.379	21146
848.515	21032
848.65	20982
848.786	20906
848.921	20982
849.057	21070
849.192	21127
849.328	21081
849.463	21047
849.598	20902
849.734	20963
849.869	20899
850.004	20792
850.14	20880
850.275	20773
850.41	20735
850.545	20621
850.68	20845
850.815	20864
850.95	20727
851.085	20971
851.22	20906
851.355	20861
851.49	20689
851.625	20731
851.76	20708
851.895	20655
852.03	20819
852.165	20796
852.299	20811
852.434	20899
852.569	20849
852.703	20804
852.838	20906
852.973	20876
853.107	20876
853.242	20853
853.376	20712
853.511	20514
853.645	20511
853.78	20697
853.914	20659
854.048	20632
854.183	20629
854.317	20617
854.451	20804
854.585	20804
854.72	20575
854.854	20807
854.988	20587
855.122	20667
855.256	20492
855.39	20621
855.524	20625
855.658	20636
855.792	20636
855.926	20617
856.06	20716
856.194	20701
856.327	20583
856.461	20552
856.595	20583
856.729	20746
856.862	20670
856.996	20712
857.13	20697
857.263	20705
857.397	20712
857.53	20530
857.664	20720
857.797	20625
857.931	20530
858.064	20579
858.197	20568
858.331	20583
858.464	20518
858.597	20495
858.731	20423
858.864	20621
858.997	20598
859.13	20583
859.263	20648
859.396	20720
859.529	20526
859.662	20636
859.795	20564
859.928	20598
860.061	20727
860.194	20891
860.327	20636
860.46	20579
860.592	20868
860.725	20682
860.858	20693
860.99	20663
861.123	20575
861.256	20476
861.388	20545
861.521	21135
861.653	20518
861.786	20309
861.918	20442
862.05	20590
862.183	20533
862.315	20488
862.447	20568
862.58	20492
862.712	20400
862.844	20256
862.976	20389
863.108	20419
863.24	20811
863.372	20176
863.504	20290
863.636	20313
863.768	20339
863.9	20313
864.032	20263
864.164	20320
864.296	20278
864.428	20545
864.559	20374
864.691	20412
864.823	20233
864.954	20370
865.086	20282
865.217	20134
865.349	20077
865.48	20301
865.612	20244
865.743	20423
865.875	20259
866.006	20115
866.137	20218
866.269	20248
866.4	20263
866.531	20248
866.662	20096
866.793	20206
866.924	20214
867.055	20278
867.186	20195
867.317	20225
867.448	20073
867.579	20225
867.71	20153
867.841	20054
867.972	20240
868.103	20134
868.233	20294
868.364	20172
868.495	20240
868.625	20377
868.756	20431
868.886	20275
869.017	20328
869.147	20549
869.278	20492
869.408	20389
869.539	20419
869.669	20507
869.799	20461
869.929	20552
870.06	20423
870.19	20621
870.32	20686
870.45	20625
870.58	20777
870.71	20975
870.84	20804
870.97	20876
871.1	20819
871.23	20971
871.36	21047
871.489	20960
871.619	20986
871.749	21020
871.879	20944
872.008	21062
872.138	21154
872.267	20998
872.397	20887
872.526	20857
872.656	20895
872.785	20834
872.915	21074
873.044	21020
873.173	20975
873.303	21047
873.432	21013
873.561	21100
873.69	21017
873.819	21074
873.948	21100
874.077	21070
874.206	21028
874.335	20956
874.464	21218
874.593	21264
874.722	21214
874.851	21222
874.979	21325
875.108	21214
875.237	21272
875.365	21214
875.494	21195
875.623	21431
875.751	21195
875.88	21230
876.008	21386
876.136	21466
876.265	21793
876.393	21759
876.521	21614
876.65	21732
876.778	21652
876.906	21648
877.034	21679
877.162	21667
877.29	21462
877.418	21641
877.546	21724
877.674	21759
877.802	21717
877.93	21637
878.058	21667
878.185	21526
878.313	21660
878.441	21629
878.568	21435
878.696	21466
878.824	21667
878.951	21568
879.079	21762
879.206	21774
879.333	21751
879.461	21751
879.588	21755
879.715	21690
879.842	21831
879.97	21656
880.097	21462
880.224	21370
880.351	21473
880.478	21382
880.605	21393
880.732	21443
880.859	21564
880.986	21336
881.112	21469
881.239	21386
881.366	21108
881.493	21032
881.619	21138
881.746	21036
881.872	21085
881.999	20979
882.125	20914
882.252	21070
882.378	21055
882.505	21180
882.631	20872
882.757	20739
882.883	20785
883.01	20758
883.136	20667
883.262	20674
883.388	20590
883.514	20667
883.64	20807
883.766	20693
883.892	20518
884.018	20579
884.143	20686
884.269	20834
884.395	20434
884.52	20434
884.646	20267
884.772	20351
884.897	20332
885.023	20389
885.148	20545
885.274	20590
885.399	20533
885.524	20343
885.65	20343
885.775	20389
885.9	20366
886.025	20313
886.15	20419
886.275	20400
886.4	20240
886.525	20278
886.65	20294
886.775	20358
886.9	20499
887.025	20583
887.149	20374
887.274	20259
887.399	20225
887.523	20157
887.648	20073
887.773	20107
887.897	20206
888.021	20180
888.146	20157
888.27	20187
888.395	20374
888.519	20225
888.643	20210
888.767	20183
888.891	19982
889.015	19951
889.139	20024
889.263	19868
889.387	20065
889.511	20305
889.635	20020
889.759	19993
889.883	19978
890.006	19982
890.13	20092
890.254	19864
890.377	20005
890.501	19860
890.624	19750
890.748	19674
890.871	19578
890.995	19559
891.118	19506
891.241	19506
891.364	19544
891.488	19738
891.611	19590
891.734	19601
891.857	19567
891.98	19590
892.103	19559
892.226	19552
892.349	19590
892.471	19331
892.594	19449
892.717	19502
892.839	19407
892.962	19449
893.085	19518
893.207	19495
893.33	19441
893.452	19346
893.575	19544
893.697	19445
893.819	19552
893.941	19685
894.064	19582
894.186	19525
894.308	19350
894.43	19594
894.552	19483
894.674	19556
894.796	19400
894.918	19403
895.04	19537
895.161	19628
895.283	19563
895.405	19301
895.526	19468
895.648	19468
895.769	19525
895.891	19575
896.012	19506
896.134	19422
896.255	19491
896.376	19441
896.498	19556
896.619	19594
896.74	19525
896.861	19491
896.982	19860
897.103	19959
897.224	19791
897.345	19780
897.466	19559
897.587	19586
897.708	19818
897.828	19830
897.949	19734
898.07	19537
898.19	19677
898.311	19841
898.431	19704
898.552	19784
898.672	19772
898.792	19826
898.913	19757
899.033	19674
899.153	19590
899.273	19460
899.393	19518
899.513	19472
899.633	19476
899.753	19339
899.873	19335
899.993	19624
900.113	19415
900.232	19616
900.352	19407
900.472	19377
900.591	19270
900.711	19331
900.83	19285
900.95	19381
901.069	19415
901.189	19240
901.308	19027
901.427	18916
901.546	18928
901.665	18913
901.784	18943
901.904	18650
902.023	18741
902.141	18471
902.26	18342
902.379	18464
902.498	18414
902.617	18399
902.735	18494
902.854	18418
902.973	18369
903.091	18049
903.21	18133
903.328	17999
903.446	17954
903.565	17882
903.683	17874
903.801	17786
903.919	17920
904.038	17684
904.156	17668
904.274	17699
904.392	17627
904.51	17676
904.627	17585
904.745	17630
904.863	17794
904.981	17471
905.098	17341
905.216	17383
905.334	17414
905.451	17360
905.569	17345
905.686	17273
905.803	17299
905.921	17086
906.038	17197
906.155	17124
906.272	17048
906.389	17003
906.506	16949
906.623	16869
906.74	16809
906.857	16725
906.974	16778
907.091	16858
907.208	16946
907.324	16854
907.441	16702
907.557	16599
907.674	16596
907.79	16512
907.907	16550
908.023	16565
908.139	16577
908.256	16481
908.372	16421
908.488	16474
908.604	16402
908.72	16310
908.836	16375
908.952	16246
909.068	16375
909.184	16398
909.3	16314
909.415	16390
909.531	16310
909.647	16116
909.762	16071
909.878	15998
909.993	16078
910.108	15960
910.224	16044
910.339	15949
910.454	15907
910.57	15823
910.685	15743
910.8	15949
910.915	16017
911.03	15915
911.145	15572
911.259	15633
911.374	15572
911.489	15519
911.604	15450
911.718	15458
911.833	15329
911.947	15317
912.062	15249
912.176	15458
912.291	15302
912.405	15401
912.519	15545
912.633	15584
912.748	15397
912.862	15294
912.976	15294
913.09	15100
913.204	15157
913.318	15169
913.431	15237
913.545	15199
913.659	15249
913.772	15043
913.886	14986
914	15085
914.113	15005
914.226	15097
914.34	14956
914.453	14902
914.566	14990
914.68	14830
914.793	14842
914.906	14743
915.019	14610
915.132	14564
915.245	14549
915.358	14674
915.47	14590
915.583	14518
915.696	14667
915.809	14670
915.921	14705
916.034	14552
916.146	14507
916.259	14469
916.371	14617
916.483	14533
916.595	14473
916.708	14434
916.82	14438
916.932	14370
917.044	14389
917.156	14343
917.268	14282
917.38	14317
917.491	14244
917.603	14294
917.715	14328
917.826	14339
917.938	14168
918.049	14123
918.161	14180
918.272	14385
918.384	14282
918.495	14225
918.606	14039
918.717	13921
918.828	14092
918.939	14058
919.05	13860
919.161	13932
919.272	13894
919.383	13917
919.494	14039
919.604	14313
919.715	14031
919.826	13898
919.936	13928
920.047	14016
920.157	14005
920.267	14233
920.378	14046
920.488	13986
920.598	14237
920.708	14298
920.818	14142
920.928	14081
921.038	14275
921.148	14244
921.258	13974
921.368	13925
921.477	13868
921.587	13765
921.697	13643
921.806	13753
921.916	13651
922.025	13449
922.134	13453
922.244	13339
922.353	13441
922.462	13316
922.571	13236
922.68	13004
922.789	13027
922.898	13141
923.007	13107
923.116	13046
923.224	13050
923.333	13053
923.442	12859
923.55	12875
923.659	13023
923.767	12928
923.876	12901
923.984	12928
924.092	12829
924.201	12806
924.309	12772
924.417	12772
924.525	12749
924.633	12779
924.741	13681
924.849	12536
924.956	12639
925.064	12494
925.172	12414
925.279	12467
925.387	12574
925.494	12532
925.602	12601
925.709	12536
925.816	12388
925.924	12441
926.031	12502
926.138	12429
926.245	12597
926.352	12418
926.459	12570
926.566	12544
926.673	12391
926.779	12384
926.886	12338
926.993	12102
927.099	12091
927.206	12079
927.312	11999
927.419	12266
927.525	12102
927.631	11965
927.737	12011
927.843	11927
927.95	11824
928.056	11939
928.162	11931
928.267	11965
928.373	12570
928.479	12083
928.585	11760
928.69	11969
928.796	11916
928.901	11927
929.007	11710
929.112	11790
929.218	11767
929.323	11737
929.428	11630
929.533	11809
929.638	11570
929.743	11573
929.848	11649
929.953	11619
930.058	11486
930.163	11414
930.267	11376
930.372	11505
930.477	11303
930.581	11592
930.685	11391
930.79	11299
930.894	11269
930.998	11212
931.103	11364
931.207	11003
931.311	11010
931.415	10828
931.519	10717
931.623	10653
