Data from test_V78500241_2112.txt Node
Date: Fri Mar 25 15:24:33 CST 2022
User: usil
Spectrometer: V785-0024
Trigger mode: 0
Integration Time (sec): 4.000000E-1
Scans to average: 1
Nonlinearity correction enabled: false
Boxcar width: 0
Storing dark spectrum: false
XAxis mode: Wavelengths
Number of Pixels in Spectrum: 1024
>>>>>Begin Spectral Data<<<<<
801.071	27918
801.214	27759
801.356	27648
801.499	27431
801.641	27481
801.783	27393
801.926	27595
802.068	27443
802.211	27397
802.353	27351
802.496	27199
802.638	27024
802.78	27085
802.923	27047
803.065	27020
803.208	26944
803.35	27085
803.492	27264
803.635	27302
803.777	27150
803.919	27355
804.061	27610
804.204	27340
804.346	27256
804.488	27211
804.63	27272
804.773	27233
804.915	27260
805.057	27367
805.199	27249
805.341	27370
805.483	27466
805.626	27416
805.768	27226
805.91	27378
806.052	27549
806.194	27351
806.336	27549
806.478	27249
806.62	27542
806.762	27355
806.904	27682
807.046	27918
807.188	27789
807.33	27880
807.472	27895
807.614	27884
807.756	27755
807.898	27652
808.04	27576
808.182	27709
808.324	27633
808.465	27808
808.607	27857
808.749	28070
808.891	28074
809.033	28181
809.174	28112
809.316	28013
809.458	28021
809.6	28036
809.741	28055
809.883	28261
810.025	28367
810.166	28363
810.308	28504
810.45	28284
810.591	28166
810.733	28124
810.875	27884
811.016	28074
811.158	27930
811.299	28029
811.441	28006
811.582	28063
811.724	28040
811.865	27979
812.007	28120
812.148	27884
812.29	28044
812.431	28192
812.573	28447
812.714	28413
812.855	28580
812.997	28554
813.138	28748
813.279	28531
813.421	28451
813.562	28474
813.703	28451
813.845	28226
813.986	28021
814.127	27850
814.268	27705
814.41	27717
814.551	27690
814.692	27838
814.833	27656
814.974	27739
815.115	27686
815.256	27637
815.397	27682
815.539	27500
815.68	27393
815.821	27603
815.962	27603
816.103	27450
816.244	27325
816.385	27310
816.526	27317
816.666	27051
816.807	27005
816.948	27161
817.089	27211
817.23	26986
817.371	26937
817.512	27043
817.653	27009
817.793	26982
817.934	26975
818.075	26975
818.216	27047
818.356	26902
818.497	26910
818.638	26773
818.778	26701
818.919	26857
819.06	26914
819.2	26960
819.341	26887
819.481	27020
819.622	27157
819.762	27249
819.903	27279
820.043	27119
820.184	27184
820.324	27074
820.465	27051
820.605	27112
820.746	27039
820.886	26960
821.026	26982
821.167	27020
821.307	27252
821.447	26967
821.588	27020
821.728	26842
821.868	26606
822.008	26412
822.149	26511
822.289	26461
822.429	26233
822.569	26077
822.709	26195
822.849	25890
822.99	25947
823.13	25830
823.27	25917
823.41	25811
823.55	25624
823.69	25830
823.83	25780
823.97	25715
824.11	25521
824.25	25575
824.389	25563
824.529	25742
824.669	25670
824.809	25799
824.949	25632
825.089	25677
825.228	25590
825.368	25495
825.508	25502
825.648	25529
825.787	25460
825.927	25479
826.067	25392
826.206	25415
826.346	25449
826.485	25499
826.625	25369
826.765	25559
826.904	25518
827.044	25156
827.183	25107
827.323	25209
827.462	25278
827.601	25209
827.741	25198
827.88	25244
828.02	25156
828.159	25126
828.298	25236
828.437	25251
828.577	25225
828.716	25209
828.855	25129
828.994	24829
829.134	24928
829.273	24909
829.412	24779
829.551	24844
829.69	24909
829.829	24871
829.968	24871
830.107	24905
830.246	24920
830.385	24856
830.524	24696
830.663	24635
830.802	24741
830.941	24464
831.08	24437
831.219	24585
831.357	24616
831.496	24688
831.635	24369
831.774	24452
831.913	24456
832.051	24190
832.19	24380
832.329	24334
832.467	24159
832.606	24098
832.744	24235
832.883	24228
833.022	24224
833.16	24102
833.299	24114
833.437	24102
833.576	24273
833.714	24171
833.852	24384
833.991	24117
834.129	24251
834.267	24205
834.406	24167
834.544	24289
834.682	24308
834.821	24186
834.959	24414
835.097	24201
835.235	24315
835.373	24281
835.511	24182
835.65	23950
835.788	24102
835.926	23999
836.064	23893
836.202	23901
836.34	24098
836.478	24060
836.615	24026
836.753	24087
836.891	24083
837.029	24087
837.167	23874
837.305	24114
837.443	23912
837.58	23836
837.718	23897
837.856	23821
837.993	23863
838.131	23798
838.269	23741
838.406	23783
838.544	23752
838.681	23440
838.819	23581
838.956	23387
839.094	23337
839.231	23330
839.369	23695
839.506	23687
839.643	23600
839.781	23376
839.918	23341
840.055	23334
840.193	23143
840.33	23311
840.467	23356
840.604	23318
840.742	23581
840.879	23014
841.016	23261
841.153	23311
841.29	23459
841.427	23277
841.564	23227
841.701	23151
841.838	23303
841.975	23124
842.112	23140
842.249	23006
842.385	23006
842.522	23200
842.659	22965
842.796	23037
842.933	22957
843.069	22923
843.206	23010
843.343	22995
843.479	23033
843.616	22946
843.752	22915
843.889	22778
844.025	22934
844.162	22831
844.298	23041
844.435	22752
844.571	22778
844.708	22831
844.844	22911
844.98	22911
845.117	22820
845.253	22717
845.389	22660
845.525	22733
845.661	22645
845.798	22611
845.934	22527
846.07	22523
846.206	22497
846.342	22557
846.478	22493
846.614	22318
846.75	22242
846.886	22337
847.022	22249
847.158	22440
847.294	22268
847.429	22314
847.565	22261
847.701	22440
847.837	21968
847.972	21934
848.108	22048
848.244	22109
848.379	21861
848.515	21861
848.65	21915
848.786	21800
848.921	21854
849.057	21979
849.192	21899
849.328	21880
849.463	21846
849.598	21880
849.734	21789
849.869	21743
850.004	21595
850.14	21739
850.275	21595
850.41	21538
850.545	21534
850.68	21644
850.815	21747
850.95	21542
851.085	21781
851.22	21759
851.355	21679
851.49	21622
851.625	21663
851.76	21568
851.895	21576
852.03	21561
852.165	21667
852.299	21603
852.434	21720
852.569	21641
852.703	21557
852.838	21701
852.973	21831
853.107	21671
853.242	21606
853.376	21447
853.511	21344
853.645	21485
853.78	21580
853.914	21435
854.048	21485
854.183	21405
854.317	21507
854.451	21663
854.585	21386
854.72	21450
854.854	21488
854.988	21386
855.122	21492
855.256	21272
855.39	21359
855.524	21439
855.658	21568
855.792	21443
855.926	21389
856.06	21405
856.194	21488
856.327	21374
856.461	21378
856.595	21454
856.729	21408
856.862	21526
856.996	21523
857.13	21587
857.263	21515
857.397	21389
857.53	21439
857.664	21439
857.797	21492
857.931	21564
858.064	21443
858.197	21549
858.331	21435
858.464	21355
858.597	21428
858.731	21416
858.864	21393
858.997	21424
859.13	21450
859.263	21458
859.396	21496
859.529	21317
859.662	21351
859.795	21466
859.928	21420
860.061	21500
860.194	21515
860.327	21492
860.46	21408
860.592	21675
860.725	21610
860.858	21496
860.99	21260
861.123	21420
861.256	21378
861.388	21507
861.521	21979
861.653	21241
861.786	21207
861.918	21332
862.05	21298
862.183	21386
862.315	21310
862.447	21431
862.58	21420
862.712	21100
862.844	21043
862.976	21310
863.108	21260
863.24	21603
863.372	21138
863.504	21116
863.636	21093
863.768	21089
863.9	21093
864.032	21131
864.164	21058
864.296	21184
864.428	21256
864.559	21123
864.691	21184
864.823	21104
864.954	21203
865.086	21066
865.217	21093
865.349	20960
865.48	21089
865.612	21005
865.743	21043
865.875	21024
866.006	21020
866.137	21081
866.269	21058
866.4	20941
866.531	20960
866.662	20971
866.793	20960
866.924	21009
867.055	20982
867.186	20979
867.317	20990
867.448	20937
867.579	20876
867.71	20880
867.841	20967
867.972	20914
868.103	20925
868.233	20971
868.364	20853
868.495	21013
868.625	21123
868.756	21374
868.886	21138
869.017	21108
869.147	21340
869.278	21275
869.408	21230
869.539	21226
869.669	21195
869.799	21135
869.929	21363
870.06	21386
870.19	21477
870.32	21641
870.45	21568
870.58	21583
870.71	21660
870.84	21778
870.97	21637
871.1	21660
871.23	21850
871.36	21937
871.489	21686
871.619	21759
871.749	21755
871.879	21968
872.008	21880
872.138	21770
872.267	21747
872.397	21682
872.526	21564
872.656	21622
872.785	21644
872.915	21842
873.044	21838
873.173	21865
873.303	21819
873.432	21895
873.561	21941
873.69	21869
873.819	21873
873.948	21789
874.077	21861
874.206	21835
874.335	21755
874.464	22002
874.593	22010
874.722	21937
874.851	21991
874.979	22017
875.108	22120
875.237	21991
875.365	21994
875.494	21926
875.623	22040
875.751	22154
875.88	22063
876.008	22169
876.136	22306
876.265	22459
876.393	22615
876.521	22474
876.65	22440
876.778	22375
876.906	22318
877.034	22379
877.162	22341
877.29	22310
877.418	22417
877.546	22341
877.674	22474
877.802	22390
877.93	22253
878.058	22318
878.185	22234
878.313	22413
878.441	22379
878.568	22204
878.696	22325
878.824	22470
878.951	22504
879.079	22508
879.206	22664
879.333	22542
879.461	22413
879.588	22409
879.715	22462
879.842	22531
879.97	22375
880.097	22200
880.224	22143
880.351	22226
880.478	22135
880.605	22215
880.732	22150
880.859	22459
880.986	22177
881.112	22379
881.239	22158
881.366	21937
881.493	21884
881.619	21759
881.746	21922
881.872	21838
881.999	21739
882.125	21663
882.252	21823
882.378	21781
882.505	21854
882.631	21511
882.757	21542
882.883	21580
883.01	21420
883.136	21534
883.262	21336
883.388	21374
883.514	21466
883.64	21416
883.766	21393
883.892	21344
884.018	21359
884.143	21469
884.269	21538
884.395	21245
884.52	21195
884.646	21150
884.772	21032
884.897	21077
885.023	21047
885.148	21363
885.274	21264
885.399	21150
885.524	21085
885.65	21184
885.775	21055
885.9	21131
886.025	21146
886.15	21192
886.275	21013
886.4	21085
886.525	21047
886.65	21169
886.775	21013
886.9	21146
887.025	21317
887.149	21055
887.274	20925
887.399	20921
887.523	20864
887.648	20876
887.773	20796
887.897	20864
888.021	20918
888.146	20788
888.27	20895
888.395	20826
888.519	20918
888.643	20864
888.767	20815
888.891	20712
889.015	20746
889.139	20609
889.263	20667
889.387	20868
889.511	20880
889.635	20724
889.759	20613
889.883	20735
890.006	20705
890.13	20727
890.254	20583
890.377	20549
890.501	20389
890.624	20385
890.748	20442
890.871	20282
890.995	20282
891.118	20168
891.241	20305
891.364	20237
891.488	20332
891.611	20164
891.734	20267
891.857	20286
891.98	20183
892.103	20313
892.226	20301
892.349	20210
892.471	20043
892.594	20145
892.717	20107
892.839	20183
892.962	20115
893.085	20195
893.207	20221
893.33	20008
893.452	20069
893.575	20229
893.697	20088
893.819	20271
893.941	20404
894.064	20339
894.186	20115
894.308	20081
894.43	20221
894.552	20286
894.674	20244
894.796	19932
894.918	20168
895.04	20210
895.161	20267
895.283	20210
895.405	20008
895.526	20081
895.648	20149
895.769	20111
895.891	20294
896.012	20107
896.134	20229
896.255	20275
896.376	20016
896.498	20100
896.619	20043
896.74	20119
896.861	20096
896.982	20549
897.103	20644
897.224	20393
897.345	20305
897.466	20355
897.587	20317
897.708	20412
897.828	20400
897.949	20298
898.07	20237
898.19	20286
898.311	20465
898.431	20324
898.552	20286
898.672	20442
898.792	20412
898.913	20400
899.033	20180
899.153	20069
899.273	20058
899.393	20248
899.513	20077
899.633	20046
899.753	20069
899.873	20119
899.993	20176
900.113	19993
900.232	20024
900.352	20020
900.472	19947
900.591	19887
900.711	19925
900.83	19917
900.95	19936
901.069	20050
901.189	19769
901.308	19533
901.427	19457
901.546	19491
901.665	19510
901.784	19514
901.904	19274
902.023	19247
902.141	19126
902.26	19053
902.379	19031
902.498	19031
902.617	18977
902.735	19000
902.854	19099
902.973	18863
903.091	18791
903.21	18627
903.328	18757
903.446	18623
903.565	18559
903.683	18498
903.801	18365
903.919	18456
904.038	18502
904.156	18270
904.274	18296
904.392	18197
904.51	18167
904.627	18296
904.745	18315
904.863	18357
904.981	18041
905.098	17874
905.216	17942
905.334	17923
905.451	17847
905.569	17904
905.686	17729
905.803	17840
905.921	17714
906.038	17824
906.155	17668
906.272	17661
906.389	17600
906.506	17478
906.623	17364
906.74	17455
906.857	17345
906.974	17303
907.091	17486
907.208	17532
907.324	17459
907.441	17406
907.557	17239
907.674	17159
907.79	17094
907.907	17121
908.023	17273
908.139	17185
908.256	16987
908.372	16995
908.488	16976
908.604	16968
908.72	16805
908.836	16927
908.952	16847
909.068	16923
909.184	16873
909.3	16797
909.415	16942
909.531	16805
909.647	16637
909.762	16485
909.878	16504
909.993	16599
910.108	16546
910.224	16592
910.339	16573
910.454	16523
910.57	16394
910.685	16356
910.8	16626
910.915	16527
911.03	16322
911.145	16219
911.259	16192
911.374	16238
911.489	16067
911.604	16097
911.718	15819
911.833	15941
911.947	15759
912.062	15717
912.176	15937
912.291	15899
912.405	15918
912.519	16135
912.633	16158
912.748	16017
912.862	15987
912.976	15682
913.09	15690
913.204	15652
913.318	15778
913.431	15743
913.545	15835
913.659	15781
913.772	15652
913.886	15606
914	15557
914.113	15618
914.226	15606
914.34	15542
914.453	15420
914.566	15564
914.68	15443
914.793	15424
914.906	15272
915.019	15070
915.132	15161
915.245	15089
915.358	15154
915.47	15154
915.583	15032
915.696	15112
915.809	15310
915.921	15192
916.034	15074
916.146	15161
916.259	14998
916.371	15100
916.483	15081
916.595	15074
916.708	15024
916.82	14891
916.932	14868
917.044	14929
917.156	14815
917.268	14792
917.38	14796
917.491	14762
917.603	14800
917.715	14842
917.826	14845
917.938	14708
918.049	14598
918.161	14640
918.272	14773
918.384	14823
918.495	14754
918.606	14613
918.717	14476
918.828	14564
918.939	14606
919.05	14450
919.161	14530
919.272	14309
919.383	14396
919.494	14598
919.604	14765
919.715	14492
919.826	14507
919.936	14511
920.047	14571
920.157	14560
920.267	14686
920.378	14541
920.488	14343
920.598	14731
920.708	14819
920.818	14655
920.928	14590
921.038	14781
921.148	14735
921.258	14484
921.368	14457
921.477	14263
921.587	14282
921.697	14191
921.806	14225
921.916	14123
922.025	13959
922.134	13791
922.244	13788
922.353	13917
922.462	13704
922.571	13769
922.68	13514
922.789	13514
922.898	13586
923.007	13514
923.116	13533
923.224	13552
923.333	13518
923.442	13377
923.55	13266
923.659	13369
923.767	13343
923.876	13308
923.984	13388
924.092	13278
924.201	13289
924.309	13266
924.417	13247
924.525	13232
924.633	13152
924.741	13932
924.849	13008
924.956	13206
925.064	13069
925.172	12954
925.279	12985
925.387	12962
925.494	12920
925.602	13069
925.709	12970
925.816	12875
925.924	12890
926.031	12894
926.138	12886
926.245	12947
926.352	12821
926.459	12993
926.566	12939
926.673	12817
926.779	12627
926.886	12707
926.993	12566
927.099	12608
927.206	12528
927.312	12372
927.419	12616
927.525	12441
927.631	12521
927.737	12445
927.843	12338
927.95	12216
928.056	12334
928.162	12315
928.267	12300
928.373	12951
928.479	12429
928.585	12201
928.69	12201
928.796	12273
928.901	12171
929.007	11961
929.112	12171
929.218	12186
929.323	12129
929.428	12121
929.533	12239
929.638	12003
929.743	11954
929.848	12068
929.953	12015
930.058	11904
930.163	11798
930.267	11748
930.372	11798
930.477	11691
930.581	11923
930.685	11813
930.79	11642
930.894	11672
930.998	11600
931.103	11737
931.207	11532
931.311	11307
931.415	11216
931.519	11010
931.623	11025
