Data from test_V78500241_259.txt Node
Date: Fri Mar 25 15:11:39 CST 2022
User: usil
Spectrometer: V785-0024
Trigger mode: 0
Integration Time (sec): 4.000000E-1
Scans to average: 1
Nonlinearity correction enabled: false
Boxcar width: 0
Storing dark spectrum: false
XAxis mode: Wavelengths
Number of Pixels in Spectrum: 1024
>>>>>Begin Spectral Data<<<<<
801.071	28386
801.214	28158
801.356	28093
801.499	27975
801.641	27994
801.783	27895
801.926	27979
802.068	27880
802.211	27705
802.353	27759
802.496	27709
802.638	27538
802.78	27469
802.923	27500
803.065	27363
803.208	27504
803.35	27427
803.492	27667
803.635	27690
803.777	27431
803.919	27709
804.061	27972
804.204	27778
804.346	27519
804.488	27534
804.63	27583
804.773	27549
804.915	27660
805.057	27648
805.199	27698
805.341	27709
805.483	27667
805.626	27755
805.768	27698
805.91	27854
806.052	27732
806.194	27694
806.336	27736
806.478	27812
806.62	27755
806.762	27800
806.904	28101
807.046	28348
807.188	28059
807.33	28249
807.472	28249
807.614	28010
807.756	28112
807.898	28006
808.04	27991
808.182	27960
808.324	27857
808.465	27964
808.607	28185
808.749	28166
808.891	28550
809.033	28516
809.174	28405
809.316	28409
809.458	28382
809.6	28299
809.741	28443
809.883	28523
810.025	28618
810.166	28557
810.308	28577
810.45	28489
810.591	28561
810.733	28459
810.875	28363
811.016	28139
811.158	28268
811.299	28409
811.441	28451
811.582	28527
811.724	28325
811.865	28230
812.007	28367
812.148	28344
812.29	28379
812.431	28516
812.573	28580
812.714	28664
812.855	28797
812.997	28946
813.138	29117
813.279	28793
813.421	28885
813.562	28717
813.703	28774
813.845	28550
813.986	28185
814.127	28150
814.268	27895
814.41	27914
814.551	27865
814.692	27934
814.833	27865
814.974	27857
815.115	28120
815.256	27823
815.397	27694
815.539	27679
815.68	27762
815.821	27682
815.962	27663
816.103	27816
816.244	27583
816.385	27549
816.526	27348
816.666	27306
816.807	27233
816.948	27230
817.089	27378
817.23	27233
817.371	27230
817.512	27165
817.653	27176
817.793	27237
817.934	27028
818.075	27214
818.216	27176
818.356	27020
818.497	26956
818.638	26899
818.778	26765
818.919	26872
819.06	26899
819.2	26963
819.341	27005
819.481	27032
819.622	27214
819.762	27363
819.903	27336
820.043	27351
820.184	27203
820.324	27165
820.465	27264
820.605	27218
820.746	27294
820.886	27085
821.026	27329
821.167	27173
821.307	27218
821.447	27138
821.588	27013
821.728	26921
821.868	26864
822.008	26731
822.149	26686
822.289	26613
822.429	26278
822.569	26324
822.709	26290
822.849	25974
822.99	26016
823.13	25852
823.27	25909
823.41	25788
823.55	25715
823.69	25864
823.83	25791
823.97	25833
824.11	25685
824.25	25677
824.389	25685
824.529	25666
824.669	25727
824.809	25807
824.949	25841
825.089	25791
825.228	25731
825.368	25609
825.508	25594
825.648	25624
825.787	25571
825.927	25502
826.067	25506
826.206	25479
826.346	25441
826.485	25460
826.625	25582
826.765	25582
826.904	25594
827.044	25213
827.183	25179
827.323	25175
827.462	25225
827.601	25202
827.741	25213
827.88	25304
828.02	25137
828.159	25171
828.298	25217
828.437	25270
828.577	25110
828.716	25278
828.855	25076
828.994	24962
829.134	25061
829.273	24890
829.412	24848
829.551	24882
829.69	24871
829.829	24962
829.968	24947
830.107	24981
830.246	24981
830.385	24970
830.524	24791
830.663	24749
830.802	24608
830.941	24445
831.08	24479
831.219	24585
831.357	24528
831.496	24764
831.635	24585
831.774	24414
831.913	24395
832.051	24277
832.19	24258
832.329	24315
832.467	24186
832.606	24235
832.744	24270
832.883	24140
833.022	24140
833.16	24155
833.299	24266
833.437	24224
833.576	24216
833.714	24228
833.852	24273
833.991	24228
834.129	24258
834.267	24281
834.406	24114
834.544	24213
834.682	24205
834.821	24133
834.959	24346
835.097	24129
835.235	24186
835.373	24110
835.511	24117
835.65	24038
835.788	24026
835.926	24064
836.064	23764
836.202	23832
836.34	24034
836.478	24133
836.615	23992
836.753	23973
836.891	24049
837.029	23965
837.167	23935
837.305	23969
837.443	23904
837.58	23828
837.718	23783
837.856	23760
837.993	23897
838.131	23859
838.269	23684
838.406	23745
838.544	23600
838.681	23497
838.819	23520
838.956	23353
839.094	23360
839.231	23493
839.369	23493
839.506	23611
839.643	23414
839.781	23387
839.918	23223
840.055	23349
840.193	23299
840.33	23140
840.467	23330
840.604	23136
840.742	23379
840.879	23060
841.016	23227
841.153	23151
841.29	23299
841.427	23056
841.564	23109
841.701	23124
841.838	23162
841.975	23075
842.112	23136
842.249	22968
842.385	22904
842.522	23090
842.659	22991
842.796	22908
842.933	23018
843.069	22904
843.206	22752
843.343	22991
843.479	22858
843.616	22949
843.752	22687
843.889	22717
844.025	22877
844.162	22733
844.298	22847
844.435	22618
844.571	22653
844.708	22790
844.844	22858
844.98	22729
845.117	22786
845.253	22645
845.389	22588
845.525	22535
845.661	22687
845.798	22481
845.934	22417
846.07	22443
846.206	22538
846.342	22569
846.478	22348
846.614	22211
846.75	22242
846.886	22147
847.022	22253
847.158	22204
847.294	22070
847.429	22143
847.565	22177
847.701	22405
847.837	22013
847.972	21865
848.108	21945
848.244	21994
848.379	21781
848.515	21671
848.65	21713
848.786	21759
848.921	21793
849.057	21880
849.192	21770
849.328	21800
849.463	21720
849.598	21606
849.734	21713
849.869	21599
850.004	21557
850.14	21568
850.275	21454
850.41	21405
850.545	21405
850.68	21507
850.815	21542
850.95	21340
851.085	21614
851.22	21576
851.355	21386
851.49	21405
851.625	21443
851.76	21393
851.895	21355
852.03	21340
852.165	21424
852.299	21545
852.434	21416
852.569	21519
852.703	21386
852.838	21447
852.973	21656
853.107	21511
853.242	21412
853.376	21275
853.511	21287
853.645	21256
853.78	21340
853.914	21237
854.048	21173
854.183	21256
854.317	21336
854.451	21466
854.585	21405
854.72	21184
854.854	21310
854.988	21237
855.122	21313
855.256	21131
855.39	21260
855.524	21264
855.658	21275
855.792	21287
855.926	21439
856.06	21279
856.194	21329
856.327	21321
856.461	21176
856.595	21100
856.729	21218
856.862	21386
856.996	21355
857.13	21249
857.263	21329
857.397	21500
857.53	21249
857.664	21207
857.797	21344
857.931	21378
858.064	21264
858.197	21294
858.331	21252
858.464	21214
858.597	21127
858.731	21135
858.864	21077
858.997	21074
859.13	21283
859.263	21226
859.396	21348
859.529	21131
859.662	21245
859.795	21104
859.928	21310
860.061	21310
860.194	21523
860.327	21332
860.46	21241
860.592	21405
860.725	21355
860.858	21393
860.99	21233
861.123	21108
861.256	21195
861.388	21249
861.521	21808
861.653	21112
861.786	21039
861.918	21077
862.05	21142
862.183	21313
862.315	21169
862.447	21428
862.58	21192
862.712	21062
862.844	20979
862.976	21043
863.108	20971
863.24	21420
863.372	20834
863.504	21005
863.636	20921
863.768	20979
863.9	20960
864.032	20807
864.164	20830
864.296	20982
864.428	21070
864.559	20963
864.691	20899
864.823	20937
864.954	20880
865.086	20804
865.217	20727
865.349	20788
865.48	20731
865.612	20830
865.743	20899
865.875	20872
866.006	20796
866.137	21028
866.269	20819
866.4	20804
866.531	20754
866.662	20743
866.793	20739
866.924	20834
867.055	20750
867.186	20777
867.317	20712
867.448	20629
867.579	20762
867.71	20667
867.841	20625
867.972	20910
868.103	20853
868.233	20701
868.364	20773
868.495	20883
868.625	20963
868.756	21017
868.886	20849
869.017	20963
869.147	21203
869.278	21036
869.408	21074
869.539	20883
869.669	21062
869.799	21146
869.929	21100
870.06	21077
870.19	21260
870.32	21317
870.45	21249
870.58	21389
870.71	21443
870.84	21504
870.97	21332
871.1	21443
871.23	21485
871.36	21603
871.489	21515
871.619	21614
871.749	21667
871.879	21534
872.008	21804
872.138	21667
872.267	21637
872.397	21405
872.526	21340
872.656	21507
872.785	21447
872.915	21724
873.044	21667
873.173	21587
873.303	21622
873.432	21625
873.561	21682
873.69	21728
873.819	21576
873.948	21698
874.077	21663
874.206	21606
874.335	21580
874.464	21739
874.593	21770
874.722	21903
874.851	21835
874.979	21888
875.108	21922
875.237	21873
875.365	21709
875.494	21873
875.623	21934
875.751	21873
875.88	21930
876.008	21979
876.136	21987
876.265	22226
876.393	22333
876.521	22200
876.65	22249
876.778	22310
876.906	22272
877.034	22105
877.162	22299
877.29	22226
877.418	22261
877.546	22261
877.674	22238
877.802	22147
877.93	22181
878.058	22143
878.185	22006
878.313	22238
878.441	22158
878.568	22055
878.696	22131
878.824	22261
878.951	22348
879.079	22356
879.206	22497
879.333	22402
879.461	22253
879.588	22318
879.715	22276
879.842	22447
879.97	22284
880.097	22093
880.224	21895
880.351	22048
880.478	21979
880.605	22093
880.732	21994
880.859	22223
880.986	22063
881.112	22059
881.239	21781
881.366	21728
881.493	21648
881.619	21595
881.746	21572
881.872	21542
881.999	21622
882.125	21606
882.252	21663
882.378	21561
882.505	21759
882.631	21397
882.757	21420
882.883	21412
883.01	21367
883.136	21279
883.262	21188
883.388	21112
883.514	21321
883.64	21321
883.766	21173
883.892	21066
884.018	21089
884.143	21287
884.269	21340
884.395	21161
884.52	20971
884.646	21093
884.772	20864
884.897	20826
885.023	20887
885.148	21005
885.274	21066
885.399	21081
885.524	20899
885.65	21017
885.775	20982
885.9	20937
886.025	21081
886.15	20956
886.275	20902
886.4	20804
886.525	20815
886.65	20845
886.775	20906
886.9	21013
887.025	21032
887.149	20906
887.274	20590
887.399	20632
887.523	20727
887.648	20765
887.773	20579
887.897	20838
888.021	20731
888.146	20655
888.27	20819
888.395	20785
888.519	20746
888.643	20670
888.767	20781
888.891	20644
889.015	20511
889.139	20476
889.263	20377
889.387	20640
889.511	20746
889.635	20598
889.759	20385
889.883	20511
890.006	20461
890.13	20522
890.254	20366
890.377	20370
890.501	20115
890.624	20271
890.748	20298
890.871	20126
890.995	20065
891.118	20084
891.241	20088
891.364	20005
891.488	20221
891.611	20077
891.734	20024
891.857	20145
891.98	19906
892.103	20119
892.226	19989
892.349	19997
892.471	19841
892.594	20001
892.717	20122
892.839	19997
892.962	19932
893.085	20069
893.207	19944
893.33	19936
893.452	19913
893.575	20027
893.697	19967
893.819	20164
893.941	20134
894.064	20031
894.186	19902
894.308	19898
894.43	20088
894.552	20168
894.674	20069
894.796	19898
894.918	19982
895.04	20073
895.161	19982
895.283	19951
895.405	19875
895.526	19917
895.648	19875
895.769	19936
895.891	20012
896.012	19993
896.134	20020
896.255	19894
896.376	19955
896.498	19959
896.619	19989
896.74	19963
896.861	20065
896.982	20290
897.103	20457
897.224	20408
897.345	20237
897.466	20214
897.587	20210
897.708	20301
897.828	20180
897.949	20111
898.07	20035
898.19	20218
898.311	20256
898.431	20077
898.552	20153
898.672	20263
898.792	20248
898.913	20195
899.033	20084
899.153	20016
899.273	19906
899.393	19940
899.513	19955
899.633	19807
899.753	19833
899.873	19951
899.993	19875
900.113	19849
900.232	19784
900.352	19742
900.472	19841
900.591	19582
900.711	19696
900.83	19693
900.95	19883
901.069	19666
901.189	19590
901.308	19339
901.427	19255
901.546	19335
901.665	19346
901.784	19426
901.904	18970
902.023	19031
902.141	18829
902.26	18764
902.379	18783
902.498	18795
902.617	18669
902.735	18886
902.854	18741
902.973	18570
903.091	18464
903.21	18475
903.328	18395
903.446	18357
903.565	18323
903.683	18235
903.801	18038
903.919	18323
904.038	18273
904.156	17988
904.274	18201
904.392	17931
904.51	17980
904.627	17965
904.745	18053
904.863	18079
904.981	17752
905.098	17805
905.216	17661
905.334	17752
905.451	17646
905.569	17604
905.686	17668
905.803	17695
905.921	17520
906.038	17596
906.155	17551
906.272	17383
906.389	17436
906.506	17239
906.623	17292
906.74	17235
906.857	17067
906.974	17105
907.091	17265
907.208	17376
907.324	17227
907.441	17147
907.557	16980
907.674	16980
907.79	16976
907.907	16904
908.023	16965
908.139	16873
908.256	16858
908.372	16828
908.488	16759
908.604	16763
908.72	16615
908.836	16744
908.952	16698
909.068	16634
909.184	16786
909.3	16626
909.415	16538
909.531	16710
909.647	16390
909.762	16344
909.878	16325
909.993	16409
910.108	16344
910.224	16226
910.339	16371
910.454	16150
910.57	16154
910.685	16017
910.8	16344
910.915	16287
911.03	16166
911.145	15941
911.259	15987
911.374	15888
911.489	15873
911.604	15819
911.718	15660
911.833	15633
911.947	15515
912.062	15485
912.176	15709
912.291	15629
912.405	15656
912.519	15884
912.633	15823
912.748	15728
912.862	15660
912.976	15564
913.09	15382
913.204	15344
913.318	15412
913.431	15515
913.545	15648
913.659	15660
913.772	15424
913.886	15348
914	15313
914.113	15363
914.226	15481
914.34	15317
914.453	15173
914.566	15233
914.68	15135
914.793	15131
914.906	15009
915.019	14914
915.132	14883
915.245	14895
915.358	15009
915.47	15005
915.583	14857
915.696	14948
915.809	14941
915.921	14948
916.034	14800
916.146	14834
916.259	14754
916.371	14868
916.483	14963
916.595	14701
916.708	14788
916.82	14629
916.932	14640
917.044	14667
917.156	14667
917.268	14587
917.38	14587
917.491	14488
917.603	14598
917.715	14617
917.826	14632
917.938	14541
918.049	14370
918.161	14560
918.272	14651
918.384	14667
918.495	14590
918.606	14358
918.717	14210
918.828	14362
918.939	14366
919.05	14286
919.161	14271
919.272	14103
919.383	14225
919.494	14404
919.604	14476
919.715	14400
919.826	14149
919.936	14339
920.047	14320
920.157	14317
920.267	14339
920.378	14244
920.488	14191
920.598	14415
920.708	14503
920.818	14381
920.928	14434
921.038	14526
921.148	14499
921.258	14309
921.368	14134
921.477	14024
921.587	14054
921.697	13868
921.806	14062
921.916	13883
922.025	13708
922.134	13674
922.244	13613
922.353	13643
922.462	13529
922.571	13422
922.68	13278
922.789	13297
922.898	13324
923.007	13209
923.116	13285
923.224	13285
923.333	13217
923.442	13164
923.55	13057
923.659	13137
923.767	13190
923.876	13050
923.984	13217
924.092	13019
924.201	13133
924.309	13061
924.417	12996
924.525	13050
924.633	13042
924.741	13757
924.849	12867
924.956	12943
925.064	12817
925.172	12730
925.279	12757
925.387	12684
925.494	12730
925.602	12802
925.709	12734
925.816	12574
925.924	12707
926.031	12711
926.138	12700
926.245	12700
926.352	12582
926.459	12715
926.566	12779
926.673	12616
926.779	12612
926.886	12380
926.993	12350
927.099	12243
927.206	12254
927.312	12205
927.419	12300
927.525	12247
927.631	12273
927.737	12155
927.843	12155
927.95	12030
928.056	12121
928.162	12102
928.267	12148
928.373	12658
928.479	12197
928.585	11992
928.69	12068
928.796	12148
928.901	11988
929.007	11809
929.112	11942
929.218	11965
929.323	11859
929.428	11920
929.533	11923
929.638	11756
929.743	11767
929.848	11855
929.953	11809
930.058	11604
930.163	11592
930.267	11570
930.372	11710
930.477	11551
930.581	11756
930.685	11600
930.79	11433
930.894	11425
930.998	11372
931.103	11570
931.207	11124
931.311	11204
931.415	11140
931.519	10892
931.623	10797
