Data from test_V78500241_2447.txt Node
Date: Fri Mar 25 15:26:53 CST 2022
User: usil
Spectrometer: V785-0024
Trigger mode: 0
Integration Time (sec): 4.000000E-1
Scans to average: 1
Nonlinearity correction enabled: false
Boxcar width: 0
Storing dark spectrum: false
XAxis mode: Wavelengths
Number of Pixels in Spectrum: 1024
>>>>>Begin Spectral Data<<<<<
801.071	27081
801.214	27009
801.356	26785
801.499	26758
801.641	26807
801.783	26632
801.926	26598
802.068	26549
802.211	26522
802.353	26575
802.496	26298
802.638	26374
802.78	26240
802.923	26191
803.065	26084
803.208	26119
803.35	26400
803.492	26317
803.635	26442
803.777	26278
803.919	26457
804.061	26739
804.204	26438
804.346	26442
804.488	26263
804.63	26347
804.773	26377
804.915	26385
805.057	26332
805.199	26377
805.341	26473
805.483	26636
805.626	26522
805.768	26370
805.91	26461
806.052	26511
806.194	26495
806.336	26651
806.478	26415
806.62	26450
806.762	26632
806.904	26746
807.046	26967
807.188	26857
807.33	26960
807.472	26963
807.614	26842
807.756	26914
807.898	26625
808.04	26617
808.182	26564
808.324	26880
808.465	26701
808.607	26971
808.749	27146
808.891	27188
809.033	27218
809.174	27207
809.316	27001
809.458	27024
809.6	27104
809.741	27237
809.883	27104
810.025	27420
810.166	27370
810.308	27294
810.45	27279
810.591	27298
810.733	27051
810.875	26971
811.016	27001
811.158	26845
811.299	27032
811.441	26914
811.582	27382
811.724	27081
811.865	27005
812.007	27020
812.148	27058
812.29	27116
812.431	27226
812.573	27382
812.714	27359
812.855	27466
812.997	27633
813.138	27686
813.279	27625
813.421	27648
813.562	27450
813.703	27325
813.845	27233
813.986	26864
814.127	26830
814.268	26571
814.41	26773
814.551	26674
814.692	26819
814.833	26636
814.974	26716
815.115	26746
815.256	26587
815.397	26651
815.539	26514
815.68	26651
815.821	26370
815.962	26636
816.103	26575
816.244	26282
816.385	26336
816.526	26149
816.666	26069
816.807	25944
816.948	26027
817.089	26100
817.23	26050
817.371	25982
817.512	25955
817.653	25841
817.793	25932
817.934	25932
818.075	25902
818.216	26096
818.356	25921
818.497	25830
818.638	25731
818.778	25639
818.919	25765
819.06	25757
819.2	25902
819.341	25997
819.481	25944
819.622	26012
819.762	26267
819.903	26240
820.043	26008
820.184	26050
820.324	26122
820.465	26218
820.605	26024
820.746	26027
820.886	26001
821.026	25833
821.167	25974
821.307	26058
821.447	25902
821.588	25909
821.728	25814
821.868	25563
822.008	25483
822.149	25518
822.289	25445
822.429	25118
822.569	25160
822.709	25126
822.849	24814
822.99	24882
823.13	24932
823.27	24856
823.41	24837
823.55	24684
823.69	24810
823.83	24776
823.97	24677
824.11	24570
824.25	24509
824.389	24467
824.529	24650
824.669	24703
824.809	24635
824.949	24692
825.089	24631
825.228	24669
825.368	24403
825.508	24426
825.648	24467
825.787	24426
825.927	24433
826.067	24353
826.206	24433
826.346	24395
826.485	24551
826.625	24361
826.765	24597
826.904	24369
827.044	24201
827.183	24262
827.323	24087
827.462	24285
827.601	24106
827.741	24121
827.88	24129
828.02	24148
828.159	24152
828.298	24148
828.437	24388
828.577	24114
828.716	24308
828.855	24083
828.994	23904
829.134	23687
829.273	23733
829.412	23745
829.551	23901
829.69	23832
829.829	23901
829.968	24041
830.107	23927
830.246	23904
830.385	23908
830.524	23760
830.663	23764
830.802	23630
830.941	23402
831.08	23322
831.219	23566
831.357	23414
831.496	23699
831.635	23467
831.774	23414
831.913	23216
832.051	23376
832.19	23284
832.329	23185
832.467	23147
832.606	23044
832.744	23121
832.883	23220
833.022	22995
833.16	23132
833.299	23246
833.437	23162
833.576	23239
833.714	23220
833.852	23326
833.991	23277
834.129	23261
834.267	23254
834.406	23227
834.544	23315
834.682	23151
834.821	23151
834.959	23425
835.097	23212
835.235	23223
835.373	23128
835.511	23242
835.65	23018
835.788	23022
835.926	22953
836.064	22938
836.202	22858
836.34	23079
836.478	23200
836.615	23075
836.753	23124
836.891	22984
837.029	23105
837.167	23094
837.305	22911
837.443	22843
837.58	22900
837.718	22930
837.856	23060
837.993	22911
838.131	22881
838.269	22767
838.406	22904
838.544	22801
838.681	22561
838.819	22565
838.956	22436
839.094	22421
839.231	22402
839.369	22618
839.506	22801
839.643	22679
839.781	22379
839.918	22333
840.055	22360
840.193	22303
840.33	22257
840.467	22318
840.604	22382
840.742	22596
840.879	22154
841.016	22234
841.153	22185
841.29	22341
841.427	22310
841.564	22318
841.701	22253
841.838	22436
841.975	22200
842.112	22230
842.249	22124
842.385	22017
842.522	22367
842.659	22169
842.796	22059
842.933	22086
843.069	22044
843.206	21960
843.343	22128
843.479	22006
843.616	22116
843.752	21876
843.889	21987
844.025	21941
844.162	21766
844.298	21983
844.435	21789
844.571	21789
844.708	21937
844.844	22055
844.98	21926
845.117	22032
845.253	21762
845.389	21797
845.525	21751
845.661	21663
845.798	21545
845.934	21587
846.07	21682
846.206	21618
846.342	21778
846.478	21526
846.614	21287
846.75	21336
846.886	21348
847.022	21249
847.158	21302
847.294	21340
847.429	21351
847.565	21287
847.701	21401
847.837	21100
847.972	21032
848.108	21306
848.244	21199
848.379	20937
848.515	20975
848.65	20880
848.786	20899
848.921	20861
849.057	21013
849.192	21074
849.328	20956
849.463	21009
849.598	20925
849.734	20963
849.869	20823
850.004	20625
850.14	20720
850.275	20819
850.41	20632
850.545	20594
850.68	20724
850.815	20682
850.95	20689
851.085	20944
851.22	20899
851.355	20819
851.49	20739
851.625	20648
851.76	20655
851.895	20632
852.03	20632
852.165	20731
852.299	20769
852.434	20804
852.569	20743
852.703	20632
852.838	20762
852.973	20777
853.107	20842
853.242	20659
853.376	20488
853.511	20450
853.645	20507
853.78	20602
853.914	20556
854.048	20495
854.183	20560
854.317	20549
854.451	20602
854.585	20545
854.72	20511
854.854	20564
854.988	20396
855.122	20518
855.256	20412
855.39	20522
855.524	20575
855.658	20549
855.792	20442
855.926	20461
856.06	20606
856.194	20613
856.327	20514
856.461	20499
856.595	20408
856.729	20552
856.862	20670
856.996	20602
857.13	20511
857.263	20686
857.397	20602
857.53	20503
857.664	20583
857.797	20621
857.931	20663
858.064	20693
858.197	20629
858.331	20564
858.464	20537
858.597	20499
858.731	20480
858.864	20454
858.997	20526
859.13	20480
859.263	20594
859.396	20648
859.529	20495
859.662	20488
859.795	20473
859.928	20545
860.061	20655
860.194	20651
860.327	20606
860.46	20609
860.592	20590
860.725	20644
860.858	20511
860.99	20514
861.123	20419
861.256	20408
861.388	20625
861.521	21074
861.653	20457
861.786	20393
861.918	20282
862.05	20480
862.183	20492
862.315	20457
862.447	20503
862.58	20381
862.712	20210
862.844	20214
862.976	20309
863.108	20290
863.24	20564
863.372	20229
863.504	20206
863.636	20244
863.768	20298
863.9	20233
864.032	20138
864.164	20195
864.296	20218
864.428	20347
864.559	20332
864.691	20259
864.823	20164
864.954	20229
865.086	20252
865.217	20248
865.349	20202
865.48	20164
865.612	20195
865.743	20256
865.875	20168
866.006	20103
866.137	20168
866.269	20130
866.4	20157
866.531	20176
866.662	20024
866.793	20065
866.924	20054
867.055	20084
867.186	20149
867.317	20001
867.448	20077
867.579	20153
867.71	19967
867.841	20008
867.972	20081
868.103	20157
868.233	20062
868.364	20187
868.495	20214
868.625	20286
868.756	20484
868.886	20218
869.017	20465
869.147	20450
869.278	20446
869.408	20324
869.539	20263
869.669	20431
869.799	20495
869.929	20533
870.06	20499
870.19	20712
870.32	20590
870.45	20579
870.58	20754
870.71	20777
870.84	20834
870.97	20655
871.1	20785
871.23	21028
871.36	20868
871.489	20830
871.619	20941
871.749	20994
871.879	21001
872.008	20986
872.138	20944
872.267	20975
872.397	20956
872.526	20720
872.656	20906
872.785	20754
872.915	20902
873.044	21077
873.173	21081
873.303	20982
873.432	20994
873.561	21085
873.69	21013
873.819	20979
873.948	20975
874.077	20994
874.206	20902
874.335	20994
874.464	21005
874.593	21268
874.722	21131
874.851	21245
874.979	21272
875.108	21184
875.237	21226
875.365	21066
875.494	21024
875.623	21249
875.751	21116
875.88	21157
876.008	21310
876.136	21439
876.265	21629
876.393	21713
876.521	21648
876.65	21679
876.778	21511
876.906	21583
877.034	21519
877.162	21580
877.29	21488
877.418	21595
877.546	21538
877.674	21637
877.802	21641
877.93	21549
878.058	21507
878.185	21583
878.313	21534
878.441	21534
878.568	21359
878.696	21481
878.824	21648
878.951	21652
879.079	21747
879.206	21873
879.333	21785
879.461	21526
879.588	21629
879.715	21739
879.842	21854
879.97	21553
880.097	21443
880.224	21485
880.351	21443
880.478	21515
880.605	21298
880.732	21405
880.859	21667
880.986	21348
881.112	21393
881.239	21237
881.366	21180
881.493	21070
881.619	20910
881.746	21028
881.872	21005
881.999	20902
882.125	20872
882.252	20982
882.378	20956
882.505	21055
882.631	20804
882.757	20670
882.883	20777
883.01	20769
883.136	20629
883.262	20461
883.388	20552
883.514	20739
883.64	20708
883.766	20629
883.892	20495
884.018	20457
884.143	20594
884.269	20659
884.395	20404
884.52	20275
884.646	20298
884.772	20225
884.897	20244
885.023	20419
885.148	20423
885.274	20617
885.399	20450
885.524	20377
885.65	20400
885.775	20294
885.9	20187
886.025	20396
886.15	20324
886.275	20218
886.4	20199
886.525	20298
886.65	20221
886.775	20195
886.9	20412
887.025	20549
887.149	20275
887.274	20240
887.399	20214
887.523	20073
887.648	20039
887.773	20020
887.897	20210
888.021	20172
888.146	20240
888.27	20195
888.395	20229
888.519	20180
888.643	20050
888.767	20008
888.891	20115
889.015	19978
889.139	19982
889.263	19921
889.387	20096
889.511	20210
889.635	20130
889.759	19845
889.883	20016
890.006	19906
890.13	20069
890.254	19738
890.377	19746
890.501	19727
890.624	19677
890.748	19704
890.871	19635
890.995	19506
891.118	19480
891.241	19571
891.364	19567
891.488	19635
891.611	19453
891.734	19514
891.857	19597
891.98	19487
892.103	19559
892.226	19540
892.349	19457
892.471	19225
892.594	19373
892.717	19350
892.839	19365
892.962	19369
893.085	19529
893.207	19346
893.33	19244
893.452	19228
893.575	19491
893.697	19365
893.819	19647
893.941	19624
894.064	19658
894.186	19430
894.308	19396
894.43	19480
894.552	19426
894.674	19521
894.796	19388
894.918	19255
895.04	19327
895.161	19407
895.283	19495
895.405	19278
895.526	19316
895.648	19430
895.769	19415
895.891	19529
896.012	19434
896.134	19502
896.255	19419
896.376	19350
896.498	19468
896.619	19449
896.74	19422
896.861	19537
896.982	19791
897.103	19761
897.224	19715
897.345	19578
897.466	19674
897.587	19704
897.708	19742
897.828	19639
897.949	19605
898.07	19491
898.19	19594
898.311	19788
898.431	19476
898.552	19757
898.672	19765
898.792	19731
898.913	19658
899.033	19635
899.153	19616
899.273	19335
899.393	19388
899.513	19449
899.633	19304
899.753	19449
899.873	19297
899.993	19480
900.113	19225
900.232	19460
900.352	19251
900.472	19255
900.591	19141
900.711	19244
900.83	19202
900.95	19236
901.069	19206
901.189	19122
901.308	18779
901.427	18730
901.546	18783
901.665	18810
901.784	18852
901.904	18650
902.023	18665
902.141	18414
902.26	18304
902.379	18384
902.498	18270
902.617	18292
902.735	18490
902.854	18270
902.973	18334
903.091	17946
903.21	18060
903.328	17908
903.446	17863
903.565	17878
903.683	17741
903.801	17661
903.919	17805
904.038	17733
904.156	17699
904.274	17642
904.392	17573
904.51	17600
904.627	17539
904.745	17497
904.863	17672
904.981	17318
905.098	17288
905.216	17239
905.334	17292
905.451	17277
905.569	17239
905.686	17227
905.803	17246
905.921	16999
906.038	17083
906.155	16953
906.272	16968
906.389	16995
906.506	16767
906.623	16843
906.74	16839
906.857	16736
906.974	16748
907.091	16892
907.208	16946
907.324	16828
907.441	16710
907.557	16596
907.674	16546
907.79	16573
907.907	16462
908.023	16550
908.139	16565
908.256	16367
908.372	16443
908.488	16447
908.604	16322
908.72	16124
908.836	16356
908.952	16154
909.068	16238
909.184	16295
909.3	16272
909.415	16284
909.531	16211
909.647	15926
909.762	15953
909.878	15937
909.993	15899
910.108	15899
910.224	15819
910.339	15949
910.454	15778
910.57	15675
910.685	15534
910.8	16025
910.915	15987
911.03	15701
911.145	15641
911.259	15488
911.374	15576
911.489	15561
911.604	15405
911.718	15329
911.833	15363
911.947	15127
912.062	15135
912.176	15424
912.291	15256
912.405	15268
912.519	15450
912.633	15386
912.748	15325
912.862	15252
912.976	15279
913.09	15017
913.204	15112
913.318	15119
913.431	15237
913.545	15241
913.659	15245
913.772	15028
913.886	14990
914	15005
914.113	14941
914.226	15024
914.34	15028
914.453	14823
914.566	15009
914.68	14777
914.793	14891
914.906	14568
915.019	14571
915.132	14488
915.245	14533
915.358	14587
915.47	14571
915.583	14537
915.696	14575
915.809	14602
915.921	14724
916.034	14495
916.146	14450
916.259	14381
916.371	14598
916.483	14648
916.595	14484
916.708	14381
916.82	14431
916.932	14377
917.044	14389
917.156	14362
917.268	14229
917.38	14278
917.491	14240
917.603	14240
917.715	14362
917.826	14377
917.938	14233
918.049	14046
918.161	14218
918.272	14305
918.384	14290
918.495	14183
918.606	14027
918.717	13986
918.828	14161
918.939	13928
919.05	13913
919.161	13951
919.272	13841
919.383	13875
919.494	13986
919.604	14172
919.715	13932
919.826	13944
919.936	13932
920.047	14012
920.157	14062
920.267	14103
920.378	14005
920.488	13982
920.598	14199
920.708	14317
920.818	14077
920.928	14103
921.038	14237
921.148	14225
921.258	13917
921.368	13814
921.477	13719
921.587	13681
921.697	13639
921.806	13689
921.916	13597
922.025	13411
922.134	13438
922.244	13419
922.353	13415
922.462	13168
922.571	13129
922.68	13031
922.789	13080
922.898	13050
923.007	12970
923.116	12996
923.224	12996
923.333	13012
923.442	12924
923.55	12730
923.659	12867
923.767	12916
923.876	12810
923.984	12928
924.092	12646
924.201	12825
924.309	12741
924.417	12829
924.525	12745
924.633	12795
924.741	13674
924.849	12483
924.956	12616
925.064	12414
925.172	12479
925.279	12502
925.387	12506
925.494	12517
925.602	12589
925.709	12471
925.816	12384
925.924	12418
926.031	12521
926.138	12334
926.245	12483
926.352	12319
926.459	12536
926.566	12471
926.673	12342
926.779	12213
926.886	12205
926.993	12095
927.099	12095
927.206	12003
927.312	12057
927.419	12079
927.525	12015
927.631	12148
927.737	11874
927.843	11927
927.95	11836
928.056	11843
928.162	11908
928.267	11965
928.373	12521
928.479	11908
928.585	11710
928.69	11828
928.796	11863
928.901	11779
929.007	11566
929.112	11817
929.218	11741
929.323	11665
929.428	11611
929.533	11798
929.638	11528
929.743	11657
929.848	11638
929.953	11547
930.058	11501
930.163	11284
930.267	11299
930.372	11421
930.477	11220
930.581	11490
930.685	11376
930.79	11231
930.894	11155
930.998	11239
931.103	11387
931.207	11022
931.311	10927
931.415	10801
931.519	10580
931.623	10542
