Data from test_V78500241_1056.txt Node
Date: Fri Mar 25 15:17:12 CST 2022
User: usil
Spectrometer: V785-0024
Trigger mode: 0
Integration Time (sec): 4.000000E-1
Scans to average: 1
Nonlinearity correction enabled: false
Boxcar width: 0
Storing dark spectrum: false
XAxis mode: Wavelengths
Number of Pixels in Spectrum: 1024
>>>>>Begin Spectral Data<<<<<
801.071	28032
801.214	28040
801.356	27873
801.499	27793
801.641	27488
801.783	27656
801.926	27713
802.068	27682
802.211	27656
802.353	27485
802.496	27382
802.638	27408
802.78	27435
802.923	27332
803.065	27245
803.208	27241
803.35	27222
803.492	27389
803.635	27599
803.777	27511
803.919	27515
804.061	27720
804.204	27443
804.346	27393
804.488	27374
804.63	27583
804.773	27447
804.915	27599
805.057	27652
805.199	27553
805.341	27641
805.483	27679
805.626	27660
805.768	27450
805.91	27682
806.052	27652
806.194	27568
806.336	27739
806.478	27762
806.62	27690
806.762	27797
806.904	28097
807.046	28200
807.188	28029
807.33	27857
807.472	28086
807.614	28006
807.756	27983
807.898	28082
808.04	27918
808.182	27914
808.324	27895
808.465	27994
808.607	28207
808.749	28333
808.891	28428
809.033	28413
809.174	28363
809.316	28325
809.458	28401
809.6	28249
809.741	28535
809.883	28424
810.025	28672
810.166	28546
810.308	28683
810.45	28470
810.591	28546
810.733	28386
810.875	28314
811.016	28280
811.158	28150
811.299	28363
811.441	28356
811.582	28485
811.724	28341
811.865	28478
812.007	28314
812.148	28371
812.29	28207
812.431	28542
812.573	28767
812.714	28706
812.855	28786
812.997	28987
813.138	29113
813.279	28999
813.421	28938
813.562	28793
813.703	28721
813.845	28577
813.986	28253
814.127	28143
814.268	28021
814.41	28040
814.551	28070
814.692	28074
814.833	27960
814.974	27937
815.115	27998
815.256	28006
815.397	27911
815.539	27880
815.68	27873
815.821	27709
815.962	27914
816.103	27873
816.244	27808
816.385	27667
816.526	27583
816.666	27469
816.807	27249
816.948	27382
817.089	27488
817.23	27344
817.371	27302
817.512	27302
817.653	27214
817.793	27344
817.934	27363
818.075	27336
818.216	27405
818.356	27298
818.497	27256
818.638	27138
818.778	27093
818.919	27245
819.06	27351
819.2	27336
819.341	27378
819.481	27249
819.622	27458
819.762	27603
819.903	27603
820.043	27606
820.184	27553
820.324	27427
820.465	27500
820.605	27530
820.746	27458
820.886	27313
821.026	27557
821.167	27317
821.307	27523
821.447	27344
821.588	27313
821.728	27093
821.868	26929
822.008	26807
822.149	26777
822.289	26823
822.429	26511
822.569	26431
822.709	26545
822.849	26328
822.99	26332
823.13	26263
823.27	26161
823.41	26115
823.55	26024
823.69	26206
823.83	26244
823.97	26164
824.11	25932
824.25	25906
824.389	26046
824.529	26092
824.669	25989
824.809	26225
824.949	26183
825.089	26176
825.228	26100
825.368	25776
825.508	25826
825.648	25875
825.787	25966
825.927	25966
826.067	25894
826.206	25738
826.346	25761
826.485	25913
826.625	25719
826.765	25966
826.904	25970
827.044	25605
827.183	25719
827.323	25518
827.462	25635
827.601	25479
827.741	25666
827.88	25635
828.02	25506
828.159	25476
828.298	25662
828.437	25616
828.577	25537
828.716	25597
828.855	25464
828.994	25301
829.134	25282
829.273	25381
829.412	25209
829.551	25175
829.69	25263
829.829	25362
829.968	25426
830.107	25301
830.246	25479
830.385	25236
830.524	25133
830.663	25141
830.802	24989
830.941	24878
831.08	25000
831.219	25012
831.357	24897
831.496	25050
831.635	24901
831.774	24844
831.913	24810
832.051	24745
832.19	24703
832.329	24787
832.467	24692
832.606	24547
832.744	24490
832.883	24639
833.022	24585
833.16	24566
833.299	24661
833.437	24707
833.576	24570
833.714	24650
833.852	24715
833.991	24897
834.129	24772
834.267	24681
834.406	24650
834.544	24665
834.682	24604
834.821	24574
834.959	24753
835.097	24715
835.235	24840
835.373	24684
835.511	24525
835.65	24448
835.788	24532
835.926	24384
836.064	24452
836.202	24251
836.34	24437
836.478	24498
836.615	24490
836.753	24566
836.891	24570
837.029	24585
837.167	24456
837.305	24441
837.443	24327
837.58	24395
837.718	24490
837.856	24452
837.993	24289
838.131	24330
838.269	24228
838.406	24205
838.544	24087
838.681	23999
838.819	23961
838.956	23920
839.094	23775
839.231	23786
839.369	23870
839.506	24285
839.643	24011
839.781	23783
839.918	23824
840.055	23798
840.193	23771
840.33	23661
840.467	23847
840.604	23783
840.742	23996
840.879	23619
841.016	23642
841.153	23649
841.29	23885
841.427	23707
841.564	23790
841.701	23638
841.838	23676
841.975	23509
842.112	23566
842.249	23528
842.385	23448
842.522	23741
842.659	23657
842.796	23398
842.933	23543
843.069	23368
843.206	23463
843.343	23387
843.479	23528
843.616	23577
843.752	23277
843.889	23227
844.025	23436
844.162	23189
844.298	23497
844.435	23231
844.571	23261
844.708	23250
844.844	23448
844.98	23433
845.117	23311
845.253	23242
845.389	23124
845.525	23258
845.661	23181
845.798	23025
845.934	23109
846.07	22930
846.206	23067
846.342	23216
846.478	23052
846.614	22801
846.75	22698
846.886	22637
847.022	22790
847.158	22809
847.294	22748
847.429	22752
847.565	22713
847.701	23022
847.837	22360
847.972	22500
848.108	22459
848.244	22542
848.379	22409
848.515	22284
848.65	22280
848.786	22363
848.921	22356
849.057	22390
849.192	22405
849.328	22363
849.463	22413
849.598	22360
849.734	22207
849.869	22097
850.004	22010
850.14	22139
850.275	22158
850.41	22112
850.545	21987
850.68	22059
850.815	22090
850.95	22166
851.085	22234
851.22	22211
851.355	22105
851.49	22044
851.625	22082
851.76	22032
851.895	21911
852.03	21968
852.165	21972
852.299	22032
852.434	22078
852.569	22112
852.703	22131
852.838	22215
852.973	22234
853.107	22226
853.242	22059
853.376	21892
853.511	21743
853.645	21831
853.78	21937
853.914	21831
854.048	21804
854.183	21823
854.317	22006
854.451	22048
854.585	21865
854.72	21854
854.854	21892
854.988	21736
855.122	21918
855.256	21884
855.39	21949
855.524	21926
855.658	21823
855.792	21884
855.926	21838
856.06	21846
856.194	21941
856.327	21941
856.461	21827
856.595	21762
856.729	21926
856.862	22002
856.996	21850
857.13	21937
857.263	21979
857.397	21941
857.53	21781
857.664	21922
857.797	21941
857.931	21911
858.064	21934
858.197	21907
858.331	21808
858.464	21861
858.597	21819
858.731	21816
858.864	21865
858.997	21751
859.13	21880
859.263	21857
859.396	22032
859.529	21926
859.662	21937
859.795	21713
859.928	21884
860.061	22002
860.194	21972
860.327	21884
860.46	21895
860.592	22105
860.725	22040
860.858	22032
860.99	21838
861.123	21751
861.256	21892
861.388	21918
861.521	22626
861.653	21975
861.786	21606
861.918	21690
862.05	21812
862.183	21789
862.315	21838
862.447	21823
862.58	21743
862.712	21599
862.844	21504
862.976	21663
863.108	21694
863.24	21953
863.372	21526
863.504	21637
863.636	21603
863.768	21572
863.9	21545
864.032	21530
864.164	21542
864.296	21519
864.428	21713
864.559	21717
864.691	21739
864.823	21622
864.954	21622
865.086	21595
865.217	21538
865.349	21428
865.48	21439
865.612	21576
865.743	21625
865.875	21469
866.006	21500
866.137	21477
866.269	21496
866.4	21458
866.531	21420
866.662	21412
866.793	21374
866.924	21351
867.055	21431
867.186	21553
867.317	21431
867.448	21363
867.579	21256
867.71	21321
867.841	21230
867.972	21492
868.103	21408
868.233	21363
868.364	21454
868.495	21481
868.625	21652
868.756	21679
868.886	21553
869.017	21698
869.147	21675
869.278	21785
869.408	21610
869.539	21606
869.669	21679
869.799	21713
869.929	21880
870.06	21888
870.19	21888
870.32	22070
870.45	22051
870.58	21994
870.71	22215
870.84	22211
870.97	22093
871.1	21960
871.23	22238
871.36	22348
871.489	22139
871.619	22249
871.749	22196
871.879	22249
872.008	22417
872.138	22284
872.267	22230
872.397	22101
872.526	22109
872.656	22169
872.785	22002
872.915	22230
873.044	22413
873.173	22360
873.303	22268
873.432	22375
873.561	22451
873.69	22291
873.819	22162
873.948	22363
874.077	22459
874.206	22211
874.335	22219
874.464	22329
874.593	22577
874.722	22257
874.851	22660
874.979	22447
875.108	22519
875.237	22531
875.365	22344
875.494	22512
875.623	22656
875.751	22424
875.88	22622
876.008	22641
876.136	22630
876.265	22984
876.393	22999
876.521	22949
876.65	22919
876.778	22953
876.906	22847
877.034	22831
877.162	22923
877.29	22710
877.418	22843
877.546	22850
877.674	22828
877.802	22778
877.93	22725
878.058	22694
878.185	22805
878.313	22767
878.441	22771
878.568	22656
878.696	22782
878.824	22900
878.951	22968
879.079	22999
879.206	23132
879.333	22995
879.461	22786
879.588	22942
879.715	23052
879.842	23022
879.97	22938
880.097	22710
880.224	22691
880.351	22672
880.478	22702
880.605	22713
880.732	22630
880.859	22885
880.986	22664
881.112	22641
881.239	22413
881.366	22333
881.493	22196
881.619	22265
881.746	22147
881.872	22055
881.999	22211
882.125	22169
882.252	22276
882.378	22234
882.505	22291
882.631	22120
882.757	21895
882.883	21941
883.01	21975
883.136	21930
883.262	21903
883.388	21804
883.514	21953
883.64	21854
883.766	21766
883.892	21667
884.018	21793
884.143	21785
884.269	21937
884.395	21610
884.52	21542
884.646	21561
884.772	21370
884.897	21447
885.023	21561
885.148	21545
885.274	21603
885.399	21591
885.524	21519
885.65	21542
885.775	21564
885.9	21443
886.025	21656
886.15	21599
886.275	21496
886.4	21458
886.525	21485
886.65	21447
886.775	21549
886.9	21599
887.025	21686
887.149	21595
887.274	21336
887.399	21443
887.523	21351
887.648	21313
887.773	21245
887.897	21264
888.021	21374
888.146	21252
888.27	21428
888.395	21443
888.519	21363
888.643	21351
888.767	21260
888.891	21264
889.015	21173
889.139	21058
889.263	21116
889.387	21237
889.511	21249
889.635	21207
889.759	21157
889.883	21150
890.006	21055
890.13	21230
890.254	21032
890.377	21108
890.501	20891
890.624	20724
890.748	20914
890.871	20815
890.995	20606
891.118	20617
891.241	20739
891.364	20598
891.488	20686
891.611	20689
891.734	20754
891.857	20621
891.98	20617
892.103	20716
892.226	20689
892.349	20617
892.471	20404
892.594	20545
892.717	20552
892.839	20549
892.962	20594
893.085	20526
893.207	20587
893.33	20419
893.452	20427
893.575	20670
893.697	20415
893.819	20762
893.941	20659
894.064	20731
894.186	20446
894.308	20488
894.43	20526
894.552	20640
894.674	20609
894.796	20522
894.918	20488
895.04	20545
895.161	20651
895.283	20640
895.405	20400
895.526	20560
895.648	20621
895.769	20560
895.891	20590
896.012	20648
896.134	20705
896.255	20499
896.376	20537
896.498	20613
896.619	20636
896.74	20499
896.861	20686
896.982	20921
897.103	21028
897.224	20891
897.345	20632
897.466	20617
897.587	20826
897.708	20819
897.828	20796
897.949	20689
898.07	20693
898.19	20716
898.311	20758
898.431	20746
898.552	20712
898.672	20731
898.792	20826
898.913	20823
899.033	20670
899.153	20625
899.273	20385
899.393	20511
899.513	20537
899.633	20518
899.753	20465
899.873	20362
899.993	20484
900.113	20339
900.232	20465
900.352	20381
900.472	20244
900.591	20381
900.711	20240
900.83	20218
900.95	20400
901.069	20278
901.189	20214
901.308	19849
901.427	19852
901.546	19879
901.665	19894
901.784	19845
901.904	19651
902.023	19575
902.141	19320
902.26	19320
902.379	19434
902.498	19365
902.617	19339
902.735	19495
902.854	19221
902.973	19346
903.091	19008
903.21	19050
903.328	18958
903.446	18935
903.565	18924
903.683	18935
903.801	18616
903.919	18772
904.038	18802
904.156	18650
904.274	18700
904.392	18490
904.51	18582
904.627	18574
904.745	18521
904.863	18521
904.981	18433
905.098	18201
905.216	18220
905.334	18292
905.451	18159
905.569	18171
905.686	18388
905.803	18254
905.921	18049
906.038	18174
906.155	18019
906.272	17946
906.389	17908
906.506	17882
906.623	17733
906.74	17817
906.857	17748
906.974	17710
907.091	17764
907.208	17813
907.324	17794
907.441	17676
907.557	17512
907.674	17589
907.79	17360
907.907	17349
908.023	17478
908.139	17398
908.256	17455
908.372	17391
908.488	17364
908.604	17231
908.72	17197
908.836	17174
908.952	17132
909.068	17254
909.184	17280
909.3	17284
909.415	17208
909.531	17376
909.647	16930
909.762	16839
909.878	16877
909.993	16866
910.108	16908
910.224	16824
910.339	16869
910.454	16877
910.57	16767
910.685	16717
910.8	16927
910.915	16809
911.03	16698
911.145	16656
911.259	16516
911.374	16504
911.489	16451
911.604	16375
911.718	16257
911.833	16177
911.947	16135
912.062	16013
912.176	16219
912.291	16185
912.405	16158
912.519	16398
912.633	16440
912.748	16287
912.862	16306
912.976	16082
913.09	15937
913.204	16071
913.318	16025
913.431	16177
913.545	16090
913.659	16143
913.772	15983
913.886	15846
914	15789
914.113	15888
914.226	15918
914.34	15956
914.453	15759
914.566	15827
914.68	15800
914.793	15671
914.906	15507
915.019	15519
915.132	15367
915.245	15443
915.358	15416
915.47	15507
915.583	15435
915.696	15549
915.809	15488
915.921	15595
916.034	15382
916.146	15393
916.259	15367
916.371	15397
916.483	15363
916.595	15313
916.708	15146
916.82	15222
916.932	15226
917.044	15272
917.156	15230
917.268	15165
917.38	15089
917.491	15173
917.603	15173
917.715	15218
917.826	15241
917.938	14944
918.049	14944
918.161	14925
918.272	15077
918.384	15081
918.495	15039
918.606	14804
918.717	14796
918.828	14845
918.939	14937
919.05	14727
919.161	14845
919.272	14560
919.383	14762
919.494	14891
919.604	15009
919.715	14811
919.826	14712
919.936	14712
920.047	14773
920.157	14826
920.267	14975
920.378	14838
920.488	14811
920.598	14937
920.708	15100
920.818	14853
920.928	14902
921.038	15108
921.148	15017
921.258	14746
921.368	14689
921.477	14575
921.587	14530
921.697	14419
921.806	14583
921.916	14415
922.025	14286
922.134	14145
922.244	14161
922.353	14054
922.462	14008
922.571	14008
922.68	13868
922.789	13807
922.898	13719
923.007	13738
923.116	13894
923.224	13734
923.333	13605
923.442	13696
923.55	13540
923.659	13620
923.767	13700
923.876	13529
923.984	13632
924.092	13537
924.201	13502
924.309	13476
924.417	13476
924.525	13365
924.633	13537
924.741	14457
924.849	13209
924.956	13301
925.064	13297
925.172	13168
925.279	13221
925.387	13255
925.494	13198
925.602	13335
925.709	13247
925.816	13114
925.924	13110
926.031	13236
926.138	13095
926.245	13198
926.352	13091
926.459	13232
926.566	13263
926.673	13141
926.779	12905
926.886	12939
926.993	12749
927.099	12741
927.206	12722
927.312	12703
927.419	12741
927.525	12707
927.631	12772
927.737	12597
927.843	12563
927.95	12517
928.056	12574
928.162	12566
928.267	12681
928.373	13107
928.479	12635
928.585	12357
928.69	12536
928.796	12509
928.901	12437
929.007	12232
929.112	12372
929.218	12391
929.323	12228
929.428	12239
929.533	12441
929.638	12213
929.743	12258
929.848	12258
929.953	12266
930.058	12201
930.163	11973
930.267	12049
930.372	12167
930.477	11965
930.581	12186
930.685	12068
930.79	11885
930.894	11920
930.998	11836
931.103	11954
931.207	11592
931.311	11467
931.415	11429
931.519	11242
931.623	11235
