Data from test_V78500241_2562.txt Node
Date: Fri Mar 25 15:27:41 CST 2022
User: usil
Spectrometer: V785-0024
Trigger mode: 0
Integration Time (sec): 4.000000E-1
Scans to average: 1
Nonlinearity correction enabled: false
Boxcar width: 0
Storing dark spectrum: false
XAxis mode: Wavelengths
Number of Pixels in Spectrum: 1024
>>>>>Begin Spectral Data<<<<<
801.071	27157
801.214	27214
801.356	27009
801.499	27112
801.641	26868
801.783	26697
801.926	26887
802.068	26819
802.211	26754
802.353	26617
802.496	26667
802.638	26415
802.78	26613
802.923	26389
803.065	26358
803.208	26412
803.35	26503
803.492	26476
803.635	26644
803.777	26533
803.919	26655
804.061	26990
804.204	26762
804.346	26678
804.488	26457
804.63	26587
804.773	26530
804.915	26568
805.057	26655
805.199	26583
805.341	26720
805.483	26731
805.626	26773
805.768	26663
805.91	26788
806.052	26720
806.194	26606
806.336	26826
806.478	26811
806.62	26651
806.762	26807
806.904	26933
807.046	27222
807.188	27325
807.33	27142
807.472	27214
807.614	27173
807.756	27131
807.898	27020
808.04	26864
808.182	26906
808.324	27005
808.465	27070
808.607	27173
808.749	27207
808.891	27504
809.033	27473
809.174	27310
809.316	27199
809.458	27294
809.6	27351
809.741	27431
809.883	27416
810.025	27652
810.166	27572
810.308	27751
810.45	27595
810.591	27473
810.733	27420
810.875	27283
811.016	27214
811.158	27150
811.299	27420
811.441	27511
811.582	27534
811.724	27237
811.865	27260
812.007	27408
812.148	27165
812.29	27207
812.431	27424
812.573	27568
812.714	27778
812.855	27686
812.997	27892
813.138	28013
813.279	27979
813.421	27808
813.562	27857
813.703	27568
813.845	27564
813.986	27298
814.127	27066
814.268	27062
814.41	27062
814.551	26944
814.692	26975
814.833	26857
814.974	26967
815.115	27051
815.256	26819
815.397	26758
815.539	26788
815.68	26842
815.821	26678
815.962	26838
816.103	26910
816.244	26705
816.385	26632
816.526	26530
816.666	26339
816.807	26290
816.948	26191
817.089	26427
817.23	26328
817.371	26282
817.512	26176
817.653	26126
817.793	26328
817.934	26374
818.075	26168
818.216	26294
818.356	26286
818.497	26043
818.638	26020
818.778	25951
818.919	25868
819.06	26115
819.2	26183
819.341	26248
819.481	26206
819.622	26374
819.762	26594
819.903	26640
820.043	26362
820.184	26328
820.324	26324
820.465	26404
820.605	26336
820.746	26256
820.886	26221
821.026	26336
821.167	26336
821.307	26408
821.447	26126
821.588	26172
821.728	26153
821.868	25811
822.008	25791
822.149	25765
822.289	25746
822.429	25495
822.569	25487
822.709	25468
822.849	25327
822.99	25282
823.13	25194
823.27	25209
823.41	25206
823.55	25000
823.69	25046
823.83	25069
823.97	25061
824.11	24814
824.25	24833
824.389	24856
824.529	24924
824.669	24871
824.809	24894
824.949	24863
825.089	25004
825.228	25004
825.368	24745
825.508	24646
825.648	24806
825.787	24837
825.927	24829
826.067	24715
826.206	24783
826.346	24894
826.485	24897
826.625	24707
826.765	24954
826.904	24817
827.044	24502
827.183	24551
827.323	24467
827.462	24456
827.601	24494
827.741	24414
827.88	24483
828.02	24201
828.159	24407
828.298	24483
828.437	24460
828.577	24410
828.716	24540
828.855	24452
828.994	24148
829.134	24190
829.273	24292
829.412	24121
829.551	24209
829.69	24155
829.829	24129
829.968	24194
830.107	24201
830.246	24224
830.385	24125
830.524	24053
830.663	24053
830.802	24034
830.941	23824
831.08	23798
831.219	23824
831.357	23866
831.496	24015
831.635	23817
831.774	23680
831.913	23760
832.051	23604
832.19	23604
832.329	23627
832.467	23543
832.606	23543
832.744	23490
832.883	23512
833.022	23410
833.16	23516
833.299	23570
833.437	23547
833.576	23615
833.714	23623
833.852	23539
833.991	23600
834.129	23745
834.267	23608
834.406	23490
834.544	23589
834.682	23524
834.821	23570
834.959	23771
835.097	23406
835.235	23615
835.373	23528
835.511	23516
835.65	23417
835.788	23368
835.926	23303
836.064	23303
836.202	23178
836.34	23429
836.478	23452
836.615	23337
836.753	23345
836.891	23455
837.029	23497
837.167	23170
837.305	23364
837.443	23326
837.58	23265
837.718	23299
837.856	23349
837.993	23132
838.131	23220
838.269	23193
838.406	23109
838.544	23025
838.681	23003
838.819	22961
838.956	22790
839.094	22854
839.231	22828
839.369	22946
839.506	23166
839.643	23014
839.781	22767
839.918	22710
840.055	22729
840.193	22717
840.33	22634
840.467	22816
840.604	22778
840.742	23018
840.879	22630
841.016	22634
841.153	22561
841.29	22752
841.427	22672
841.564	22782
841.701	22660
841.838	22504
841.975	22546
842.112	22596
842.249	22630
842.385	22417
842.522	22691
842.659	22557
842.796	22360
842.933	22470
843.069	22310
843.206	22432
843.343	22459
843.479	22459
843.616	22451
843.752	22192
843.889	22265
844.025	22375
844.162	22169
844.298	22352
844.435	22253
844.571	22238
844.708	22192
844.844	22462
844.98	22363
845.117	22386
845.253	22246
845.389	22143
845.525	22135
845.661	22173
845.798	21918
845.934	22082
846.07	21956
846.206	21930
846.342	22082
846.478	21991
846.614	21755
846.75	21732
846.886	21660
847.022	21762
847.158	21644
847.294	21679
847.429	21762
847.565	21644
847.701	21915
847.837	21485
847.972	21340
848.108	21450
848.244	21530
848.379	21389
848.515	21298
848.65	21336
848.786	21245
848.921	21283
849.057	21294
849.192	21447
849.328	21264
849.463	21332
849.598	21275
849.734	21214
849.869	21096
850.004	20967
850.14	21074
850.275	21070
850.41	21036
850.545	20998
850.68	21017
850.815	21154
850.95	21009
851.085	21291
851.22	21237
851.355	21085
851.49	20990
851.625	21089
851.76	21066
851.895	20971
852.03	20899
852.165	21066
852.299	21096
852.434	21108
852.569	21100
852.703	21066
852.838	21085
852.973	21218
853.107	21081
853.242	20990
853.376	20906
853.511	20762
853.645	20807
853.78	21043
853.914	20933
854.048	20781
854.183	20739
854.317	20887
854.451	21051
854.585	20941
854.72	20880
854.854	20925
854.988	20823
855.122	20883
855.256	20731
855.39	20910
855.524	21001
855.658	20944
855.792	20849
855.926	20872
856.06	20994
856.194	20982
856.327	20895
856.461	20857
856.595	20823
856.729	20902
856.862	20998
856.996	20929
857.13	20994
857.263	20967
857.397	21017
857.53	20857
857.664	20933
857.797	20963
857.931	20948
858.064	20880
858.197	20910
858.331	20929
858.464	20891
858.597	20800
858.731	20834
858.864	20800
858.997	20792
859.13	20971
859.263	20861
859.396	20861
859.529	20819
859.662	20762
859.795	20815
859.928	20925
860.061	20998
860.194	21157
860.327	20948
860.46	20857
860.592	20994
860.725	20971
860.858	21005
860.99	20788
861.123	20674
861.256	20796
861.388	20887
861.521	21450
861.653	20815
861.786	20644
861.918	20739
862.05	20758
862.183	20887
862.315	20826
862.447	20785
862.58	20781
862.712	20621
862.844	20571
862.976	20701
863.108	20697
863.24	21058
863.372	20457
863.504	20533
863.636	20583
863.768	20670
863.9	20629
864.032	20514
864.164	20507
864.296	20480
864.428	20617
864.559	20598
864.691	20609
864.823	20606
864.954	20651
865.086	20556
865.217	20518
865.349	20393
865.48	20526
865.612	20514
865.743	20686
865.875	20602
866.006	20427
866.137	20590
866.269	20389
866.4	20495
866.531	20355
866.662	20404
866.793	20377
866.924	20461
867.055	20438
867.186	20358
867.317	20362
867.448	20282
867.579	20427
867.71	20415
867.841	20336
867.972	20503
868.103	20488
868.233	20541
868.364	20400
868.495	20629
868.625	20724
868.756	20750
868.886	20587
869.017	20625
869.147	20792
869.278	20693
869.408	20667
869.539	20617
869.669	20739
869.799	20792
869.929	20819
870.06	20823
870.19	21051
870.32	20948
870.45	20960
870.58	21043
870.71	21165
870.84	21157
870.97	21119
871.1	21036
871.23	21291
871.36	21313
871.489	21150
871.619	21222
871.749	21249
871.879	21283
872.008	21428
872.138	21344
872.267	21287
872.397	21138
872.526	21017
872.656	21188
872.785	21119
872.915	21230
873.044	21424
873.173	21245
873.303	21260
873.432	21393
873.561	21469
873.69	21313
873.819	21195
873.948	21393
874.077	21230
874.206	21192
874.335	21275
874.464	21496
874.593	21587
874.722	21606
874.851	21648
874.979	21523
875.108	21549
875.237	21504
875.365	21515
875.494	21526
875.623	21557
875.751	21553
875.88	21583
876.008	21618
876.136	21698
876.265	22010
876.393	22090
876.521	22093
876.65	22082
876.778	21911
876.906	21842
877.034	21941
877.162	21987
877.29	21831
877.418	21884
877.546	21876
877.674	21876
877.802	21922
877.93	21759
878.058	21759
878.185	21762
878.313	21728
878.441	21941
878.568	21739
878.696	21785
878.824	21964
878.951	21956
879.079	22116
879.206	22135
879.333	21979
879.461	21953
879.588	22006
879.715	22074
879.842	22082
879.97	21922
880.097	21720
880.224	21751
880.351	21789
880.478	21751
880.605	21595
880.732	21614
880.859	21972
880.986	21652
881.112	21785
881.239	21606
881.366	21485
881.493	21344
881.619	21363
881.746	21279
881.872	21408
881.999	21317
882.125	21218
882.252	21313
882.378	21256
882.505	21313
882.631	21119
882.757	21043
882.883	21142
883.01	20998
883.136	21043
883.262	20705
883.388	20830
883.514	20963
883.64	21077
883.766	20853
883.892	20781
884.018	20746
884.143	20925
884.269	21020
884.395	20636
884.52	20568
884.646	20651
884.772	20590
884.897	20499
885.023	20594
885.148	20720
885.274	20792
885.399	20765
885.524	20731
885.65	20788
885.775	20632
885.9	20655
886.025	20796
886.15	20689
886.275	20625
886.4	20454
886.525	20629
886.65	20511
886.775	20568
886.9	20804
887.025	20781
887.149	20609
887.274	20412
887.399	20461
887.523	20469
887.648	20301
887.773	20332
887.897	20492
888.021	20427
888.146	20275
888.27	20442
888.395	20366
888.519	20355
888.643	20446
888.767	20461
888.891	20404
889.015	20339
889.139	20347
889.263	20180
889.387	20252
889.511	20355
889.635	20138
889.759	20111
889.883	20153
890.006	20153
890.13	20237
890.254	20100
890.377	20172
890.501	19879
890.624	19932
890.748	20077
890.871	19906
890.995	19856
891.118	19750
891.241	19837
891.364	19757
891.488	19917
891.611	19849
891.734	19913
891.857	19890
891.98	19871
892.103	19814
892.226	19799
892.349	19651
892.471	19681
892.594	19818
892.717	19685
892.839	19693
892.962	19734
893.085	19814
893.207	19780
893.33	19601
893.452	19624
893.575	19712
893.697	19681
893.819	19811
893.941	19986
894.064	19776
894.186	19693
894.308	19552
894.43	19704
894.552	19845
894.674	19826
894.796	19655
894.918	19674
895.04	19776
895.161	19712
895.283	19723
895.405	19620
895.526	19693
895.648	19708
895.769	19715
895.891	19776
896.012	19727
896.134	19750
896.255	19689
896.376	19620
896.498	19677
896.619	19761
896.74	19704
896.861	19788
896.982	19925
897.103	20115
897.224	19963
897.345	20016
897.466	19925
897.587	19932
897.708	20035
897.828	19902
897.949	19746
898.07	19734
898.19	19860
898.311	20012
898.431	19890
898.552	19868
898.672	20024
898.792	19940
898.913	19982
899.033	19780
899.153	19753
899.273	19658
899.393	19689
899.513	19788
899.633	19681
899.753	19696
899.873	19651
899.993	19757
900.113	19487
900.232	19594
900.352	19559
900.472	19487
900.591	19445
900.711	19419
900.83	19438
900.95	19544
901.069	19438
901.189	19335
901.308	19209
901.427	19099
901.546	19031
901.665	19015
901.784	19080
901.904	18954
902.023	18856
902.141	18639
902.26	18646
902.379	18620
902.498	18551
902.617	18479
902.735	18631
902.854	18509
902.973	18563
903.091	18197
903.21	18197
903.328	18216
903.446	18144
903.565	18091
903.683	18087
903.801	17958
903.919	18038
904.038	17992
904.156	17954
904.274	17878
904.392	17828
904.51	17882
904.627	17741
904.745	17805
904.863	17882
904.981	17547
905.098	17467
905.216	17463
905.334	17577
905.451	17516
905.569	17497
905.686	17444
905.803	17573
905.921	17200
906.038	17379
906.155	17299
906.272	17170
906.389	17242
906.506	17064
906.623	17052
906.74	17094
906.857	16927
906.974	16892
907.091	17086
907.208	17075
907.324	17052
907.441	16938
907.557	16835
907.674	16881
907.79	16702
907.907	16713
908.023	16782
908.139	16881
908.256	16687
908.372	16717
908.488	16622
908.604	16428
908.72	16386
908.836	16466
908.952	16443
909.068	16500
909.184	16580
909.3	16470
909.415	16481
909.531	16371
909.647	16219
909.762	16230
909.878	16128
909.993	16147
910.108	16082
910.224	16124
910.339	16093
910.454	16120
910.57	16029
910.685	15949
910.8	16192
910.915	16143
911.03	16010
911.145	15880
911.259	15823
911.374	15797
911.489	15774
911.604	15797
911.718	15504
911.833	15454
911.947	15538
912.062	15386
912.176	15614
912.291	15622
912.405	15606
912.519	15747
912.633	15793
912.748	15561
912.862	15561
912.976	15443
913.09	15359
913.204	15317
913.318	15416
913.431	15435
913.545	15370
913.659	15485
913.772	15370
913.886	15233
914	15169
914.113	15279
914.226	15283
914.34	15294
914.453	15024
914.566	15237
914.68	15100
914.793	14944
914.906	14921
915.019	14739
915.132	14788
915.245	14739
915.358	14773
915.47	14739
915.583	14758
915.696	14849
915.809	14887
915.921	14868
916.034	14739
916.146	14705
916.259	14640
916.371	14636
916.483	14625
916.595	14659
916.708	14632
916.82	14716
916.932	14594
917.044	14564
917.156	14670
917.268	14473
917.38	14366
917.491	14461
917.603	14495
917.715	14549
917.826	14526
917.938	14408
918.049	14210
918.161	14465
918.272	14530
918.384	14530
918.495	14332
918.606	14237
918.717	14210
918.828	14267
918.939	14267
919.05	14134
919.161	14119
919.272	14100
919.383	14069
919.494	14191
919.604	14454
919.715	14199
919.826	14153
919.936	14142
920.047	14298
920.157	14233
920.267	14415
920.378	14138
920.488	14145
920.598	14419
920.708	14511
920.818	14339
920.928	14259
921.038	14613
921.148	14415
921.258	14176
921.368	14103
921.477	13947
921.587	13959
921.697	13830
921.806	13921
921.916	13738
922.025	13605
922.134	13632
922.244	13499
922.353	13643
922.462	13548
922.571	13362
922.68	13213
922.789	13263
922.898	13308
923.007	13247
923.116	13278
923.224	13171
923.333	13183
923.442	13133
923.55	13015
923.659	12993
923.767	13194
923.876	13015
923.984	13034
924.092	12913
924.201	12951
924.309	12985
924.417	12981
924.525	12878
924.633	12863
924.741	13712
924.849	12753
924.956	12890
925.064	12658
925.172	12620
925.279	12612
925.387	12715
925.494	12681
925.602	12776
925.709	12719
925.816	12623
925.924	12601
926.031	12665
926.138	12536
926.245	12639
926.352	12521
926.459	12635
926.566	12635
926.673	12597
926.779	12422
926.886	12422
926.993	12289
927.099	12152
927.206	12220
927.312	12186
927.419	12251
927.525	12140
927.631	12201
927.737	12178
927.843	12038
927.95	11908
928.056	12068
928.162	12068
928.267	12110
928.373	12563
928.479	12167
928.585	11973
928.69	11980
928.796	12030
928.901	11977
929.007	11764
929.112	11893
929.218	11889
929.323	11688
929.428	11748
929.533	11920
929.638	11714
929.743	11710
929.848	11752
929.953	11653
930.058	11630
930.163	11509
930.267	11497
930.372	11657
930.477	11478
930.581	11710
930.685	11570
930.79	11345
930.894	11368
930.998	11376
931.103	11493
931.207	11060
931.311	11045
931.415	10995
931.519	10831
931.623	10767
