Data from test_V78500241_795.txt Node
Date: Fri Mar 25 15:15:23 CST 2022
User: usil
Spectrometer: V785-0024
Trigger mode: 0
Integration Time (sec): 4.000000E-1
Scans to average: 1
Nonlinearity correction enabled: false
Boxcar width: 0
Storing dark spectrum: false
XAxis mode: Wavelengths
Number of Pixels in Spectrum: 1024
>>>>>Begin Spectral Data<<<<<
801.071	28356
801.214	28124
801.356	28040
801.499	27949
801.641	27854
801.783	27816
801.926	27907
802.068	27850
802.211	27785
802.353	27583
802.496	27564
802.638	27427
802.78	27363
802.923	27363
803.065	27382
803.208	27294
803.35	27553
803.492	27511
803.635	27443
803.777	27622
803.919	27743
804.061	27926
804.204	27762
804.346	27549
804.488	27542
804.63	27530
804.773	27583
804.915	27686
805.057	27819
805.199	27812
805.341	27857
805.483	27793
805.626	27781
805.768	27679
805.91	27819
806.052	27827
806.194	27736
806.336	27934
806.478	27937
806.62	27793
806.762	27979
806.904	28063
807.046	28314
807.188	28200
807.33	28185
807.472	28322
807.614	28173
807.756	28207
807.898	28112
808.04	28147
808.182	28105
808.324	28090
808.465	28166
808.607	28508
808.749	28337
808.891	28481
809.033	28634
809.174	28683
809.316	28504
809.458	28504
809.6	28516
809.741	28637
809.883	28687
810.025	28850
810.166	28862
810.308	28820
810.45	28835
810.591	28698
810.733	28519
810.875	28409
811.016	28516
811.158	28261
811.299	28512
811.441	28630
811.582	28733
811.724	28573
811.865	28516
812.007	28474
812.148	28641
812.29	28497
812.431	28679
812.573	28831
812.714	28892
812.855	28991
812.997	29216
813.138	29250
813.279	29193
813.421	29064
813.562	29143
813.703	28980
813.845	28873
813.986	28603
814.127	28401
814.268	28268
814.41	28291
814.551	28124
814.692	28325
814.833	28265
814.974	28200
815.115	28367
815.256	27991
815.397	28185
815.539	28162
815.68	27991
815.821	28063
815.962	27983
816.103	27953
816.244	28010
816.385	27724
816.526	27778
816.666	27553
816.807	27420
816.948	27603
817.089	27759
817.23	27572
817.371	27561
817.512	27538
817.653	27519
817.793	27629
817.934	27515
818.075	27530
818.216	27694
818.356	27401
818.497	27477
818.638	27230
818.778	27249
818.919	27283
819.06	27450
819.2	27420
819.341	27496
819.481	27496
819.622	27625
819.762	27922
819.903	27835
820.043	27660
820.184	27705
820.324	27660
820.465	27701
820.605	27679
820.746	27492
820.886	27534
821.026	27679
821.167	27739
821.307	27701
821.447	27511
821.588	27549
821.728	27294
821.868	27207
822.008	26940
822.149	27116
822.289	27062
822.429	26712
822.569	26590
822.709	26640
822.849	26465
822.99	26590
823.13	26476
823.27	26480
823.41	26332
823.55	26336
823.69	26457
823.83	26271
823.97	26275
824.11	26328
824.25	26126
824.389	26229
824.529	26153
824.669	26142
824.809	26282
824.949	26244
825.089	26183
825.228	26195
825.368	26145
825.508	26088
825.648	26039
825.787	26035
825.927	26149
826.067	26008
826.206	25963
826.346	26012
826.485	26164
826.625	26081
826.765	26183
826.904	26012
827.044	25769
827.183	25734
827.323	25818
827.462	25970
827.601	25868
827.741	25784
827.88	25830
828.02	25597
828.159	25742
828.298	25826
828.437	25883
828.577	25795
828.716	25925
828.855	25772
828.994	25529
829.134	25521
829.273	25601
829.412	25518
829.551	25396
829.69	25438
829.829	25400
829.968	25514
830.107	25575
830.246	25559
830.385	25335
830.524	25434
830.663	25301
830.802	25171
830.941	25198
831.08	25053
831.219	25088
831.357	25316
831.496	25263
831.635	25088
831.774	25122
831.913	24882
832.051	24871
832.19	24901
832.329	24943
832.467	24658
832.606	24707
832.744	24658
832.883	24757
833.022	24776
833.16	24734
833.299	24943
833.437	24692
833.576	24920
833.714	24901
833.852	24848
833.991	24867
834.129	24989
834.267	24962
834.406	24867
834.544	24897
834.682	25023
834.821	24859
834.959	24943
835.097	24878
835.235	24890
835.373	24787
835.511	24730
835.65	24665
835.788	24707
835.926	24642
836.064	24433
836.202	24570
836.34	24677
836.478	24726
836.615	24661
836.753	24658
836.891	24817
837.029	24760
837.167	24536
837.305	24673
837.443	24593
837.58	24418
837.718	24608
837.856	24593
837.993	24479
838.131	24467
838.269	24429
838.406	24448
838.544	24281
838.681	24163
838.819	24209
838.956	23980
839.094	24110
839.231	24038
839.369	24190
839.506	24464
839.643	24163
839.781	24015
839.918	23847
840.055	24095
840.193	23916
840.33	23847
840.467	23874
840.604	24018
840.742	24148
840.879	23737
841.016	23707
841.153	23767
841.29	24083
841.427	23809
841.564	23863
841.701	23908
841.838	23828
841.975	23752
842.112	23878
842.249	23653
842.385	23608
842.522	23817
842.659	23676
842.796	23672
842.933	23649
843.069	23493
843.206	23611
843.343	23608
843.479	23630
843.616	23668
843.752	23395
843.889	23455
844.025	23528
844.162	23383
844.298	23516
844.435	23516
844.571	23429
844.708	23490
844.844	23615
844.98	23486
845.117	23604
845.253	23421
845.389	23261
845.525	23273
845.661	23239
845.798	23064
845.934	23155
846.07	22995
846.206	23223
846.342	23140
846.478	23140
846.614	23064
846.75	22831
846.886	22866
847.022	22904
847.158	22892
847.294	22946
847.429	22938
847.565	22740
847.701	23140
847.837	22679
847.972	22599
848.108	22691
848.244	22634
848.379	22497
848.515	22455
848.65	22527
848.786	22432
848.921	22417
849.057	22462
849.192	22500
849.328	22493
849.463	22318
849.598	22371
849.734	22402
849.869	22246
850.004	22265
850.14	22204
850.275	22246
850.41	22169
850.545	22226
850.68	22139
850.815	22268
850.95	22242
851.085	22459
851.22	22303
851.355	22344
851.49	22253
851.625	22230
851.76	22135
851.895	22166
852.03	22101
852.165	22181
852.299	22291
852.434	22394
852.569	22242
852.703	22291
852.838	22367
852.973	22272
853.107	22303
853.242	22177
853.376	22120
853.511	21968
853.645	22051
853.78	22143
853.914	22051
854.048	22078
854.183	22101
854.317	22169
854.451	22166
854.585	22101
854.72	22036
854.854	22017
854.988	21991
855.122	22097
855.256	21949
855.39	22051
855.524	22059
855.658	22074
855.792	22124
855.926	22215
856.06	22013
856.194	22021
856.327	21987
856.461	21994
856.595	21975
856.729	21926
856.862	22177
856.996	22116
857.13	22131
857.263	22169
857.397	22025
857.53	21937
857.664	22120
857.797	22074
857.931	22200
858.064	22029
858.197	22112
858.331	21968
858.464	22109
858.597	21884
858.731	22017
858.864	21964
858.997	21975
859.13	21880
859.263	21960
859.396	22086
859.529	22036
859.662	21994
859.795	21949
859.928	22082
860.061	22200
860.194	22314
860.327	22082
860.46	21964
860.592	22135
860.725	22139
860.858	22124
860.99	21991
861.123	21972
861.256	21941
861.388	22006
861.521	22847
861.653	21819
861.786	21880
861.918	21869
862.05	21964
862.183	21930
862.315	21899
862.447	21960
862.58	21895
862.712	21709
862.844	21606
862.976	21789
863.108	21857
863.24	22303
863.372	21789
863.504	21717
863.636	21709
863.768	21888
863.9	21736
864.032	21622
864.164	21675
864.296	21751
864.428	21812
864.559	21816
864.691	21785
864.823	21675
864.954	21701
865.086	21526
865.217	21690
865.349	21386
865.48	21633
865.612	21614
865.743	21751
865.875	21629
866.006	21603
866.137	21576
866.269	21526
866.4	21682
866.531	21679
866.662	21595
866.793	21412
866.924	21557
867.055	21515
867.186	21606
867.317	21492
867.448	21382
867.579	21511
867.71	21405
867.841	21439
867.972	21614
868.103	21595
868.233	21549
868.364	21496
868.495	21637
868.625	21785
868.756	21873
868.886	21835
869.017	21751
869.147	21930
869.278	21922
869.408	21797
869.539	21713
869.669	21899
869.799	21705
869.929	21759
870.06	21926
870.19	22074
870.32	22093
870.45	22272
870.58	22200
870.71	22253
870.84	22314
870.97	22128
871.1	22242
871.23	22287
871.36	22257
871.489	22257
871.619	22356
871.749	22295
871.879	22428
872.008	22447
872.138	22344
872.267	22466
872.397	22158
872.526	22188
872.656	22150
872.785	22173
872.915	22318
873.044	22405
873.173	22318
873.303	22417
873.432	22481
873.561	22474
873.69	22402
873.819	22432
873.948	22508
874.077	22459
874.206	22284
874.335	22447
874.464	22462
874.593	22626
874.722	22554
874.851	22675
874.979	22641
875.108	22653
875.237	22592
875.365	22508
875.494	22481
875.623	22656
875.751	22390
875.88	22694
876.008	22740
876.136	22816
876.265	22965
876.393	23086
876.521	23094
876.65	22965
876.778	22847
876.906	22911
877.034	22923
877.162	22927
877.29	22934
877.418	23052
877.546	23033
877.674	22854
877.802	23014
877.93	23018
878.058	22866
878.185	22862
878.313	22774
878.441	22915
878.568	22611
878.696	22923
878.824	23025
878.951	23102
879.079	23109
879.206	23094
879.333	23109
879.461	22938
879.588	22908
879.715	23033
879.842	23261
879.97	22946
880.097	22797
880.224	22637
880.351	22755
880.478	22877
880.605	22763
880.732	22683
880.859	22927
880.986	22694
881.112	22736
881.239	22706
881.366	22455
881.493	22462
881.619	22417
881.746	22253
881.872	22242
881.999	22371
882.125	22341
882.252	22295
882.378	22379
882.505	22303
882.631	22188
882.757	22082
882.883	22010
883.01	22021
883.136	22017
883.262	21918
883.388	21800
883.514	21991
883.64	21945
883.766	22070
883.892	21705
884.018	21846
884.143	21907
884.269	22051
884.395	21720
884.52	21660
884.646	21778
884.772	21599
884.897	21485
885.023	21591
885.148	21755
885.274	21739
885.399	21614
885.524	21576
885.65	21705
885.775	21629
885.9	21534
886.025	21720
886.15	21686
886.275	21576
886.4	21557
886.525	21553
886.65	21663
886.775	21477
886.9	21762
887.025	21823
887.149	21481
887.274	21477
887.399	21424
887.523	21378
887.648	21325
887.773	21291
887.897	21500
888.021	21348
888.146	21355
888.27	21405
888.395	21485
888.519	21370
888.643	21412
888.767	21397
888.891	21393
889.015	21077
889.139	21218
889.263	21230
889.387	21370
889.511	21317
889.635	21252
889.759	21264
889.883	21192
890.006	21192
890.13	21294
890.254	21184
890.377	21093
890.501	20921
890.624	20883
890.748	21085
890.871	20788
890.995	20830
891.118	20788
891.241	20716
891.364	20838
891.488	20868
891.611	20807
891.734	20785
891.857	20785
891.98	20750
892.103	20823
892.226	20678
892.349	20754
892.471	20560
892.594	20598
892.717	20705
892.839	20636
892.962	20602
893.085	20667
893.207	20644
893.33	20613
893.452	20705
893.575	20686
893.697	20606
893.819	20758
893.941	20769
894.064	20743
894.186	20609
894.308	20541
894.43	20819
894.552	20811
894.674	20750
894.796	20568
894.918	20568
895.04	20609
895.161	20701
895.283	20659
895.405	20507
895.526	20552
895.648	20632
895.769	20632
895.891	20575
896.012	20682
896.134	20693
896.255	20613
896.376	20488
896.498	20629
896.619	20644
896.74	20602
896.861	20727
896.982	20971
897.103	20971
897.224	20914
897.345	20842
897.466	20731
897.587	20872
897.708	20902
897.828	20857
897.949	20826
898.07	20746
898.19	20868
898.311	20849
898.431	20864
898.552	20819
898.672	20864
898.792	20834
898.913	20899
899.033	20701
899.153	20625
899.273	20571
899.393	20564
899.513	20670
899.633	20617
899.753	20617
899.873	20541
899.993	20743
900.113	20590
900.232	20640
900.352	20552
900.472	20355
900.591	20362
900.711	20320
900.83	20339
900.95	20427
901.069	20446
901.189	20259
901.308	20020
901.427	19993
901.546	20119
901.665	20005
901.784	20001
901.904	19860
902.023	19761
902.141	19434
902.26	19434
902.379	19487
902.498	19495
902.617	19476
902.735	19369
902.854	19396
902.973	19381
903.091	19148
903.21	19175
903.328	19206
903.446	18871
903.565	18909
903.683	18973
903.801	18787
903.919	18852
904.038	18798
904.156	18738
904.274	18749
904.392	18559
904.51	18574
904.627	18642
904.745	18802
904.863	18627
904.981	18418
905.098	18277
905.216	18384
905.334	18479
905.451	18456
905.569	18289
905.686	18319
905.803	18361
905.921	18106
906.038	18273
906.155	18117
906.272	17977
906.389	18068
906.506	17912
906.623	17916
906.74	17874
906.857	17836
906.974	17809
907.091	17954
907.208	17935
907.324	17916
907.441	17779
907.557	17646
907.674	17566
907.79	17570
907.907	17684
908.023	17619
908.139	17570
908.256	17551
908.372	17425
908.488	17387
908.604	17334
908.72	17326
908.836	17353
908.952	17349
909.068	17360
909.184	17436
909.3	17360
909.415	17326
909.531	17265
909.647	17006
909.762	17045
909.878	16946
909.993	16930
910.108	16995
910.224	17029
910.339	16961
910.454	16942
910.57	16812
910.685	16645
910.8	16987
910.915	16923
911.03	16801
911.145	16645
911.259	16481
911.374	16622
911.489	16493
911.604	16558
911.718	16341
911.833	16249
911.947	16322
912.062	16196
912.176	16314
912.291	16379
912.405	16238
912.519	16630
912.633	16470
912.748	16291
912.862	16333
912.976	16093
913.09	16006
913.204	16032
913.318	16147
913.431	16276
913.545	16120
913.659	16211
913.772	16082
913.886	15983
914	15972
914.113	16051
914.226	16044
914.34	16051
914.453	15732
914.566	16002
914.68	15816
914.793	15679
914.906	15595
915.019	15576
915.132	15488
915.245	15519
915.358	15580
915.47	15488
915.583	15564
915.696	15526
915.809	15606
915.921	15709
916.034	15443
916.146	15397
916.259	15458
916.371	15599
916.483	15401
916.595	15393
916.708	15340
916.82	15332
916.932	15241
917.044	15336
917.156	15165
917.268	15245
917.38	15161
917.491	15116
917.603	15146
917.715	15230
917.826	15306
917.938	15028
918.049	14998
918.161	15089
918.272	15252
918.384	15226
918.495	15070
918.606	14998
918.717	14910
918.828	14906
918.939	14956
919.05	14872
919.161	14891
919.272	14731
919.383	14689
919.494	14929
919.604	15093
919.715	14963
919.826	14807
919.936	14807
920.047	14921
920.157	14853
920.267	15097
920.378	14952
920.488	14880
920.598	15032
920.708	15142
920.818	15089
920.928	15051
921.038	15077
921.148	15077
921.258	14887
921.368	14849
921.477	14610
921.587	14545
921.697	14385
921.806	14655
921.916	14412
922.025	14218
922.134	14256
922.244	14168
922.353	14176
922.462	13986
922.571	14035
922.68	13906
922.789	13849
922.898	13871
923.007	13791
923.116	13860
923.224	13833
923.333	13769
923.442	13757
923.55	13696
923.659	13780
923.767	13719
923.876	13578
923.984	13670
924.092	13590
924.201	13632
924.309	13601
924.417	13578
924.525	13624
924.633	13521
924.741	14252
924.849	13392
924.956	13472
925.064	13373
925.172	13232
925.279	13266
925.387	13369
925.494	13331
925.602	13320
925.709	13297
925.816	13168
925.924	13137
926.031	13301
926.138	13202
926.245	13228
926.352	13217
926.459	13228
926.566	13304
926.673	13145
926.779	12993
926.886	13015
926.993	12894
927.099	12795
927.206	12757
927.312	12757
927.419	12863
927.525	12791
927.631	12829
927.737	12745
927.843	12738
927.95	12525
928.056	12631
928.162	12688
928.267	12696
928.373	13251
928.479	12669
928.585	12551
928.69	12570
928.796	12620
928.901	12555
929.007	12369
929.112	12506
929.218	12471
929.323	12361
929.428	12407
929.533	12448
929.638	12232
929.743	12201
929.848	12281
929.953	12251
930.058	12197
930.163	12064
930.267	11992
930.372	12197
930.477	12011
930.581	12224
930.685	12064
930.79	11916
930.894	11889
930.998	11893
931.103	12102
931.207	11619
931.311	11524
931.415	11532
931.519	11269
931.623	11326
