Data from test_V78500241_473.txt Node
Date: Fri Mar 25 15:13:09 CST 2022
User: usil
Spectrometer: V785-0024
Trigger mode: 0
Integration Time (sec): 4.000000E-1
Scans to average: 1
Nonlinearity correction enabled: false
Boxcar width: 0
Storing dark spectrum: false
XAxis mode: Wavelengths
Number of Pixels in Spectrum: 1024
>>>>>Begin Spectral Data<<<<<
801.071	27435
801.214	27447
801.356	27051
801.499	27161
801.641	27013
801.783	27036
801.926	26899
802.068	27028
802.211	26857
802.353	26735
802.496	26788
802.638	26686
802.78	26697
802.923	26655
803.065	26560
803.208	26746
803.35	26674
803.492	26686
803.635	26769
803.777	26590
803.919	26777
804.061	26944
804.204	26792
804.346	26625
804.488	26830
804.63	26777
804.773	26697
804.915	26701
805.057	26937
805.199	26735
805.341	26864
805.483	26868
805.626	26750
805.768	26838
805.91	26971
806.052	26952
806.194	26864
806.336	27028
806.478	27009
806.62	26845
806.762	26963
806.904	27188
807.046	27408
807.188	27466
807.33	27355
807.472	27310
807.614	27256
807.756	27138
807.898	27070
808.04	26940
808.182	27062
808.324	27135
808.465	27169
808.607	27230
808.749	27439
808.891	27515
809.033	27641
809.174	27751
809.316	27443
809.458	27519
809.6	27424
809.741	27542
809.883	27610
810.025	27728
810.166	27819
810.308	27797
810.45	27694
810.591	27713
810.733	27603
810.875	27652
811.016	27481
811.158	27279
811.299	27523
811.441	27637
811.582	27652
811.724	27496
811.865	27310
812.007	27568
812.148	27420
812.29	27488
812.431	27675
812.573	27736
812.714	27876
812.855	27945
812.997	28116
813.138	28276
813.279	28162
813.421	28063
813.562	27983
813.703	27892
813.845	27705
813.986	27625
814.127	27233
814.268	27275
814.41	27157
814.551	27207
814.692	27176
814.833	27119
814.974	27024
815.115	27135
815.256	27028
815.397	27142
815.539	26925
815.68	26925
815.821	26872
815.962	27112
816.103	26929
816.244	26826
816.385	26746
816.526	26689
816.666	26663
816.807	26438
816.948	26606
817.089	26606
817.23	26438
817.371	26431
817.512	26530
817.653	26533
817.793	26351
817.934	26492
818.075	26412
818.216	26453
818.356	26503
818.497	26370
818.638	26142
818.778	26180
818.919	26218
819.06	26248
819.2	26240
819.341	26427
819.481	26389
819.622	26640
819.762	26792
819.903	26659
820.043	26594
820.184	26640
820.324	26560
820.465	26594
820.605	26556
820.746	26488
820.886	26400
821.026	26465
821.167	26450
821.307	26606
821.447	26564
821.588	26328
821.728	26275
821.868	26138
822.008	25959
822.149	26020
822.289	25879
822.429	25753
822.569	25658
822.709	25499
822.849	25468
822.99	25441
823.13	25346
823.27	25358
823.41	25133
823.55	25122
823.69	25187
823.83	25091
823.97	25183
824.11	25012
824.25	24859
824.389	25015
824.529	25187
824.669	25175
824.809	25187
824.949	25118
825.089	25053
825.228	25129
825.368	24962
825.508	24905
825.648	24943
825.787	25050
825.927	24882
826.067	24875
826.206	24947
826.346	25019
826.485	24947
826.625	24878
826.765	25000
826.904	24973
827.044	24798
827.183	24604
827.323	24544
827.462	24715
827.601	24623
827.741	24582
827.88	24623
828.02	24505
828.159	24563
828.298	24627
828.437	24703
828.577	24585
828.716	24719
828.855	24555
828.994	24338
829.134	24422
829.273	24475
829.412	24346
829.551	24243
829.69	24296
829.829	24353
829.968	24498
830.107	24441
830.246	24384
830.385	24232
830.524	24140
830.663	24213
830.802	24007
830.941	23901
831.08	23942
831.219	24041
831.357	23920
831.496	24136
831.635	24045
831.774	23817
831.913	23847
832.051	23737
832.19	23897
832.329	23775
832.467	23672
832.606	23467
832.744	23676
832.883	23684
833.022	23562
833.16	23585
833.299	23573
833.437	23737
833.576	23710
833.714	23714
833.852	23790
833.991	23836
834.129	23745
834.267	23646
834.406	23649
834.544	23775
834.682	23729
834.821	23619
834.959	23908
835.097	23729
835.235	23752
835.373	23703
835.511	23676
835.65	23596
835.788	23551
835.926	23452
836.064	23345
836.202	23391
836.34	23630
836.478	23608
836.615	23531
836.753	23547
836.891	23554
837.029	23573
837.167	23493
837.305	23429
837.443	23433
837.58	23341
837.718	23471
837.856	23459
837.993	23349
838.131	23364
838.269	23121
838.406	23349
838.544	23223
838.681	22980
838.819	23033
838.956	22831
839.094	22919
839.231	23025
839.369	23044
839.506	23193
839.643	23269
839.781	22790
839.918	22793
840.055	22965
840.193	22828
840.33	22733
840.467	22771
840.604	22786
840.742	23048
840.879	22653
841.016	22645
841.153	22649
841.29	22957
841.427	22694
841.564	22706
841.701	22774
841.838	22702
841.975	22740
842.112	22736
842.249	22512
842.385	22565
842.522	22824
842.659	22565
842.796	22527
842.933	22557
843.069	22474
843.206	22531
843.343	22588
843.479	22451
843.616	22481
843.752	22436
843.889	22257
844.025	22504
844.162	22386
844.298	22375
844.435	22382
844.571	22249
844.708	22318
844.844	22485
844.98	22478
845.117	22470
845.253	22417
845.389	22325
845.525	22314
845.661	22101
845.798	22074
845.934	22150
846.07	21941
846.206	22147
846.342	22192
846.478	22032
846.614	21899
846.75	21728
846.886	21831
847.022	21865
847.158	21869
847.294	21831
847.429	21884
847.565	21682
847.701	22017
847.837	21568
847.972	21485
848.108	21652
848.244	21618
848.379	21370
848.515	21351
848.65	21386
848.786	21428
848.921	21504
849.057	21599
849.192	21424
849.328	21492
849.463	21401
849.598	21306
849.734	21283
849.869	21207
850.004	21199
850.14	21135
850.275	21180
850.41	21116
850.545	21074
850.68	21180
850.815	21264
850.95	21184
851.085	21332
851.22	21135
851.355	21237
851.49	21218
851.625	21138
851.76	21131
851.895	21085
852.03	21089
852.165	21184
852.299	21195
852.434	21207
852.569	21214
852.703	21192
852.838	21233
852.973	21310
853.107	21332
853.242	21184
853.376	20956
853.511	20899
853.645	21017
853.78	21089
853.914	21013
854.048	20826
854.183	20910
854.317	21009
854.451	21150
854.585	21001
854.72	21123
854.854	21077
854.988	20906
855.122	20925
855.256	20944
855.39	20921
855.524	21009
855.658	21077
855.792	20990
855.926	21081
856.06	21138
856.194	21066
856.327	20948
856.461	20883
856.595	20967
856.729	20921
856.862	21104
856.996	20975
857.13	21020
857.263	21131
857.397	21131
857.53	21001
857.664	21085
857.797	21142
857.931	21089
858.064	21070
858.197	20937
858.331	20967
858.464	21009
858.597	20925
858.731	20906
858.864	20921
858.997	20914
859.13	21085
859.263	20952
859.396	21017
859.529	20933
859.662	20944
859.795	20883
859.928	20960
860.061	21195
860.194	21104
860.327	21077
860.46	21032
860.592	21047
860.725	21051
860.858	21070
860.99	21070
861.123	21039
861.256	20838
861.388	20994
861.521	21637
861.653	20910
861.786	20796
861.918	20785
862.05	20956
862.183	20967
862.315	20948
862.447	21009
862.58	20937
862.712	20727
862.844	20659
862.976	20754
863.108	20788
863.24	21138
863.372	20564
863.504	20731
863.636	20705
863.768	20727
863.9	20693
864.032	20648
864.164	20629
864.296	20705
864.428	20864
864.559	20781
864.691	20781
864.823	20686
864.954	20674
865.086	20511
865.217	20598
865.349	20590
865.48	20686
865.612	20648
865.743	20739
865.875	20613
866.006	20518
866.137	20667
866.269	20609
866.4	20579
866.531	20575
866.662	20488
866.793	20526
866.924	20526
867.055	20526
867.186	20514
867.317	20484
867.448	20393
867.579	20457
867.71	20469
867.841	20499
867.972	20499
868.103	20556
868.233	20526
868.364	20480
868.495	20552
868.625	20769
868.756	20781
868.886	20743
869.017	20743
869.147	20838
869.278	20956
869.408	20781
869.539	20769
869.669	20845
869.799	20880
869.929	20986
870.06	20830
870.19	21131
870.32	21119
870.45	21116
870.58	21150
870.71	21325
870.84	21386
870.97	21230
871.1	21100
871.23	21329
871.36	21367
871.489	21203
871.619	21230
871.749	21348
871.879	21401
872.008	21431
872.138	21405
872.267	21420
872.397	21283
872.526	21161
872.656	21192
872.785	21211
872.915	21287
873.044	21519
873.173	21355
873.303	21450
873.432	21492
873.561	21466
873.69	21321
873.819	21389
873.948	21469
874.077	21416
874.206	21336
874.335	21363
874.464	21412
874.593	21667
874.722	21618
874.851	21603
874.979	21614
875.108	21679
875.237	21447
875.365	21542
875.494	21633
875.623	21778
875.751	21534
875.88	21660
876.008	21854
876.136	21812
876.265	21827
876.393	22177
876.521	22101
876.65	22101
876.778	22067
876.906	21941
877.034	22040
877.162	22070
877.29	21861
877.418	22006
877.546	21998
877.674	22025
877.802	21930
877.93	21934
878.058	22021
878.185	21930
878.313	21876
878.441	22040
878.568	21869
878.696	21911
878.824	21991
878.951	22025
879.079	22105
879.206	22306
879.333	22078
879.461	22067
879.588	22002
879.715	22143
879.842	22154
879.97	22055
880.097	21686
880.224	21705
880.351	21819
880.478	21736
880.605	21774
880.732	21812
880.859	22013
880.986	21854
881.112	21778
881.239	21625
881.366	21488
881.493	21401
881.619	21386
881.746	21439
881.872	21447
881.999	21233
882.125	21283
882.252	21363
882.378	21439
882.505	21477
882.631	21283
882.757	21146
882.883	21203
883.01	21108
883.136	20960
883.262	20929
883.388	20861
883.514	21077
883.64	21104
883.766	20979
883.892	20838
884.018	20986
884.143	21104
884.269	21119
884.395	20902
884.52	20659
884.646	20739
884.772	20697
884.897	20651
885.023	20651
885.148	20876
885.274	20765
885.399	20785
885.524	20773
885.65	20655
885.775	20705
885.9	20739
886.025	20758
886.15	20815
886.275	20762
886.4	20632
886.525	20705
886.65	20712
886.775	20609
886.9	20815
887.025	20895
887.149	20735
887.274	20469
887.399	20484
887.523	20621
887.648	20480
887.773	20374
887.897	20556
888.021	20541
888.146	20385
888.27	20579
888.395	20560
888.519	20571
888.643	20450
888.767	20495
888.891	20415
889.015	20347
889.139	20336
889.263	20176
889.387	20492
889.511	20469
889.635	20408
889.759	20195
889.883	20282
890.006	20282
890.13	20377
890.254	20256
890.377	20126
890.501	20005
890.624	20050
890.748	20161
890.871	20035
890.995	19776
891.118	19776
891.241	19894
891.364	19788
891.488	19932
891.611	19852
891.734	19814
891.857	19849
891.98	19852
892.103	19909
892.226	19917
892.349	19841
892.471	19681
892.594	19799
892.717	19791
892.839	19723
892.962	19807
893.085	19852
893.207	19818
893.33	19662
893.452	19655
893.575	19894
893.697	19765
893.819	19898
893.941	19970
894.064	19940
894.186	19734
894.308	19712
894.43	19902
894.552	19917
894.674	19799
894.796	19647
894.918	19826
895.04	19772
895.161	19909
895.283	19864
895.405	19704
895.526	19704
895.648	19719
895.769	19795
895.891	19788
896.012	19887
896.134	19753
896.255	19788
896.376	19837
896.498	19723
896.619	19837
896.74	19769
896.861	19811
896.982	20073
897.103	20248
897.224	19986
897.345	20027
897.466	19898
897.587	19993
897.708	20172
897.828	20062
897.949	19947
898.07	19871
898.19	19944
898.311	20001
898.431	19955
898.552	20001
898.672	20164
898.792	20100
898.913	20046
899.033	19932
899.153	19841
899.273	19727
899.393	19780
899.513	19791
899.633	19780
899.753	19761
899.873	19643
899.993	19765
900.113	19689
900.232	19738
900.352	19693
900.472	19483
900.591	19548
900.711	19700
900.83	19487
900.95	19601
901.069	19712
901.189	19449
901.308	19194
901.427	19065
901.546	19148
901.665	19148
901.784	19126
901.904	18989
902.023	18939
902.141	18764
902.26	18719
902.379	18764
902.498	18677
902.617	18616
902.735	18658
902.854	18544
902.973	18544
903.091	18342
903.21	18353
903.328	18270
903.446	18178
903.565	18083
903.683	18163
903.801	18030
903.919	18247
904.038	18072
904.156	17965
904.274	17961
904.392	17893
904.51	17904
904.627	17935
904.745	17977
904.863	17916
904.981	17817
905.098	17665
905.216	17596
905.334	17532
905.451	17657
905.569	17501
905.686	17589
905.803	17509
905.921	17398
906.038	17444
906.155	17334
906.272	17254
906.389	17292
906.506	17143
906.623	17143
906.74	17121
906.857	17048
906.974	17006
907.091	17124
907.208	17246
907.324	17060
907.441	17022
907.557	16782
907.674	16873
907.79	16763
907.907	16824
908.023	16786
908.139	16919
908.256	16710
908.372	16691
908.488	16797
908.604	16596
908.72	16542
908.836	16573
908.952	16550
909.068	16596
909.184	16736
909.3	16542
909.415	16637
909.531	16470
909.647	16322
909.762	16322
909.878	16272
909.993	16299
910.108	16211
910.224	16188
910.339	16169
910.454	16051
910.57	16105
910.685	16029
910.8	16405
910.915	16223
911.03	16112
911.145	15869
911.259	15930
911.374	15846
911.489	15827
911.604	15663
911.718	15629
911.833	15549
911.947	15507
912.062	15378
912.176	15595
912.291	15648
912.405	15610
912.519	15759
912.633	15690
912.748	15599
912.862	15587
912.976	15488
913.09	15310
913.204	15370
913.318	15386
913.431	15504
913.545	15416
913.659	15504
913.772	15397
913.886	15313
914	15135
914.113	15184
914.226	15412
914.34	15252
914.453	15211
914.566	15260
914.68	15138
914.793	15047
914.906	14902
915.019	14872
915.132	14804
915.245	14853
915.358	14910
915.47	14830
915.583	14682
915.696	14830
915.809	14963
915.921	14937
916.034	14826
916.146	14720
916.259	14781
916.371	14811
916.483	14804
916.595	14663
916.708	14651
916.82	14708
916.932	14667
917.044	14606
917.156	14632
917.268	14476
917.38	14629
917.491	14465
917.603	14511
917.715	14499
917.826	14575
917.938	14404
918.049	14415
918.161	14495
918.272	14564
918.384	14663
918.495	14465
918.606	14400
918.717	14134
918.828	14374
918.939	14286
919.05	14161
919.161	14290
919.272	14115
919.383	14233
919.494	14313
919.604	14537
919.715	14328
919.826	14199
919.936	14298
920.047	14259
920.157	14240
920.267	14434
920.378	14202
920.488	14263
920.598	14366
920.708	14625
920.818	14442
920.928	14381
921.038	14568
921.148	14518
921.258	14252
921.368	14164
921.477	14039
921.587	14035
921.697	13875
921.806	13917
921.916	13921
922.025	13651
922.134	13655
922.244	13628
922.353	13719
922.462	13552
922.571	13472
922.68	13362
922.789	13236
922.898	13331
923.007	13289
923.116	13301
923.224	13266
923.333	13289
923.442	13183
923.55	13145
923.659	13171
923.767	13168
923.876	13095
923.984	13129
924.092	12939
924.201	13133
924.309	13027
924.417	13057
924.525	12970
924.633	13027
924.741	13917
924.849	12814
924.956	12882
925.064	12753
925.172	12646
925.279	12688
925.387	12734
925.494	12665
925.602	12764
925.709	12768
925.816	12574
925.924	12650
926.031	12795
926.138	12597
926.245	12741
926.352	12582
926.459	12764
926.566	12722
926.673	12559
926.779	12395
926.886	12486
926.993	12330
927.099	12296
927.206	12232
927.312	12194
927.419	12334
927.525	12270
927.631	12292
927.737	12205
927.843	12190
927.95	12022
928.056	12125
928.162	12114
928.267	12148
928.373	12776
928.479	12205
928.585	11893
928.69	12079
928.796	12011
928.901	11961
929.007	11889
929.112	12026
929.218	11901
929.323	11859
929.428	11893
929.533	11958
929.638	11786
929.743	11748
929.848	11859
929.953	11726
930.058	11798
930.163	11547
930.267	11474
930.372	11649
930.477	11585
930.581	11741
930.685	11570
930.79	11448
930.894	11490
930.998	11379
931.103	11512
931.207	11105
931.311	11178
931.415	11056
931.519	10820
931.623	10843
