Data from test_V78500241_2871.txt Node
Date: Fri Mar 25 15:29:51 CST 2022
User: usil
Spectrometer: V785-0024
Trigger mode: 0
Integration Time (sec): 4.000000E-1
Scans to average: 1
Nonlinearity correction enabled: false
Boxcar width: 0
Storing dark spectrum: false
XAxis mode: Wavelengths
Number of Pixels in Spectrum: 1024
>>>>>Begin Spectral Data<<<<<
801.071	27233
801.214	27127
801.356	26788
801.499	26765
801.641	26686
801.783	26735
801.926	26826
802.068	26739
802.211	26609
802.353	26697
802.496	26400
802.638	26434
802.78	26404
802.923	26385
803.065	26202
803.208	26351
803.35	26332
803.492	26446
803.635	26465
803.777	26404
803.919	26587
804.061	26834
804.204	26545
804.346	26450
804.488	26434
804.63	26438
804.773	26320
804.915	26613
805.057	26640
805.199	26317
805.341	26427
805.483	26689
805.626	26663
805.768	26590
805.91	26545
806.052	26667
806.194	26606
806.336	26777
806.478	26659
806.62	26682
806.762	26731
806.904	26891
807.046	27032
807.188	26948
807.33	27100
807.472	27112
807.614	27036
807.756	27001
807.898	26731
808.04	26891
808.182	26819
808.324	26994
808.465	26891
808.607	27062
808.749	27108
808.891	27230
809.033	27477
809.174	27389
809.316	27241
809.458	27268
809.6	27146
809.741	27370
809.883	27192
810.025	27530
810.166	27519
810.308	27542
810.45	27351
810.591	27469
810.733	27310
810.875	27100
811.016	27119
811.158	27146
811.299	27222
811.441	27313
811.582	27355
811.724	27195
811.865	27116
812.007	27093
812.148	27119
812.29	27241
812.431	27313
812.573	27644
812.714	27534
812.855	27656
812.997	27823
813.138	27873
813.279	27850
813.421	27698
813.562	27648
813.703	27450
813.845	27462
813.986	27135
814.127	27017
814.268	26925
814.41	26811
814.551	26826
814.692	26845
814.833	26705
814.974	26883
815.115	26804
815.256	26777
815.397	26670
815.539	26739
815.68	26556
815.821	26602
815.962	26655
816.103	26636
816.244	26446
816.385	26541
816.526	26427
816.666	26267
816.807	26233
816.948	26240
817.089	26180
817.23	26168
817.371	26115
817.512	26301
817.653	26145
817.793	26008
817.934	26145
818.075	26107
818.216	26126
818.356	26164
818.497	25966
818.638	25936
818.778	25879
818.919	25807
819.06	25909
819.2	25902
819.341	26005
819.481	26054
819.622	26271
819.762	26423
819.903	26453
820.043	26263
820.184	26202
820.324	26336
820.465	26305
820.605	26233
820.746	26180
820.886	26119
821.026	26138
821.167	26134
821.307	26240
821.447	26191
821.588	25974
821.728	25921
821.868	25799
822.008	25548
822.149	25487
822.289	25620
822.429	25411
822.569	25407
822.709	25350
822.849	25031
822.99	25148
823.13	25000
823.27	24954
823.41	24867
823.55	24783
823.69	24787
823.83	24882
823.97	24825
824.11	24593
824.25	24669
824.389	24604
824.529	24844
824.669	24772
824.809	24863
824.949	24848
825.089	24859
825.228	24757
825.368	24684
825.508	24616
825.648	24544
825.787	24540
825.927	24642
826.067	24661
826.206	24513
826.346	24433
826.485	24764
826.625	24722
826.765	24589
826.904	24608
827.044	24452
827.183	24239
827.323	24327
827.462	24334
827.601	24376
827.741	24258
827.88	24323
828.02	23988
828.159	24262
828.298	24281
828.437	24281
828.577	24205
828.716	24372
828.855	24296
828.994	23961
829.134	23946
829.273	23939
829.412	23904
829.551	23969
829.69	24026
829.829	24117
829.968	23999
830.107	24102
830.246	24030
830.385	23893
830.524	23912
830.663	23973
830.802	23703
830.941	23657
831.08	23482
831.219	23638
831.357	23703
831.496	23817
831.635	23589
831.774	23520
831.913	23463
832.051	23341
832.19	23406
832.329	23436
832.467	23383
832.606	23223
832.744	23223
832.883	23280
833.022	23086
833.16	23162
833.299	23178
833.437	23273
833.576	23391
833.714	23368
833.852	23330
833.991	23322
834.129	23341
834.267	23417
834.406	23235
834.544	23360
834.682	23280
834.821	23261
834.959	23520
835.097	23223
835.235	23379
835.373	23334
835.511	23216
835.65	23235
835.788	23155
835.926	23014
836.064	23037
836.202	23003
836.34	23098
836.478	23185
836.615	23056
836.753	23197
836.891	23235
837.029	23159
837.167	23033
837.305	22976
837.443	23064
837.58	23041
837.718	23102
837.856	23117
837.993	22915
838.131	23018
838.269	22820
838.406	22881
838.544	22850
838.681	22634
838.819	22683
838.956	22421
839.094	22531
839.231	22508
839.369	22618
839.506	22927
839.643	22771
839.781	22481
839.918	22424
840.055	22535
840.193	22481
840.33	22535
840.467	22424
840.604	22489
840.742	22668
840.879	22379
841.016	22261
841.153	22257
841.29	22542
841.427	22344
841.564	22481
841.701	22371
841.838	22322
841.975	22409
842.112	22478
842.249	22249
842.385	22268
842.522	22417
842.659	22242
842.796	22188
842.933	22207
843.069	22086
843.206	22101
843.343	22116
843.479	21994
843.616	22128
843.752	21953
843.889	22128
844.025	22078
844.162	21800
844.298	21968
844.435	21918
844.571	21922
844.708	21922
844.844	21968
844.98	22090
845.117	22105
845.253	21911
845.389	21804
845.525	21838
845.661	21778
845.798	21663
845.934	21778
846.07	21717
846.206	21599
846.342	21819
846.478	21732
846.614	21523
846.75	21382
846.886	21443
847.022	21523
847.158	21389
847.294	21481
847.429	21454
847.565	21412
847.701	21755
847.837	21146
847.972	21222
848.108	21203
848.244	21249
848.379	21085
848.515	20921
848.65	20986
848.786	20842
848.921	21089
849.057	21157
849.192	21047
849.328	21043
849.463	20952
849.598	20986
849.734	20868
849.869	20823
850.004	20758
850.14	20796
850.275	20773
850.41	20746
850.545	20762
850.68	20705
850.815	20735
850.95	20636
851.085	20902
851.22	20792
851.355	20861
851.49	20788
851.625	20762
851.76	20705
851.895	20644
852.03	20648
852.165	20686
852.299	20731
852.434	20724
852.569	20826
852.703	20765
852.838	20754
852.973	20925
853.107	20963
853.242	20750
853.376	20621
853.511	20476
853.645	20533
853.78	20701
853.914	20552
854.048	20522
854.183	20545
854.317	20667
854.451	20830
854.585	20659
854.72	20659
854.854	20735
854.988	20556
855.122	20560
855.256	20545
855.39	20712
855.524	20640
855.658	20651
855.792	20579
855.926	20613
856.06	20606
856.194	20773
856.327	20663
856.461	20564
856.595	20632
856.729	20609
856.862	20670
856.996	20613
857.13	20724
857.263	20644
857.397	20689
857.53	20560
857.664	20651
857.797	20571
857.931	20762
858.064	20560
858.197	20609
858.331	20594
858.464	20461
858.597	20511
858.731	20575
858.864	20579
858.997	20594
859.13	20571
859.263	20545
859.396	20625
859.529	20537
859.662	20537
859.795	20495
859.928	20651
860.061	20891
860.194	20819
860.327	20579
860.46	20533
860.592	20693
860.725	20636
860.858	20686
860.99	20571
861.123	20556
861.256	20457
861.388	20583
861.521	21408
861.653	20495
861.786	20282
861.918	20438
862.05	20530
862.183	20560
862.315	20507
862.447	20617
862.58	20446
862.712	20389
862.844	20267
862.976	20328
863.108	20404
863.24	20785
863.372	20195
863.504	20263
863.636	20282
863.768	20404
863.9	20313
864.032	20206
864.164	20374
864.296	20233
864.428	20343
864.559	20366
864.691	20370
864.823	20233
864.954	20225
865.086	20256
865.217	20244
865.349	20168
865.48	20240
865.612	20149
865.743	20233
865.875	20180
866.006	20153
866.137	20145
866.269	20161
866.4	20218
866.531	20187
866.662	20202
866.793	20077
866.924	20103
867.055	20145
867.186	20164
867.317	20058
867.448	20096
867.579	20126
867.71	20035
867.841	19944
867.972	20138
868.103	20031
868.233	20161
868.364	20122
868.495	20244
868.625	20404
868.756	20370
868.886	20377
869.017	20263
869.147	20427
869.278	20533
869.408	20476
869.539	20419
869.669	20492
869.799	20351
869.929	20442
870.06	20454
870.19	20720
870.32	20727
870.45	20743
870.58	20899
870.71	20876
870.84	20792
870.97	20807
871.1	20834
871.23	20910
871.36	21032
871.489	20834
871.619	20880
871.749	20895
871.879	21077
872.008	21108
872.138	21028
872.267	20941
872.397	20796
872.526	20868
872.656	20807
872.785	20762
872.915	20971
873.044	21108
873.173	21013
873.303	21017
873.432	21001
873.561	21161
873.69	20994
873.819	20937
873.948	21009
874.077	20956
874.206	21077
874.335	21055
874.464	21138
874.593	21268
874.722	21150
874.851	21275
874.979	21336
875.108	21291
875.237	21157
875.365	21135
875.494	21199
875.623	21291
875.751	21260
875.88	21412
876.008	21348
876.136	21466
876.265	21572
876.393	21705
876.521	21682
876.65	21591
876.778	21641
876.906	21519
877.034	21576
877.162	21587
877.29	21515
877.418	21435
877.546	21656
877.674	21599
877.802	21679
877.93	21553
878.058	21526
878.185	21515
878.313	21507
878.441	21603
878.568	21511
878.696	21523
878.824	21561
878.951	21656
879.079	21766
879.206	21873
879.333	21538
879.461	21545
879.588	21709
879.715	21656
879.842	21869
879.97	21644
880.097	21344
880.224	21393
880.351	21530
880.478	21424
880.605	21382
880.732	21473
880.859	21557
880.986	21450
881.112	21435
881.239	21264
881.366	21154
881.493	21036
881.619	21058
881.746	20994
881.872	20979
881.999	20952
882.125	20960
882.252	21020
882.378	20963
882.505	21032
882.631	20891
882.757	20788
882.883	20720
883.01	20693
883.136	20682
883.262	20644
883.388	20530
883.514	20655
883.64	20826
883.766	20716
883.892	20556
884.018	20590
884.143	20674
884.269	20788
884.395	20469
884.52	20244
884.646	20400
884.772	20225
884.897	20248
885.023	20282
885.148	20404
885.274	20495
885.399	20484
885.524	20427
885.65	20415
885.775	20324
885.9	20317
886.025	20473
886.15	20412
886.275	20419
886.4	20298
886.525	20393
886.65	20263
886.775	20145
886.9	20476
887.025	20609
887.149	20320
887.274	20100
887.399	20107
887.523	20077
887.648	20073
887.773	19989
887.897	20142
888.021	20142
888.146	20012
888.27	20225
888.395	20195
888.519	20271
888.643	20225
888.767	20138
888.891	20065
889.015	20046
889.139	19978
889.263	19875
889.387	20035
889.511	20134
889.635	19913
889.759	20031
889.883	19909
890.006	19917
890.13	20024
890.254	19860
890.377	19795
890.501	19666
890.624	19647
890.748	19677
890.871	19590
890.995	19476
891.118	19499
891.241	19556
891.364	19464
891.488	19696
891.611	19499
891.734	19571
891.857	19476
891.98	19666
892.103	19552
892.226	19487
892.349	19518
892.471	19320
892.594	19491
892.717	19510
892.839	19343
892.962	19468
893.085	19506
893.207	19388
893.33	19362
893.452	19274
893.575	19449
893.697	19320
893.819	19609
893.941	19632
894.064	19506
894.186	19373
894.308	19373
894.43	19548
894.552	19693
894.674	19590
894.796	19411
894.918	19411
895.04	19289
895.161	19487
895.283	19597
895.405	19426
895.526	19434
895.648	19331
895.769	19476
895.891	19495
896.012	19525
896.134	19434
896.255	19529
896.376	19438
896.498	19480
896.619	19434
896.74	19388
896.861	19445
896.982	19856
897.103	19883
897.224	19765
897.345	19670
897.466	19590
897.587	19624
897.708	19803
897.828	19742
897.949	19586
898.07	19540
898.19	19571
898.311	19799
898.431	19655
898.552	19696
898.672	19822
898.792	19791
898.913	19761
899.033	19533
899.153	19468
899.273	19521
899.393	19384
899.513	19582
899.633	19499
899.753	19540
899.873	19327
899.993	19441
900.113	19350
900.232	19502
900.352	19415
900.472	19236
900.591	19179
900.711	19129
900.83	19061
900.95	19327
901.069	19327
901.189	19152
901.308	19008
901.427	18875
901.546	18760
901.665	18802
901.784	18837
901.904	18734
902.023	18688
902.141	18532
902.26	18536
902.379	18494
902.498	18403
902.617	18323
902.735	18441
902.854	18330
902.973	18251
903.091	18091
903.21	18114
903.328	17996
903.446	17916
903.565	17882
903.683	17828
903.801	17756
903.919	17821
904.038	17798
904.156	17547
904.274	17726
904.392	17642
904.51	17729
904.627	17646
904.745	17653
904.863	17630
904.981	17444
905.098	17311
905.216	17303
905.334	17265
905.451	17337
905.569	17216
905.686	17410
905.803	17227
905.921	17132
906.038	17041
906.155	17155
906.272	16869
906.389	16972
906.506	16869
906.623	16862
906.74	16828
906.857	16702
906.974	16858
907.091	16850
907.208	16946
907.324	16850
907.441	16599
907.557	16622
907.674	16546
907.79	16451
907.907	16466
908.023	16615
908.139	16519
908.256	16451
908.372	16402
908.488	16459
908.604	16303
908.72	16249
908.836	16360
908.952	16223
909.068	16379
909.184	16413
909.3	16303
909.415	16303
909.531	16261
909.647	16112
909.762	16021
909.878	15998
909.993	15953
910.108	15979
910.224	15857
910.339	15987
910.454	15808
910.57	15774
910.685	15701
910.8	16059
910.915	15873
911.03	15751
911.145	15667
911.259	15572
911.374	15610
911.489	15519
911.604	15485
911.718	15298
911.833	15313
911.947	15249
912.062	15192
912.176	15340
912.291	15428
912.405	15298
912.519	15519
912.633	15523
912.748	15321
912.862	15230
912.976	15135
913.09	14948
913.204	15077
913.318	15195
913.431	15233
913.545	15207
913.659	15154
913.772	15066
913.886	15039
914	15055
914.113	15074
914.226	15108
914.34	15074
914.453	14811
914.566	15066
914.68	14842
914.793	14842
914.906	14598
915.019	14606
915.132	14530
915.245	14560
915.358	14484
915.47	14530
915.583	14556
915.696	14682
915.809	14686
915.921	14743
916.034	14571
916.146	14469
916.259	14541
916.371	14655
916.483	14621
916.595	14446
916.708	14427
916.82	14454
916.932	14389
917.044	14446
917.156	14404
917.268	14278
917.38	14286
917.491	14320
917.603	14183
917.715	14412
917.826	14454
917.938	14199
918.049	14123
918.161	14164
918.272	14282
918.384	14313
918.495	14267
918.606	14005
918.717	14050
918.828	14046
918.939	14016
919.05	13959
919.161	14012
919.272	13841
919.383	13841
919.494	14092
919.604	14237
919.715	13982
919.826	14050
919.936	13898
920.047	14134
920.157	13944
920.267	14183
920.378	14043
920.488	14020
920.598	14229
920.708	14313
920.818	14126
920.928	14130
921.038	14294
921.148	14252
921.258	13978
921.368	13879
921.477	13788
921.587	13685
921.697	13712
921.806	13772
921.916	13647
922.025	13426
922.134	13514
922.244	13426
922.353	13419
922.462	13255
922.571	13240
922.68	12970
922.789	13091
922.898	13107
923.007	12981
923.116	13015
923.224	13034
923.333	13015
923.442	12875
923.55	12920
923.659	12958
923.767	12909
923.876	12829
923.984	12810
924.092	12703
924.201	12814
924.309	12837
924.417	12821
924.525	12772
924.633	12871
924.741	13586
924.849	12582
924.956	12604
925.064	12551
925.172	12509
925.279	12426
925.387	12559
925.494	12464
925.602	12620
925.709	12467
925.816	12376
925.924	12441
926.031	12486
926.138	12467
926.245	12475
926.352	12376
926.459	12479
926.566	12509
926.673	12422
926.779	12216
926.886	12228
926.993	12087
927.099	12076
927.206	11950
927.312	12087
927.419	12125
927.525	12083
927.631	12125
927.737	12007
927.843	11897
927.95	11847
928.056	11882
928.162	11908
928.267	11954
928.373	12513
928.479	12038
928.585	11783
928.69	11840
928.796	11901
928.901	11908
929.007	11668
929.112	11779
929.218	11828
929.323	11604
929.428	11691
929.533	11855
929.638	11615
929.743	11634
929.848	11661
929.953	11619
930.058	11478
930.163	11334
930.267	11417
930.372	11497
930.477	11311
930.581	11570
930.685	11402
930.79	11223
930.894	11322
930.998	11216
931.103	11326
931.207	10984
931.311	10938
931.415	10854
931.519	10645
931.623	10637
