Data from test_V78500241_3039.txt Node
Date: Fri Mar 25 15:31:01 CST 2022
User: usil
Spectrometer: V785-0024
Trigger mode: 0
Integration Time (sec): 4.000000E-1
Scans to average: 1
Nonlinearity correction enabled: false
Boxcar width: 0
Storing dark spectrum: false
XAxis mode: Wavelengths
Number of Pixels in Spectrum: 1024
>>>>>Begin Spectral Data<<<<<
801.071	27336
801.214	27252
801.356	27108
801.499	27028
801.641	26796
801.783	26765
801.926	26788
802.068	26883
802.211	26864
802.353	26667
802.496	26552
802.638	26400
802.78	26347
802.923	26408
803.065	26503
803.208	26400
803.35	26396
803.492	26629
803.635	26655
803.777	26552
803.919	26773
804.061	26902
804.204	26667
804.346	26598
804.488	26556
804.63	26530
804.773	26480
804.915	26575
805.057	26648
805.199	26659
805.341	26712
805.483	26674
805.626	26640
805.768	26503
805.91	26788
806.052	26754
806.194	26609
806.336	26804
806.478	26720
806.62	26682
806.762	26796
806.904	26956
807.046	27268
807.188	27192
807.33	27062
807.472	27161
807.614	27146
807.756	27195
807.898	26986
808.04	26838
808.182	26929
808.324	27047
808.465	26998
808.607	27214
808.749	27298
808.891	27374
809.033	27473
809.174	27416
809.316	27275
809.458	27351
809.6	27173
809.741	27466
809.883	27412
810.025	27610
810.166	27530
810.308	27625
810.45	27576
810.591	27469
810.733	27287
810.875	27469
811.016	27310
811.158	27336
811.299	27408
811.441	27568
811.582	27344
811.724	27431
811.865	27230
812.007	27127
812.148	27355
812.29	27283
812.431	27538
812.573	27629
812.714	27701
812.855	27732
812.997	27907
813.138	28124
813.279	27884
813.421	27857
813.562	27622
813.703	27633
813.845	27568
813.986	27192
814.127	27058
814.268	26883
814.41	27077
814.551	26872
814.692	26880
814.833	26956
814.974	27032
815.115	27020
815.256	26940
815.397	26861
815.539	26895
815.68	26838
815.821	26689
815.962	26686
816.103	26636
816.244	26602
816.385	26423
816.526	26453
816.666	26343
816.807	26218
816.948	26374
817.089	26298
817.23	26374
817.371	26313
817.512	26263
817.653	26218
817.793	26172
817.934	26237
818.075	26138
818.216	26202
818.356	26126
818.497	26012
818.638	25944
818.778	26008
818.919	25966
819.06	25925
819.2	26065
819.341	26218
819.481	26195
819.622	26328
819.762	26575
819.903	26434
820.043	26530
820.184	26248
820.324	26332
820.465	26393
820.605	26377
820.746	26355
820.886	26084
821.026	26381
821.167	26267
821.307	26370
821.447	26157
821.588	26062
821.728	25944
821.868	25845
822.008	25830
822.149	25780
822.289	25582
822.429	25426
822.569	25400
822.709	25350
822.849	25126
822.99	25266
823.13	25152
823.27	25183
823.41	24977
823.55	24829
823.69	25004
823.83	25057
823.97	25004
824.11	24745
824.25	24620
824.389	24719
824.529	24871
824.669	24802
824.809	24886
824.949	24821
825.089	24992
825.228	24916
825.368	24608
825.508	24498
825.648	24627
825.787	24650
825.927	24757
826.067	24669
826.206	24642
826.346	24840
826.485	24764
826.625	24688
826.765	24837
826.904	24646
827.044	24563
827.183	24407
827.323	24300
827.462	24372
827.601	24334
827.741	24346
827.88	24426
828.02	24342
828.159	24315
828.298	24308
828.437	24388
828.577	24224
828.716	24452
828.855	24315
828.994	24102
829.134	23988
829.273	24026
829.412	23992
829.551	23824
829.69	23942
829.829	24064
829.968	24057
830.107	24114
830.246	24209
830.385	23984
830.524	24106
830.663	23885
830.802	23824
830.941	23687
831.08	23729
831.219	23783
831.357	23904
831.496	23908
831.635	23672
831.774	23570
831.913	23467
832.051	23421
832.19	23425
832.329	23528
832.467	23433
832.606	23345
832.744	23334
832.883	23273
833.022	23406
833.16	23277
833.299	23455
833.437	23429
833.576	23417
833.714	23299
833.852	23478
833.991	23414
834.129	23531
834.267	23474
834.406	23566
834.544	23482
834.682	23318
834.821	23330
834.959	23558
835.097	23345
835.235	23455
835.373	23406
835.511	23398
835.65	23235
835.788	23208
835.926	23052
836.064	22995
836.202	23155
836.34	23246
836.478	23402
836.615	23178
836.753	23273
836.891	23239
837.029	23318
837.167	23231
837.305	23060
837.443	22968
837.58	23056
837.718	23117
837.856	23208
837.993	23018
838.131	23098
838.269	23029
838.406	22854
838.544	22911
838.681	22687
838.819	22790
838.956	22508
839.094	22523
839.231	22538
839.369	22622
839.506	22980
839.643	22767
839.781	22588
839.918	22497
840.055	22725
840.193	22508
840.33	22478
840.467	22417
840.604	22588
840.742	22858
840.879	22436
841.016	22466
841.153	22303
841.29	22660
841.427	22516
841.564	22561
841.701	22432
841.838	22447
841.975	22394
842.112	22394
842.249	22314
842.385	22344
842.522	22489
842.659	22265
842.796	22280
842.933	22291
843.069	22242
843.206	22215
843.343	22341
843.479	22303
843.616	22223
843.752	22082
843.889	22112
844.025	22154
844.162	22010
844.298	22166
844.435	21991
844.571	21964
844.708	22029
844.844	22093
844.98	22249
845.117	22086
845.253	21983
845.389	21797
845.525	21861
845.661	21778
845.798	21759
845.934	21732
846.07	21736
846.206	21819
846.342	21895
846.478	21690
846.614	21549
846.75	21485
846.886	21488
847.022	21534
847.158	21412
847.294	21519
847.429	21500
847.565	21481
847.701	21705
847.837	21169
847.972	21203
848.108	21252
848.244	21389
848.379	21119
848.515	21005
848.65	21024
848.786	21154
848.921	21013
849.057	21218
849.192	21119
849.328	21001
849.463	21123
849.598	20979
849.734	21055
849.869	20872
850.004	20765
850.14	20960
850.275	20906
850.41	20819
850.545	20731
850.68	20746
850.815	20838
850.95	20773
851.085	21085
851.22	20887
851.355	20952
851.49	20842
851.625	20834
851.76	20933
851.895	20906
852.03	20746
852.165	20849
852.299	20933
852.434	20883
852.569	20921
852.703	20887
852.838	20868
852.973	20994
853.107	20944
853.242	20944
853.376	20716
853.511	20613
853.645	20648
853.78	20746
853.914	20716
854.048	20686
854.183	20689
854.317	20724
854.451	20906
854.585	20636
854.72	20655
854.854	20629
854.988	20648
855.122	20575
855.256	20587
855.39	20648
855.524	20720
855.658	20773
855.792	20674
855.926	20758
856.06	20743
856.194	20594
856.327	20598
856.461	20632
856.595	20682
856.729	20564
856.862	20659
856.996	20731
857.13	20720
857.263	20746
857.397	20659
857.53	20712
857.664	20598
857.797	20720
857.931	20891
858.064	20701
858.197	20689
858.331	20648
858.464	20701
858.597	20488
858.731	20636
858.864	20571
858.997	20594
859.13	20689
859.263	20708
859.396	20815
859.529	20716
859.662	20697
859.795	20750
859.928	20743
860.061	20834
860.194	20876
860.327	20731
860.46	20689
860.592	20705
860.725	20773
860.858	20811
860.99	20792
861.123	20499
861.256	20629
861.388	20720
861.521	21298
861.653	20488
861.786	20408
861.918	20514
862.05	20438
862.183	20648
862.315	20670
862.447	20541
862.58	20587
862.712	20408
862.844	20362
862.976	20518
863.108	20465
863.24	20811
863.372	20271
863.504	20358
863.636	20157
863.768	20374
863.9	20389
864.032	20275
864.164	20434
864.296	20549
864.428	20465
864.559	20511
864.691	20450
864.823	20332
864.954	20446
865.086	20393
865.217	20275
865.349	20347
865.48	20233
865.612	20286
865.743	20385
865.875	20294
866.006	20210
866.137	20328
866.269	20206
866.4	20343
866.531	20233
866.662	20119
866.793	20294
866.924	20233
867.055	20259
867.186	20275
867.317	20168
867.448	20122
867.579	20282
867.71	20100
867.841	20138
867.972	20320
868.103	20210
868.233	20309
868.364	20202
868.495	20358
868.625	20564
868.756	20594
868.886	20366
869.017	20446
869.147	20355
869.278	20564
869.408	20412
869.539	20484
869.669	20511
869.799	20454
869.929	20629
870.06	20629
870.19	20769
870.32	20838
870.45	20830
870.58	20743
870.71	20979
870.84	20967
870.97	20899
871.1	20842
871.23	20864
871.36	21001
871.489	21028
871.619	20982
871.749	21119
871.879	21127
872.008	21161
872.138	21146
872.267	21039
872.397	20982
872.526	20811
872.656	20819
872.785	20952
872.915	21077
873.044	21302
873.173	21135
873.303	21085
873.432	21241
873.561	21142
873.69	21036
873.819	21154
873.948	21009
874.077	21104
874.206	20979
874.335	21009
874.464	21283
874.593	21378
874.722	21370
874.851	21340
874.979	21447
875.108	21378
875.237	21329
875.365	21233
875.494	21416
875.623	21447
875.751	21370
875.88	21367
876.008	21633
876.136	21614
876.265	21808
876.393	21819
876.521	21846
876.65	21819
876.778	21728
876.906	21629
877.034	21724
877.162	21720
877.29	21618
877.418	21797
877.546	21603
877.674	21739
877.802	21641
877.93	21583
878.058	21576
878.185	21595
878.313	21652
878.441	21705
878.568	21545
878.696	21656
878.824	21755
878.951	21755
879.079	21850
879.206	21892
879.333	21907
879.461	21720
879.588	21846
879.715	21846
879.842	21892
879.97	21831
880.097	21447
880.224	21534
880.351	21469
880.478	21542
880.605	21397
880.732	21557
880.859	21690
880.986	21389
881.112	21564
881.239	21408
881.366	21150
881.493	21245
881.619	21180
881.746	21093
881.872	20979
881.999	21100
882.125	21024
882.252	21123
882.378	21039
882.505	21157
882.631	21028
882.757	20910
882.883	20807
883.01	20819
883.136	20811
883.262	20602
883.388	20625
883.514	20842
883.64	20857
883.766	20769
883.892	20575
884.018	20636
884.143	20587
884.269	20838
884.395	20495
884.52	20488
884.646	20514
884.772	20370
884.897	20434
885.023	20404
885.148	20583
885.274	20644
885.399	20541
885.524	20320
885.65	20457
885.775	20465
885.9	20450
886.025	20522
886.15	20575
886.275	20408
886.4	20275
886.525	20530
886.65	20389
886.775	20313
886.9	20503
887.025	20594
887.149	20415
887.274	20164
887.399	20199
887.523	20183
887.648	20206
887.773	20130
887.897	20320
888.021	20282
888.146	20103
888.27	20355
888.395	20317
888.519	20271
888.643	20389
888.767	20256
888.891	20218
889.015	20088
889.139	20096
889.263	20024
889.387	20096
889.511	20263
889.635	20225
889.759	20039
889.883	19906
890.006	20092
890.13	20176
890.254	19883
890.377	19902
890.501	19693
890.624	19776
890.748	19883
890.871	19715
890.995	19518
891.118	19639
891.241	19609
891.364	19666
891.488	19700
891.611	19563
891.734	19693
891.857	19723
891.98	19647
892.103	19594
892.226	19632
892.349	19540
892.471	19419
892.594	19632
892.717	19483
892.839	19495
892.962	19537
893.085	19514
893.207	19544
893.33	19419
893.452	19476
893.575	19616
893.697	19552
893.819	19696
893.941	19723
894.064	19628
894.186	19483
894.308	19377
894.43	19681
894.552	19772
894.674	19643
894.796	19582
894.918	19464
895.04	19510
895.161	19556
895.283	19559
895.405	19373
895.526	19434
895.648	19594
895.769	19495
895.891	19552
896.012	19544
896.134	19556
896.255	19480
896.376	19487
896.498	19563
896.619	19533
896.74	19518
896.861	19525
896.982	19791
897.103	20012
897.224	19864
897.345	19666
897.466	19635
897.587	19734
897.708	19909
897.828	19837
897.949	19704
898.07	19556
898.19	19761
898.311	19917
898.431	19715
898.552	19712
898.672	19791
898.792	19913
898.913	19780
899.033	19693
899.153	19693
899.273	19438
899.393	19457
899.513	19601
899.633	19559
899.753	19556
899.873	19468
899.993	19445
900.113	19419
900.232	19582
900.352	19384
900.472	19400
900.591	19331
900.711	19403
900.83	19278
900.95	19453
901.069	19460
901.189	19031
901.308	19084
901.427	18890
901.546	19034
901.665	18798
901.784	18989
901.904	18859
902.023	18574
902.141	18521
902.26	18357
902.379	18513
902.498	18384
902.617	18422
902.735	18494
902.854	18342
902.973	18292
903.091	18125
903.21	18114
903.328	18121
903.446	18026
903.565	17878
903.683	18034
903.801	17786
903.919	17821
904.038	17885
904.156	17653
904.274	17752
904.392	17638
904.51	17653
904.627	17623
904.745	17699
904.863	17661
904.981	17573
905.098	17261
905.216	17421
905.334	17387
905.451	17288
905.569	17280
905.686	17467
905.803	17452
905.921	17140
906.038	17166
906.155	17147
906.272	17067
906.389	17037
906.506	16949
906.623	16908
906.74	16866
906.857	16721
906.974	16801
907.091	16919
907.208	16968
907.324	16957
907.441	16752
907.557	16710
907.674	16702
907.79	16615
907.907	16519
908.023	16569
908.139	16668
908.256	16519
908.372	16550
908.488	16447
908.604	16417
908.72	16371
908.836	16329
908.952	16257
909.068	16371
909.184	16474
909.3	16394
909.415	16341
909.531	16341
909.647	16166
909.762	16051
909.878	15991
909.993	16078
910.108	16105
910.224	16013
910.339	16055
910.454	15880
910.57	15937
910.685	15781
910.8	16032
910.915	15922
911.03	15846
911.145	15789
911.259	15705
911.374	15671
911.489	15587
911.604	15481
911.718	15412
911.833	15329
911.947	15329
912.062	15302
912.176	15530
912.291	15439
912.405	15435
912.519	15580
912.633	15648
912.748	15496
912.862	15321
912.976	15142
913.09	15081
913.204	15180
913.318	15192
913.431	15252
913.545	15317
913.659	15268
913.772	15249
913.886	15036
914	15005
914.113	15081
914.226	15173
914.34	15051
914.453	15028
914.566	15047
914.68	14842
914.793	14918
914.906	14629
915.019	14587
915.132	14651
915.245	14583
915.358	14613
915.47	14659
915.583	14632
915.696	14686
915.809	14708
915.921	14796
916.034	14590
916.146	14560
916.259	14530
916.371	14594
916.483	14590
916.595	14495
916.708	14415
916.82	14465
916.932	14404
917.044	14431
917.156	14530
917.268	14271
917.38	14362
917.491	14328
917.603	14301
917.715	14370
917.826	14393
917.938	14309
918.049	14123
918.161	14267
918.272	14434
918.384	14377
918.495	14301
918.606	14214
918.717	14008
918.828	14130
918.939	14050
919.05	13967
919.161	14005
919.272	13940
919.383	13940
919.494	14123
919.604	14286
919.715	14115
919.826	13989
919.936	14111
920.047	14214
920.157	14035
920.267	14191
920.378	14115
920.488	13982
920.598	14145
920.708	14381
920.818	14229
920.928	14183
921.038	14385
921.148	14309
921.258	13986
921.368	13989
921.477	13814
921.587	13807
921.697	13738
921.806	13807
921.916	13643
922.025	13510
922.134	13339
922.244	13521
922.353	13529
922.462	13316
922.571	13255
922.68	13110
922.789	13084
922.898	13103
923.007	13027
923.116	13095
923.224	13027
923.333	13103
923.442	13012
923.55	12943
923.659	12935
923.767	12973
923.876	12856
923.984	12875
924.092	12890
924.201	12867
924.309	12844
924.417	12730
924.525	12760
924.633	12749
924.741	13772
924.849	12578
924.956	12681
925.064	12536
925.172	12509
925.279	12506
925.387	12650
925.494	12547
925.602	12688
925.709	12677
925.816	12452
925.924	12498
926.031	12513
926.138	12490
926.245	12513
926.352	12380
926.459	12616
926.566	12597
926.673	12525
926.779	12251
926.886	12262
926.993	12178
927.099	12159
927.206	12076
927.312	12114
927.419	12175
927.525	12038
927.631	12144
927.737	12072
927.843	11954
927.95	11847
928.056	11950
928.162	12041
928.267	11980
928.373	12506
928.479	12038
928.585	11767
928.69	11958
928.796	12026
928.901	11828
929.007	11756
929.112	11855
929.218	11798
929.323	11764
929.428	11726
929.533	11821
929.638	11596
929.743	11615
929.848	11741
929.953	11600
930.058	11600
930.163	11406
930.267	11353
930.372	11528
930.477	11330
930.581	11532
930.685	11387
930.79	11410
930.894	11273
930.998	11250
931.103	11376
931.207	10980
931.311	10919
931.415	10885
931.519	10622
931.623	10702
