Data from test_V78500241_3471.txt Node
Date: Fri Mar 25 15:34:01 CST 2022
User: usil
Spectrometer: V785-0024
Trigger mode: 0
Integration Time (sec): 4.000000E-1
Scans to average: 1
Nonlinearity correction enabled: false
Boxcar width: 0
Storing dark spectrum: false
XAxis mode: Wavelengths
Number of Pixels in Spectrum: 1024
>>>>>Begin Spectral Data<<<<<
801.071	27374
801.214	27226
801.356	27028
801.499	26960
801.641	26788
801.783	26853
801.926	26880
802.068	26834
802.211	26644
802.353	26606
802.496	26457
802.638	26518
802.78	26446
802.923	26385
803.065	26313
803.208	26404
803.35	26492
803.492	26590
803.635	26552
803.777	26530
803.919	26541
804.061	26979
804.204	26651
804.346	26514
804.488	26606
804.63	26545
804.773	26522
804.915	26602
805.057	26777
805.199	26560
805.341	26602
805.483	26644
805.626	26769
805.768	26621
805.91	26754
806.052	26575
806.194	26594
806.336	26807
806.478	26575
806.62	26720
806.762	26948
806.904	26944
807.046	27218
807.188	27161
807.33	27131
807.472	27119
807.614	27127
807.756	27135
807.898	26902
808.04	26940
808.182	26975
808.324	26944
808.465	27017
808.607	27264
808.749	27294
808.891	27313
809.033	27260
809.174	27344
809.316	27260
809.458	27310
809.6	27184
809.741	27313
809.883	27313
810.025	27431
810.166	27686
810.308	27587
810.45	27500
810.591	27492
810.733	27389
810.875	27233
811.016	27161
811.158	27154
811.299	27382
811.441	27492
811.582	27359
811.724	27241
811.865	27138
812.007	27405
812.148	27310
812.29	27466
812.431	27408
812.573	27603
812.714	27663
812.855	27690
812.997	27816
813.138	27842
813.279	27888
813.421	27819
813.562	27793
813.703	27530
813.845	27447
813.986	27051
814.127	27188
814.268	27055
814.41	26899
814.551	26796
814.692	27024
814.833	26944
814.974	27055
815.115	27001
815.256	26689
815.397	26823
815.539	26804
815.68	26754
815.821	26629
815.962	26811
816.103	26655
816.244	26514
816.385	26476
816.526	26511
816.666	26389
816.807	26115
816.948	26275
817.089	26381
817.23	26218
817.371	26263
817.512	26199
817.653	26081
817.793	26199
817.934	26214
818.075	26244
818.216	26290
818.356	26210
818.497	26065
818.638	25959
818.778	25921
818.919	25852
819.06	26012
819.2	26142
819.341	26191
819.481	26088
819.622	26355
819.762	26575
819.903	26579
820.043	26290
820.184	26286
820.324	26218
820.465	26431
820.605	26286
820.746	26221
820.886	26138
821.026	26202
821.167	26161
821.307	26237
821.447	26142
821.588	26096
821.728	26031
821.868	25826
822.008	25750
822.149	25765
822.289	25533
822.429	25472
822.569	25384
822.709	25343
822.849	25175
822.99	25213
823.13	25194
823.27	25198
823.41	25103
823.55	24844
823.69	24958
823.83	24920
823.97	24871
824.11	24684
824.25	24840
824.389	24859
824.529	24886
824.669	24764
824.809	24992
824.949	24886
825.089	25015
825.228	24829
825.368	24601
825.508	24559
825.648	24650
825.787	24601
825.927	24817
826.067	24692
826.206	24635
826.346	24734
826.485	24703
826.625	24692
826.765	24894
826.904	24700
827.044	24528
827.183	24502
827.323	24380
827.462	24483
827.601	24494
827.741	24407
827.88	24338
828.02	24315
828.159	24422
828.298	24456
828.437	24342
828.577	24247
828.716	24380
828.855	24266
828.994	24053
829.134	24102
829.273	24258
829.412	24060
829.551	24068
829.69	24057
829.829	24095
829.968	24216
830.107	24129
830.246	24079
830.385	24076
830.524	23901
830.663	23863
830.802	23878
830.941	23611
831.08	23665
831.219	23745
831.357	23726
831.496	23992
831.635	23745
831.774	23554
831.913	23528
832.051	23387
832.19	23436
832.329	23638
832.467	23436
832.606	23292
832.744	23501
832.883	23356
833.022	23299
833.16	23353
833.299	23356
833.437	23368
833.576	23368
833.714	23436
833.852	23512
833.991	23528
834.129	23558
834.267	23642
834.406	23467
834.544	23512
834.682	23535
834.821	23440
834.959	23676
835.097	23406
835.235	23592
835.373	23547
835.511	23505
835.65	23311
835.788	23330
835.926	23113
836.064	23159
836.202	23155
836.34	23337
836.478	23254
836.615	23273
836.753	23345
836.891	23379
837.029	23208
837.167	23334
837.305	23208
837.443	23162
837.58	23086
837.718	23216
837.856	23193
837.993	23098
838.131	23208
838.269	22987
838.406	23067
838.544	22938
838.681	22755
838.819	22755
838.956	22672
839.094	22668
839.231	22733
839.369	22771
839.506	22984
839.643	23025
839.781	22702
839.918	22580
840.055	22580
840.193	22645
840.33	22523
840.467	22618
840.604	22729
840.742	22733
840.879	22535
841.016	22478
841.153	22363
841.29	22634
841.427	22493
841.564	22664
841.701	22664
841.838	22702
841.975	22417
842.112	22466
842.249	22424
842.385	22344
842.522	22542
842.659	22455
842.796	22379
842.933	22333
843.069	22367
843.206	22299
843.343	22360
843.479	22432
843.616	22394
843.752	22116
843.889	22131
844.025	22200
844.162	22002
844.298	22291
844.435	22147
844.571	22143
844.708	22082
844.844	22310
844.98	22234
845.117	22215
845.253	22029
845.389	22063
845.525	21994
845.661	22090
845.798	21835
845.934	21972
846.07	21869
846.206	21941
846.342	21979
846.478	21964
846.614	21698
846.75	21576
846.886	21629
847.022	21667
847.158	21679
847.294	21591
847.429	21568
847.565	21561
847.701	21789
847.837	21374
847.972	21386
848.108	21367
848.244	21538
848.379	21287
848.515	21150
848.65	21142
848.786	21169
848.921	21157
849.057	21302
849.192	21260
849.328	21218
849.463	21283
849.598	21321
849.734	21066
849.869	21066
850.004	20986
850.14	20956
850.275	20933
850.41	20918
850.545	20861
850.68	20918
850.815	20937
850.95	20971
851.085	21180
851.22	21077
851.355	20998
851.49	20982
851.625	21013
851.76	20994
851.895	20762
852.03	20902
852.165	20800
852.299	21089
852.434	21081
852.569	20933
852.703	20956
852.838	20967
852.973	21119
853.107	21131
853.242	20902
853.376	20785
853.511	20644
853.645	20807
853.78	20971
853.914	20807
854.048	20758
854.183	20868
854.317	20918
854.451	20975
854.585	20750
854.72	20773
854.854	20785
854.988	20754
855.122	20769
855.256	20655
855.39	20735
855.524	20899
855.658	20697
855.792	20796
855.926	20815
856.06	20887
856.194	20807
856.327	20697
856.461	20754
856.595	20708
856.729	20819
856.862	20887
856.996	20743
857.13	20804
857.263	20830
857.397	20921
857.53	20792
857.664	20746
857.797	20963
857.931	20948
858.064	20765
858.197	20872
858.331	20876
858.464	20773
858.597	20731
858.731	20796
858.864	20902
858.997	20727
859.13	20735
859.263	20655
859.396	20864
859.529	20724
859.662	20754
859.795	20735
859.928	20785
860.061	20906
860.194	21009
860.327	20777
860.46	20804
860.592	20853
860.725	20979
860.858	20971
860.99	20724
861.123	20667
861.256	20705
861.388	20697
861.521	21511
861.653	20575
861.786	20663
861.918	20503
862.05	20705
862.183	20659
862.315	20735
862.447	20727
862.58	20777
862.712	20469
862.844	20473
862.976	20590
863.108	20465
863.24	20933
863.372	20499
863.504	20457
863.636	20366
863.768	20545
863.9	20427
864.032	20488
864.164	20552
864.296	20495
864.428	20511
864.559	20549
864.691	20667
864.823	20484
864.954	20560
865.086	20431
865.217	20374
865.349	20278
865.48	20415
865.612	20415
865.743	20480
865.875	20320
866.006	20396
866.137	20355
866.269	20431
866.4	20400
866.531	20374
866.662	20313
866.793	20351
866.924	20263
867.055	20336
867.186	20320
867.317	20282
867.448	20290
867.579	20355
867.71	20229
867.841	20259
867.972	20286
868.103	20370
868.233	20305
868.364	20396
868.495	20473
868.625	20442
868.756	20720
868.886	20503
869.017	20560
869.147	20735
869.278	20705
869.408	20579
869.539	20609
869.669	20674
869.799	20594
869.929	20739
870.06	20731
870.19	20853
870.32	20876
870.45	20975
870.58	21051
870.71	21108
870.84	21154
870.97	21032
871.1	21009
871.23	21096
871.36	21188
871.489	21047
871.619	21214
871.749	21268
871.879	21268
872.008	21329
872.138	21161
872.267	21264
872.397	21020
872.526	21017
872.656	21024
872.785	21017
872.915	21146
873.044	21180
873.173	21233
873.303	21241
873.432	21256
873.561	21230
873.69	21077
873.819	21230
873.948	21321
874.077	21173
874.206	21249
874.335	21351
874.464	21249
874.593	21458
874.722	21405
874.851	21523
874.979	21523
875.108	21367
875.237	21481
875.365	21332
875.494	21439
875.623	21450
875.751	21317
875.88	21515
876.008	21633
876.136	21515
876.265	21865
876.393	22017
876.521	21895
876.65	21964
876.778	21808
876.906	21892
877.034	21800
877.162	21945
877.29	21774
877.418	21922
877.546	21907
877.674	21759
877.802	21766
877.93	21831
878.058	21797
878.185	21591
878.313	21747
878.441	21682
878.568	21724
878.696	21728
878.824	21797
878.951	21857
879.079	21934
879.206	22086
879.333	22017
879.461	21854
879.588	21975
879.715	21922
879.842	22253
879.97	21800
880.097	21641
880.224	21580
880.351	21663
880.478	21637
880.605	21614
880.732	21686
880.859	21846
880.986	21629
881.112	21694
881.239	21416
881.366	21462
881.493	21359
881.619	21165
881.746	21222
881.872	21203
881.999	21173
882.125	21180
882.252	21142
882.378	21188
882.505	21279
882.631	21104
882.757	20937
882.883	20960
883.01	20944
883.136	20914
883.262	20826
883.388	20826
883.514	20963
883.64	21047
883.766	20902
883.892	20819
884.018	20743
884.143	20788
884.269	20982
884.395	20632
884.52	20659
884.646	20545
884.772	20446
884.897	20568
885.023	20564
885.148	20583
885.274	20712
885.399	20648
885.524	20511
885.65	20640
885.775	20594
885.9	20484
886.025	20632
886.15	20632
886.275	20594
886.4	20423
886.525	20552
886.65	20469
886.775	20408
886.9	20632
887.025	20830
887.149	20533
887.274	20415
887.399	20298
887.523	20339
887.648	20240
887.773	20294
887.897	20309
888.021	20343
888.146	20419
888.27	20404
888.395	20324
888.519	20408
888.643	20480
888.767	20339
888.891	20214
889.015	20126
889.139	20214
889.263	20107
889.387	20233
889.511	20404
889.635	20294
889.759	20134
889.883	20119
890.006	20282
890.13	20336
890.254	20172
890.377	20058
890.501	19978
890.624	19826
890.748	19940
890.871	19864
890.995	19757
891.118	19723
891.241	19727
891.364	19731
891.488	19837
891.611	19761
891.734	19666
891.857	19799
891.98	19662
892.103	19708
892.226	19658
892.349	19643
892.471	19552
892.594	19635
892.717	19647
892.839	19594
892.962	19651
893.085	19833
893.207	19586
893.33	19506
893.452	19624
893.575	19681
893.697	19472
893.819	19795
893.941	19883
894.064	19830
894.186	19510
894.308	19525
894.43	19647
894.552	19837
894.674	19712
894.796	19575
894.918	19575
895.04	19609
895.161	19750
895.283	19750
895.405	19495
895.526	19655
895.648	19635
895.769	19582
895.891	19628
896.012	19753
896.134	19643
896.255	19643
896.376	19613
896.498	19651
896.619	19685
896.74	19689
896.861	19727
896.982	20081
897.103	20031
897.224	19936
897.345	19811
897.466	19719
897.587	19871
897.708	19944
897.828	19894
897.949	19807
898.07	19708
898.19	19833
898.311	20001
898.431	19719
898.552	19902
898.672	19845
898.792	19974
898.913	19921
899.033	19734
899.153	19757
899.273	19552
899.393	19662
899.513	19674
899.633	19594
899.753	19590
899.873	19510
899.993	19662
900.113	19556
900.232	19658
900.352	19529
900.472	19514
900.591	19422
900.711	19419
900.83	19422
900.95	19434
901.069	19468
901.189	19324
901.308	18993
901.427	18932
901.546	19069
901.665	18943
901.784	18958
901.904	18894
902.023	18688
902.141	18521
902.26	18452
902.379	18608
902.498	18525
902.617	18547
902.735	18620
902.854	18452
902.973	18437
903.091	18304
903.21	18262
903.328	18152
903.446	18129
903.565	17996
903.683	17988
903.801	17946
903.919	17954
904.038	17973
904.156	17764
904.274	17866
904.392	17691
904.51	17817
904.627	17798
904.745	17840
904.863	17680
904.981	17619
905.098	17501
905.216	17459
905.334	17406
905.451	17471
905.569	17406
905.686	17615
905.803	17360
905.921	17121
906.038	17349
906.155	17200
906.272	17143
906.389	17147
906.506	17010
906.623	17064
906.74	17018
906.857	16816
906.974	16938
907.091	17033
907.208	17022
907.324	16953
907.441	16908
907.557	16748
907.674	16733
907.79	16630
907.907	16691
908.023	16748
908.139	16694
908.256	16618
908.372	16554
908.488	16592
908.604	16531
908.72	16238
908.836	16504
908.952	16409
909.068	16424
909.184	16497
909.3	16375
909.415	16352
909.531	16386
909.647	16112
909.762	16188
909.878	16211
909.993	16143
910.108	16109
910.224	16196
910.339	16169
910.454	16082
910.57	15903
910.685	15911
910.8	16169
910.915	16036
911.03	15934
911.145	15903
911.259	15629
911.374	15720
911.489	15644
911.604	15671
911.718	15447
911.833	15538
911.947	15363
912.062	15310
912.176	15462
912.291	15523
912.405	15469
912.519	15717
912.633	15690
912.748	15660
912.862	15488
912.976	15351
913.09	15249
913.204	15237
913.318	15222
913.431	15428
913.545	15431
913.659	15401
913.772	15211
913.886	15135
914	15055
914.113	15100
914.226	15192
914.34	15138
914.453	14967
914.566	15203
914.68	14967
914.793	15032
914.906	14834
915.019	14727
915.132	14705
915.245	14716
915.358	14800
915.47	14716
915.583	14720
915.696	14667
915.809	14815
915.921	14800
916.034	14750
916.146	14613
916.259	14606
916.371	14640
916.483	14636
916.595	14693
916.708	14670
916.82	14621
916.932	14442
917.044	14594
917.156	14511
917.268	14336
917.38	14442
917.491	14408
917.603	14370
917.715	14415
917.826	14415
917.938	14271
918.049	14229
918.161	14240
918.272	14552
918.384	14465
918.495	14381
918.606	14199
918.717	14161
918.828	14221
918.939	14278
919.05	14092
919.161	14126
919.272	13982
919.383	14016
919.494	14180
919.604	14431
919.715	14126
919.826	14001
919.936	14088
920.047	14210
920.157	14161
920.267	14320
920.378	14142
920.488	14096
920.598	14355
920.708	14461
920.818	14244
920.928	14225
921.038	14366
921.148	14438
921.258	14134
921.368	14081
921.477	13852
921.587	13970
921.697	13689
921.806	13807
921.916	13765
922.025	13556
922.134	13525
922.244	13575
922.353	13613
922.462	13384
922.571	13365
922.68	13225
922.789	13198
922.898	13289
923.007	13069
923.116	13129
923.224	13137
923.333	13088
923.442	13031
923.55	12966
923.659	13027
923.767	13114
923.876	13031
923.984	12985
924.092	12882
924.201	12894
924.309	12871
924.417	12890
924.525	12833
924.633	12890
924.741	13624
924.849	12467
924.956	12795
925.064	12620
925.172	12582
925.279	12673
925.387	12612
925.494	12654
925.602	12806
925.709	12639
925.816	12532
925.924	12570
926.031	12760
926.138	12506
926.245	12601
926.352	12490
926.459	12589
926.566	12593
926.673	12441
926.779	12422
926.886	12281
926.993	12235
927.099	12243
927.206	12152
927.312	12148
927.419	12190
927.525	12178
927.631	12239
927.737	12098
927.843	12049
927.95	12003
928.056	12030
928.162	12038
928.267	12068
928.373	12597
928.479	12072
928.585	11927
928.69	12045
928.796	12053
928.901	11836
929.007	11802
929.112	11916
929.218	11828
929.323	11836
929.428	11786
929.533	11908
929.638	11707
929.743	11714
929.848	11684
929.953	11668
930.058	11543
930.163	11452
930.267	11410
930.372	11627
930.477	11436
930.581	11600
930.685	11455
930.79	11277
930.894	11402
930.998	11311
931.103	11490
931.207	11079
931.311	11033
931.415	10984
931.519	10736
931.623	10645
