Data from test_V78500241_409.txt Node
Date: Fri Mar 25 15:12:42 CST 2022
User: usil
Spectrometer: V785-0024
Trigger mode: 0
Integration Time (sec): 4.000000E-1
Scans to average: 1
Nonlinearity correction enabled: false
Boxcar width: 0
Storing dark spectrum: false
XAxis mode: Wavelengths
Number of Pixels in Spectrum: 1024
>>>>>Begin Spectral Data<<<<<
801.071	27062
801.214	27047
801.356	26861
801.499	26765
801.641	26727
801.783	26682
801.926	26667
802.068	26609
802.211	26484
802.353	26507
802.496	26370
802.638	26343
802.78	26362
802.923	26142
803.065	26176
803.208	26187
803.35	26275
803.492	26457
803.635	26389
803.777	26332
803.919	26526
804.061	26754
804.204	26358
804.346	26442
804.488	26415
804.63	26530
804.773	26259
804.915	26389
805.057	26568
805.199	26282
805.341	26400
805.483	26499
805.626	26556
805.768	26404
805.91	26594
806.052	26522
806.194	26613
806.336	26758
806.478	26522
806.62	26697
806.762	26625
806.904	26864
807.046	27058
807.188	26800
807.33	26925
807.472	27108
807.614	26838
807.756	27058
807.898	26785
808.04	26777
808.182	26701
808.324	26693
808.465	26853
808.607	26895
808.749	27081
808.891	27203
809.033	27211
809.174	27245
809.316	27039
809.458	27085
809.6	27131
809.741	27184
809.883	27226
810.025	27389
810.166	27420
810.308	27291
810.45	27348
810.591	27412
810.733	27157
810.875	27135
811.016	26975
811.158	27108
811.299	27157
811.441	27306
811.582	27188
811.724	27062
811.865	27135
812.007	27074
812.148	27058
812.29	27066
812.431	27176
812.573	27458
812.714	27614
812.855	27561
812.997	27842
813.138	27899
813.279	27854
813.421	27717
813.562	27542
813.703	27447
813.845	27370
813.986	27066
814.127	27005
814.268	26792
814.41	26815
814.551	26693
814.692	26940
814.833	26686
814.974	26674
815.115	26864
815.256	26743
815.397	26758
815.539	26746
815.68	26442
815.821	26507
815.962	26644
816.103	26545
816.244	26480
816.385	26446
816.526	26320
816.666	26252
816.807	26077
816.948	26145
817.089	26176
817.23	26164
817.371	26054
817.512	26031
817.653	26100
817.793	26001
817.934	26054
818.075	26088
818.216	26046
818.356	26005
818.497	25917
818.638	25856
818.778	25913
818.919	25845
819.06	25788
819.2	25936
819.341	26012
819.481	25917
819.622	26119
819.762	26248
819.903	26271
820.043	26225
820.184	26153
820.324	26073
820.465	26164
820.605	26278
820.746	26214
820.886	25989
821.026	26081
821.167	26039
821.307	26191
821.447	26058
821.588	25845
821.728	25921
821.868	25731
822.008	25472
822.149	25632
822.289	25499
822.429	25240
822.569	25270
822.709	25122
822.849	25004
822.99	25015
823.13	25069
823.27	24837
823.41	24928
823.55	24711
823.69	24905
823.83	24791
823.97	24776
824.11	24642
824.25	24521
824.389	24604
824.529	24791
824.669	24601
824.809	24791
824.949	24814
825.089	24711
825.228	24719
825.368	24471
825.508	24376
825.648	24623
825.787	24536
825.927	24494
826.067	24521
826.206	24509
826.346	24620
826.485	24521
826.625	24448
826.765	24726
826.904	24578
827.044	24296
827.183	24224
827.323	24095
827.462	24315
827.601	24186
827.741	24262
827.88	24361
828.02	24136
828.159	24205
828.298	24296
828.437	24243
828.577	24292
828.716	24311
828.855	24152
828.994	23870
829.134	23870
829.273	24015
829.412	23965
829.551	23950
829.69	24045
829.829	23935
829.968	23939
830.107	24110
830.246	24003
830.385	23878
830.524	23931
830.663	23779
830.802	23585
830.941	23566
831.08	23516
831.219	23646
831.357	23611
831.496	23855
831.635	23467
831.774	23562
831.913	23505
832.051	23387
832.19	23421
832.329	23410
832.467	23261
832.606	23242
832.744	23246
832.883	23197
833.022	23258
833.16	23208
833.299	23299
833.437	23303
833.576	23398
833.714	23387
833.852	23459
833.991	23341
834.129	23440
834.267	23326
834.406	23360
834.544	23395
834.682	23258
834.821	23303
834.959	23539
835.097	23341
835.235	23299
835.373	23505
835.511	23429
835.65	23227
835.788	23193
835.926	23064
836.064	23071
836.202	23060
836.34	23303
836.478	23258
836.615	23086
836.753	23208
836.891	23166
837.029	23162
837.167	23067
837.305	23189
837.443	23083
837.58	23056
837.718	23113
837.856	23052
837.993	23010
838.131	22965
838.269	23006
838.406	22938
838.544	22774
838.681	22752
838.819	22729
838.956	22481
839.094	22538
839.231	22470
839.369	22763
839.506	22835
839.643	22592
839.781	22432
839.918	22481
840.055	22565
840.193	22519
840.33	22508
840.467	22459
840.604	22550
840.742	22664
840.879	22284
841.016	22371
841.153	22402
841.29	22573
841.427	22367
841.564	22424
841.701	22550
841.838	22459
841.975	22390
842.112	22303
842.249	22246
842.385	22154
842.522	22451
842.659	22314
842.796	22204
842.933	22188
843.069	22109
843.206	22188
843.343	22265
843.479	22112
843.616	22211
843.752	22017
843.889	22029
844.025	22131
844.162	21975
844.298	22188
844.435	22036
844.571	21907
844.708	22006
844.844	22166
844.98	22036
845.117	22116
845.253	21960
845.389	21903
845.525	21968
845.661	21953
845.798	21690
845.934	21759
846.07	21622
846.206	21770
846.342	21728
846.478	21762
846.614	21549
846.75	21485
846.886	21568
847.022	21564
847.158	21523
847.294	21618
847.429	21538
847.565	21496
847.701	21629
847.837	21264
847.972	21066
848.108	21173
848.244	21268
848.379	21089
848.515	21028
848.65	21047
848.786	21104
848.921	21096
849.057	21256
849.192	21199
849.328	21089
849.463	20998
849.598	21116
849.734	20948
849.869	21058
850.004	20842
850.14	20807
850.275	20853
850.41	20758
850.545	20769
850.68	20823
850.815	20849
850.95	20788
851.085	21131
851.22	20899
851.355	20796
851.49	20765
851.625	20887
851.76	20861
851.895	20689
852.03	20762
852.165	20807
852.299	20826
852.434	21047
852.569	20864
852.703	20887
852.838	20853
852.973	20899
853.107	21001
853.242	20727
853.376	20682
853.511	20434
853.645	20674
853.78	20788
853.914	20724
854.048	20705
854.183	20625
854.317	20758
854.451	20834
854.585	20644
854.72	20617
854.854	20826
854.988	20518
855.122	20594
855.256	20537
855.39	20796
855.524	20678
855.658	20651
855.792	20613
855.926	20579
856.06	20648
856.194	20720
856.327	20625
856.461	20602
856.595	20731
856.729	20594
856.862	20861
856.996	20727
857.13	20648
857.263	20834
857.397	20670
857.53	20632
857.664	20746
857.797	20720
857.931	20739
858.064	20655
858.197	20651
858.331	20716
858.464	20735
858.597	20655
858.731	20602
858.864	20644
858.997	20571
859.13	20743
859.263	20731
859.396	20731
859.529	20686
859.662	20632
859.795	20594
859.928	20708
860.061	20750
860.194	20948
860.327	20762
860.46	20590
860.592	20769
860.725	20792
860.858	20823
860.99	20682
861.123	20602
861.256	20663
861.388	20545
861.521	21389
861.653	20541
861.786	20541
861.918	20507
862.05	20533
862.183	20632
862.315	20617
862.447	20560
862.58	20571
862.712	20473
862.844	20412
862.976	20450
863.108	20355
863.24	20883
863.372	20328
863.504	20343
863.636	20370
863.768	20324
863.9	20415
864.032	20180
864.164	20164
864.296	20507
864.428	20484
864.559	20579
864.691	20343
864.823	20377
864.954	20263
865.086	20480
865.217	20343
865.349	20305
865.48	20172
865.612	20240
865.743	20362
865.875	20385
866.006	20301
866.137	20286
866.269	20214
866.4	20263
866.531	20263
866.662	20214
866.793	20180
866.924	20229
867.055	20267
867.186	20206
867.317	20142
867.448	20206
867.579	20122
867.71	20092
867.841	20100
867.972	20206
868.103	20168
868.233	20320
868.364	20138
868.495	20263
868.625	20465
868.756	20568
868.886	20362
869.017	20617
869.147	20545
869.278	20598
869.408	20533
869.539	20503
869.669	20457
869.799	20461
869.929	20602
870.06	20636
870.19	20819
870.32	20807
870.45	20727
870.58	20880
870.71	20979
870.84	21055
870.97	20918
871.1	20796
871.23	21001
871.36	21169
871.489	20960
871.619	20986
871.749	21055
871.879	21070
872.008	21176
872.138	21150
872.267	21112
872.397	20872
872.526	20994
872.656	20876
872.785	20800
872.915	21203
873.044	21176
873.173	21062
873.303	21093
873.432	21184
873.561	21211
873.69	21017
873.819	20998
873.948	21230
874.077	21100
874.206	21089
874.335	21081
874.464	21142
874.593	21336
874.722	21188
874.851	21306
874.979	21298
875.108	21268
875.237	21325
875.365	21317
875.494	21192
875.623	21298
875.751	21348
875.88	21458
876.008	21473
876.136	21656
876.265	21622
876.393	21823
876.521	21789
876.65	21823
876.778	21846
876.906	21732
877.034	21656
877.162	21713
877.29	21736
877.418	21675
877.546	21595
877.674	21812
877.802	21667
877.93	21641
878.058	21732
878.185	21572
878.313	21652
878.441	21576
878.568	21564
878.696	21595
878.824	21709
878.951	21762
879.079	21804
879.206	21895
879.333	21785
879.461	21564
879.588	21789
879.715	21918
879.842	21941
879.97	21747
880.097	21542
880.224	21412
880.351	21622
880.478	21595
880.605	21538
880.732	21504
880.859	21728
880.986	21534
881.112	21507
881.239	21397
881.366	21272
881.493	21161
881.619	21116
881.746	21211
881.872	21100
881.999	20956
882.125	20971
882.252	21100
882.378	21005
882.505	21184
882.631	20849
882.757	20716
882.883	20979
883.01	20785
883.136	20845
883.262	20667
883.388	20613
883.514	20937
883.64	20823
883.766	20804
883.892	20499
884.018	20583
884.143	20716
884.269	20864
884.395	20488
884.52	20370
884.646	20469
884.772	20351
884.897	20423
885.023	20556
885.148	20473
885.274	20568
885.399	20575
885.524	20476
885.65	20393
885.775	20465
885.9	20377
886.025	20571
886.15	20465
886.275	20377
886.4	20347
886.525	20476
886.65	20389
886.775	20278
886.9	20518
887.025	20663
887.149	20389
887.274	20473
887.399	20252
887.523	20267
887.648	20183
887.773	20115
887.897	20339
888.021	20172
888.146	20252
888.27	20271
888.395	20442
888.519	20195
888.643	20301
888.767	20298
888.891	20145
889.015	20008
889.139	20069
889.263	20008
889.387	20043
889.511	20081
889.635	20142
889.759	20062
889.883	20050
890.006	20054
890.13	20202
890.254	20020
890.377	20027
890.501	19868
890.624	19822
890.748	19795
890.871	19666
890.995	19620
891.118	19658
891.241	19605
891.364	19525
891.488	19700
891.611	19616
891.734	19647
891.857	19643
891.98	19609
892.103	19696
892.226	19662
892.349	19548
892.471	19502
892.594	19559
892.717	19594
892.839	19453
892.962	19510
893.085	19552
893.207	19525
893.33	19396
893.452	19506
893.575	19632
893.697	19476
893.819	19693
893.941	19734
894.064	19643
894.186	19445
894.308	19430
894.43	19506
894.552	19715
894.674	19635
894.796	19392
894.918	19483
895.04	19537
895.161	19552
895.283	19487
895.405	19483
895.526	19480
895.648	19464
895.769	19578
895.891	19624
896.012	19685
896.134	19548
896.255	19537
896.376	19556
896.498	19571
896.619	19510
896.74	19594
896.861	19590
896.982	19849
897.103	19989
897.224	19830
897.345	19761
897.466	19689
897.587	19700
897.708	19871
897.828	19746
897.949	19651
898.07	19548
898.19	19655
898.311	19753
898.431	19635
898.552	19658
898.672	19719
898.792	19807
898.913	19788
899.033	19502
899.153	19609
899.273	19419
899.393	19422
899.513	19567
899.633	19426
899.753	19533
899.873	19483
899.993	19502
900.113	19464
900.232	19502
900.352	19407
900.472	19312
900.591	19137
900.711	19411
900.83	19225
900.95	19312
901.069	19346
901.189	19190
901.308	18852
901.427	18810
901.546	19042
901.665	18977
901.784	18966
901.904	18700
902.023	18635
902.141	18479
902.26	18388
902.379	18452
902.498	18407
902.617	18342
902.735	18327
902.854	18410
902.973	18388
903.091	18057
903.21	18007
903.328	17897
903.446	17908
903.565	17843
903.683	17874
903.801	17813
903.919	17764
904.038	17866
904.156	17566
904.274	17760
904.392	17638
904.51	17596
904.627	17649
904.745	17634
904.863	17710
904.981	17421
905.098	17288
905.216	17372
905.334	17421
905.451	17421
905.569	17353
905.686	17391
905.803	17383
905.921	17136
906.038	17223
906.155	17056
906.272	17098
906.389	17102
906.506	16904
906.623	16862
906.74	16866
906.857	16713
906.974	16809
907.091	16968
907.208	16953
907.324	16824
907.441	16828
907.557	16592
907.674	16535
907.79	16580
907.907	16698
908.023	16634
908.139	16596
908.256	16447
908.372	16592
908.488	16428
908.604	16413
908.72	16344
908.836	16352
908.952	16299
909.068	16379
909.184	16405
909.3	16318
909.415	16356
909.531	16295
909.647	16086
909.762	15991
909.878	16040
909.993	16090
910.108	16002
910.224	15964
910.339	15937
910.454	15895
910.57	15808
910.685	15793
910.8	16154
910.915	16021
911.03	15850
911.145	15690
911.259	15686
911.374	15679
911.489	15511
911.604	15462
911.718	15519
911.833	15393
911.947	15344
912.062	15180
912.176	15386
912.291	15382
912.405	15348
912.519	15572
912.633	15572
912.748	15485
912.862	15363
912.976	15264
913.09	15085
913.204	15176
913.318	15222
913.431	15443
913.545	15306
913.659	15294
913.772	15157
913.886	15039
914	15070
914.113	15020
914.226	15131
914.34	15081
914.453	14952
914.566	15043
914.68	14914
914.793	14941
914.906	14648
915.019	14712
915.132	14651
915.245	14678
915.358	14617
915.47	14693
915.583	14746
915.696	14655
915.809	14686
915.921	14792
916.034	14693
916.146	14526
916.259	14499
916.371	14602
916.483	14697
916.595	14419
916.708	14427
916.82	14514
916.932	14400
917.044	14393
917.156	14381
917.268	14218
917.38	14339
917.491	14271
917.603	14355
917.715	14332
917.826	14381
917.938	14259
918.049	14199
918.161	14317
918.272	14385
918.384	14431
918.495	14218
918.606	14130
918.717	13978
918.828	14142
918.939	14088
919.05	13940
919.161	14126
919.272	13890
919.383	13959
919.494	14088
919.604	14263
919.715	13993
919.826	14031
919.936	14024
920.047	14172
920.157	14001
920.267	14317
920.378	14115
920.488	13986
920.598	14278
920.708	14282
920.818	14252
920.928	14164
921.038	14282
921.148	14332
921.258	14024
921.368	13928
921.477	13818
921.587	13753
921.697	13651
921.806	13795
921.916	13746
922.025	13491
922.134	13460
922.244	13400
922.353	13419
922.462	13381
922.571	13274
922.68	13160
922.789	13145
922.898	13065
923.007	13076
923.116	13107
923.224	13061
923.333	13103
923.442	12977
923.55	12970
923.659	12958
923.767	13008
923.876	12859
923.984	13012
924.092	12878
924.201	12897
924.309	12867
924.417	12833
924.525	12795
924.633	12787
924.741	13742
924.849	12589
924.956	12764
925.064	12559
925.172	12475
925.279	12475
925.387	12555
925.494	12642
925.602	12703
925.709	12559
925.816	12437
925.924	12467
926.031	12574
926.138	12506
926.245	12494
926.352	12426
926.459	12517
926.566	12517
926.673	12467
926.779	12357
926.886	12251
926.993	12152
927.099	12167
927.206	12152
927.312	12041
927.419	12171
927.525	12095
927.631	12140
927.737	12011
927.843	11977
927.95	11954
928.056	11942
928.162	11965
928.267	11969
928.373	12551
928.479	12110
928.585	11790
928.69	11931
928.796	11965
928.901	11817
929.007	11592
929.112	11882
929.218	11836
929.323	11657
929.428	11695
929.533	11668
929.638	11592
929.743	11657
929.848	11741
929.953	11714
930.058	11573
930.163	11410
930.267	11459
930.372	11493
930.477	11303
930.581	11524
930.685	11448
930.79	11296
930.894	11353
930.998	11216
931.103	11402
931.207	11086
931.311	10968
931.415	10805
931.519	10717
931.623	10618
