Data from test_V78500241_319.txt Node
Date: Fri Mar 25 15:12:04 CST 2022
User: usil
Spectrometer: V785-0024
Trigger mode: 0
Integration Time (sec): 4.000000E-1
Scans to average: 1
Nonlinearity correction enabled: false
Boxcar width: 0
Storing dark spectrum: false
XAxis mode: Wavelengths
Number of Pixels in Spectrum: 1024
>>>>>Begin Spectral Data<<<<<
801.071	27793
801.214	27671
801.356	27477
801.499	27321
801.641	27279
801.783	27310
801.926	27230
802.068	27203
802.211	27195
802.353	27161
802.496	27032
802.638	26902
802.78	26952
802.923	26899
803.065	26925
803.208	26979
803.35	26914
803.492	27058
803.635	27055
803.777	26979
803.919	26918
804.061	27302
804.204	27051
804.346	26960
804.488	27001
804.63	26963
804.773	26952
804.915	26971
805.057	27096
805.199	26975
805.341	27058
805.483	27287
805.626	27066
805.768	26914
805.91	27180
806.052	26948
806.194	27062
806.336	27275
806.478	27173
806.62	27135
806.762	27207
806.904	27431
807.046	27656
807.188	27504
807.33	27625
807.472	27709
807.614	27523
807.756	27492
807.898	27264
808.04	27260
808.182	27317
808.324	27363
808.465	27469
808.607	27507
808.749	27701
808.891	27854
809.033	27934
809.174	27781
809.316	27831
809.458	27629
809.6	27629
809.741	27789
809.883	27842
810.025	27918
810.166	28036
810.308	27998
810.45	28006
810.591	27934
810.733	27895
810.875	27637
811.016	27629
811.158	27728
811.299	27869
811.441	27880
811.582	27964
811.724	27511
811.865	27690
812.007	27759
812.148	27679
812.29	27709
812.431	27762
812.573	28036
812.714	28234
812.855	28188
812.997	28238
813.138	28455
813.279	28363
813.421	28169
813.562	28078
813.703	27968
813.845	27884
813.986	27705
814.127	27420
814.268	27340
814.41	27424
814.551	27287
814.692	27427
814.833	27226
814.974	27302
815.115	27355
815.256	27214
815.397	27264
815.539	27116
815.68	27127
815.821	27089
815.962	27089
816.103	27119
816.244	27180
816.385	26921
816.526	26830
816.666	26644
816.807	26590
816.948	26651
817.089	26667
817.23	26545
817.371	26648
817.512	26689
817.653	26522
817.793	26457
817.934	26560
818.075	26686
818.216	26537
818.356	26629
818.497	26415
818.638	26347
818.778	26362
818.919	26259
819.06	26286
819.2	26347
819.341	26568
819.481	26583
819.622	26716
819.762	26933
819.903	26807
820.043	26739
820.184	26716
820.324	26720
820.465	26727
820.605	26579
820.746	26617
820.886	26495
821.026	26644
821.167	26575
821.307	26625
821.447	26549
821.588	26278
821.728	26317
821.868	26107
822.008	25883
822.149	26084
822.289	26039
822.429	25696
822.569	25643
822.709	25681
822.849	25358
822.99	25441
823.13	25472
823.27	25365
823.41	25289
823.55	25129
823.69	25278
823.83	25316
823.97	25320
824.11	25072
824.25	25019
824.389	25194
824.529	25217
824.669	25084
824.809	25274
824.949	25209
825.089	25312
825.228	25133
825.368	24932
825.508	24970
825.648	24913
825.787	25008
825.927	25031
826.067	24837
826.206	24844
826.346	24947
826.485	25012
826.625	24916
826.765	25145
826.904	24954
827.044	24700
827.183	24764
827.323	24734
827.462	24707
827.601	24623
827.741	24601
827.88	24665
828.02	24665
828.159	24566
828.298	24574
828.437	24646
828.577	24544
828.716	24741
828.855	24433
828.994	24502
829.134	24334
829.273	24437
829.412	24391
829.551	24296
829.69	24292
829.829	24467
829.968	24418
830.107	24604
830.246	24270
830.385	24334
830.524	24365
830.663	24079
830.802	24087
830.941	23935
831.08	23942
831.219	24072
831.357	24087
831.496	24159
831.635	24053
831.774	23870
831.913	23863
832.051	23775
832.19	23680
832.329	23764
832.467	23642
832.606	23634
832.744	23573
832.883	23505
833.022	23570
833.16	23615
833.299	23638
833.437	23760
833.576	23638
833.714	23691
833.852	23634
833.991	23790
834.129	23649
834.267	23863
834.406	23630
834.544	23821
834.682	23703
834.821	23600
834.959	23798
835.097	23516
835.235	23604
835.373	23718
835.511	23630
835.65	23554
835.788	23547
835.926	23471
836.064	23330
836.202	23326
836.34	23566
836.478	23581
836.615	23436
836.753	23497
836.891	23703
837.029	23467
837.167	23448
837.305	23315
837.443	23467
837.58	23318
837.718	23398
837.856	23455
837.993	23239
838.131	23311
838.269	23292
838.406	23273
838.544	23261
838.681	23056
838.819	22999
838.956	22953
839.094	22908
839.231	22828
839.369	23025
839.506	23170
839.643	23052
839.781	22881
839.918	22843
840.055	22778
840.193	22790
840.33	22672
840.467	22717
840.604	22660
840.742	22972
840.879	22561
841.016	22615
841.153	22649
841.29	22839
841.427	22786
841.564	22797
841.701	22653
841.838	22660
841.975	22596
842.112	22596
842.249	22634
842.385	22443
842.522	22668
842.659	22390
842.796	22352
842.933	22470
843.069	22459
843.206	22466
843.343	22375
843.479	22421
843.616	22443
843.752	22390
843.889	22215
844.025	22413
844.162	22215
844.298	22371
844.435	22287
844.571	22082
844.708	22150
844.844	22287
844.98	22417
845.117	22333
845.253	22101
845.389	22059
845.525	22173
845.661	22196
845.798	21968
845.934	21975
846.07	21949
846.206	21991
846.342	22086
846.478	21926
846.614	21743
846.75	21804
846.886	21751
847.022	21667
847.158	21823
847.294	21644
847.429	21781
847.565	21774
847.701	21888
847.837	21519
847.972	21363
848.108	21618
848.244	21545
848.379	21264
848.515	21291
848.65	21306
848.786	21291
848.921	21306
849.057	21363
849.192	21332
849.328	21233
849.463	21260
849.598	21222
849.734	21241
849.869	21043
850.004	21039
850.14	21169
850.275	21009
850.41	20971
850.545	20990
850.68	20967
850.815	20994
850.95	21089
851.085	21340
851.22	21013
851.355	20998
851.49	21032
851.625	21066
851.76	20960
851.895	20960
852.03	20956
852.165	20975
852.299	21009
852.434	21100
852.569	21062
852.703	20948
852.838	21089
852.973	21123
853.107	21051
853.242	21009
853.376	20823
853.511	20868
853.645	20830
853.78	21032
853.914	20925
854.048	20823
854.183	20807
854.317	20914
854.451	21013
854.585	20769
854.72	20765
854.854	20826
854.988	20746
855.122	20815
855.256	20727
855.39	20735
855.524	20868
855.658	20845
855.792	20804
855.926	20971
856.06	20864
856.194	20948
856.327	20899
856.461	20750
856.595	20830
856.729	20811
856.862	20971
856.996	20876
857.13	20982
857.263	20998
857.397	20853
857.53	20792
857.664	20880
857.797	20982
857.931	20834
858.064	20948
858.197	20929
858.331	20765
858.464	20773
858.597	20762
858.731	20720
858.864	20819
858.997	20788
859.13	20834
859.263	20883
859.396	20887
859.529	20682
859.662	20777
859.795	20823
859.928	20800
860.061	20937
860.194	21043
860.327	20857
860.46	20914
860.592	20826
860.725	20986
860.858	20979
860.99	20914
861.123	20716
861.256	20739
861.388	20845
861.521	21439
861.653	20705
861.786	20689
861.918	20697
862.05	20705
862.183	20731
862.315	20815
862.447	20861
862.58	20682
862.712	20541
862.844	20541
862.976	20796
863.108	20583
863.24	21043
863.372	20454
863.504	20541
863.636	20484
863.768	20587
863.9	20480
864.032	20514
864.164	20541
864.296	20518
864.428	20617
864.559	20568
864.691	20655
864.823	20499
864.954	20415
865.086	20511
865.217	20469
865.349	20404
865.48	20427
865.612	20473
865.743	20587
865.875	20434
866.006	20484
866.137	20473
866.269	20450
866.4	20358
866.531	20286
866.662	20381
866.793	20362
866.924	20355
867.055	20374
867.186	20301
867.317	20290
867.448	20240
867.579	20183
867.71	20290
867.841	20252
867.972	20366
868.103	20290
868.233	20271
868.364	20343
868.495	20476
868.625	20537
868.756	20731
868.886	20476
869.017	20621
869.147	20781
869.278	20701
869.408	20651
869.539	20583
869.669	20689
869.799	20655
869.929	20720
870.06	20682
870.19	20872
870.32	20804
870.45	20895
870.58	20906
870.71	21176
870.84	21093
870.97	21017
871.1	20971
871.23	21199
871.36	21116
871.489	21222
871.619	21028
871.749	21203
871.879	21180
872.008	21241
872.138	21218
872.267	21207
872.397	21260
872.526	20944
872.656	20971
872.785	20994
872.915	21275
873.044	21283
873.173	21302
873.303	21264
873.432	21283
873.561	21294
873.69	21310
873.819	21173
873.948	21336
874.077	21195
874.206	21264
874.335	21291
874.464	21389
874.593	21507
874.722	21405
874.851	21542
874.979	21583
875.108	21530
875.237	21485
875.365	21363
875.494	21401
875.623	21526
875.751	21329
875.88	21523
876.008	21462
876.136	21572
876.265	21880
876.393	21945
876.521	22021
876.65	21956
876.778	21785
876.906	21865
877.034	21857
877.162	21854
877.29	21724
877.418	21682
877.546	21854
877.674	21781
877.802	21774
877.93	21823
878.058	21785
878.185	21724
878.313	21709
878.441	21838
878.568	21736
878.696	21705
878.824	21835
878.951	21884
879.079	21964
879.206	21972
879.333	21899
879.461	21755
879.588	21930
879.715	21979
879.842	22090
879.97	21759
880.097	21557
880.224	21572
880.351	21709
880.478	21671
880.605	21656
880.732	21561
880.859	21922
880.986	21698
881.112	21732
881.239	21462
881.366	21363
881.493	21287
881.619	21233
881.746	21310
881.872	21325
881.999	21108
882.125	21214
882.252	21268
882.378	21226
882.505	21287
882.631	21100
882.757	20880
882.883	21020
883.01	20910
883.136	20960
883.262	20800
883.388	20838
883.514	21028
883.64	21055
883.766	20861
883.892	20720
884.018	20773
884.143	20941
884.269	20956
884.395	20636
884.52	20484
884.646	20556
884.772	20587
884.897	20556
885.023	20537
885.148	20739
885.274	20781
885.399	20648
885.524	20530
885.65	20651
885.775	20617
885.9	20492
886.025	20587
886.15	20594
886.275	20450
886.4	20549
886.525	20560
886.65	20427
886.775	20587
886.9	20697
887.025	20720
887.149	20583
887.274	20351
887.399	20259
887.523	20351
887.648	20301
887.773	20210
887.897	20412
888.021	20370
888.146	20218
888.27	20320
888.395	20381
888.519	20320
888.643	20400
888.767	20351
888.891	20282
889.015	20084
889.139	20263
889.263	20130
889.387	20259
889.511	20332
889.635	20267
889.759	20103
889.883	20058
890.006	20172
890.13	20229
890.254	20092
890.377	19989
890.501	19784
890.624	19772
890.748	19860
890.871	19769
890.995	19693
891.118	19655
891.241	19715
891.364	19811
891.488	19913
891.611	19723
891.734	19658
891.857	19719
891.98	19731
892.103	19753
892.226	19651
892.349	19666
892.471	19594
892.594	19537
892.717	19670
892.839	19571
892.962	19674
893.085	19738
893.207	19639
893.33	19548
893.452	19548
893.575	19712
893.697	19552
893.819	19715
893.941	19731
894.064	19742
894.186	19616
894.308	19506
894.43	19708
894.552	19757
894.674	19643
894.796	19540
894.918	19540
895.04	19559
895.161	19681
895.283	19655
895.405	19464
895.526	19571
895.648	19594
895.769	19674
895.891	19734
896.012	19666
896.134	19635
896.255	19670
896.376	19441
896.498	19624
896.619	19734
896.74	19613
896.861	19666
896.982	19887
897.103	20077
897.224	19894
897.345	19788
897.466	19875
897.587	19902
897.708	19917
897.828	19997
897.949	19727
898.07	19689
898.19	19731
898.311	19997
898.431	19875
898.552	19761
898.672	19932
898.792	19932
898.913	19936
899.033	19769
899.153	19571
899.273	19540
899.393	19521
899.513	19628
899.633	19518
899.753	19533
899.873	19510
899.993	19693
900.113	19586
900.232	19487
900.352	19487
900.472	19335
900.591	19335
900.711	19396
900.83	19354
900.95	19582
901.069	19491
901.189	19285
901.308	19012
901.427	18848
901.546	18935
901.665	18996
901.784	19000
901.904	18844
902.023	18711
902.141	18460
902.26	18479
902.379	18475
902.498	18403
902.617	18464
902.735	18509
902.854	18342
902.973	18399
903.091	18152
903.21	18133
903.328	18163
903.446	18022
903.565	18011
903.683	18022
903.801	17790
903.919	17893
904.038	17843
904.156	17771
904.274	17703
904.392	17596
904.51	17695
904.627	17634
904.745	17756
904.863	17760
904.981	17611
905.098	17543
905.216	17471
905.334	17337
905.451	17501
905.569	17303
905.686	17406
905.803	17433
905.921	17208
906.038	17178
906.155	17208
906.272	17174
906.389	17071
906.506	16847
906.623	17029
906.74	17052
906.857	16869
906.974	16892
907.091	17018
907.208	17006
907.324	16896
907.441	16850
907.557	16725
907.674	16618
907.79	16691
907.907	16626
908.023	16679
908.139	16691
908.256	16485
908.372	16611
908.488	16558
908.604	16371
908.72	16352
908.836	16402
908.952	16379
909.068	16421
909.184	16440
909.3	16371
909.415	16405
909.531	16478
909.647	16067
909.762	16006
909.878	16036
909.993	16112
910.108	16078
910.224	16086
910.339	16017
910.454	15983
910.57	15880
910.685	15804
910.8	16063
910.915	15945
911.03	15907
911.145	15717
911.259	15724
911.374	15713
911.489	15629
911.604	15682
911.718	15351
911.833	15504
911.947	15291
912.062	15211
912.176	15367
912.291	15374
912.405	15416
912.519	15534
912.633	15538
912.748	15344
912.862	15317
912.976	15283
913.09	15077
913.204	15154
913.318	15302
913.431	15340
913.545	15325
913.659	15287
913.772	15135
913.886	15051
914	15112
914.113	15070
914.226	15173
914.34	15135
914.453	14857
914.566	15100
914.68	14960
914.793	14925
914.906	14762
915.019	14750
915.132	14617
915.245	14648
915.358	14708
915.47	14625
915.583	14678
915.696	14712
915.809	14754
915.921	14887
916.034	14564
916.146	14590
916.259	14617
916.371	14587
916.483	14648
916.595	14579
916.708	14514
916.82	14495
916.932	14454
917.044	14415
917.156	14419
917.268	14305
917.38	14389
917.491	14286
917.603	14294
917.715	14446
917.826	14374
917.938	14187
918.049	14191
918.161	14290
918.272	14419
918.384	14336
918.495	14263
918.606	14145
918.717	13989
918.828	14164
918.939	14187
919.05	14024
919.161	14050
919.272	13921
919.383	13989
919.494	14138
919.604	14256
919.715	14077
919.826	13963
919.936	14058
920.047	14119
920.157	13906
920.267	14153
920.378	14138
920.488	13997
920.598	14237
920.708	14385
920.818	14168
920.928	14161
921.038	14358
921.148	14317
921.258	14062
921.368	13959
921.477	13746
921.587	13811
921.697	13681
921.806	13837
921.916	13731
922.025	13499
922.134	13487
922.244	13426
922.353	13411
922.462	13312
922.571	13187
922.68	13133
922.789	12989
922.898	13133
923.007	13034
923.116	13152
923.224	13095
923.333	13095
923.442	12928
923.55	13023
923.659	12939
923.767	12977
923.876	12859
923.984	12966
924.092	12863
924.201	12840
924.309	12821
924.417	12928
924.525	12734
924.633	12878
924.741	13491
924.849	12551
924.956	12707
925.064	12578
925.172	12486
925.279	12536
925.387	12532
925.494	12494
925.602	12730
925.709	12544
925.816	12547
925.924	12532
926.031	12616
926.138	12494
926.245	12475
926.352	12384
926.459	12528
926.566	12483
926.673	12380
926.779	12190
926.886	12270
926.993	12106
927.099	12110
927.206	12049
927.312	12083
927.419	12136
927.525	12133
927.631	12163
927.737	12064
927.843	12003
927.95	11824
928.056	11912
928.162	11988
928.267	11958
928.373	12608
928.479	12091
928.585	11847
928.69	11996
928.796	11965
928.901	11809
929.007	11672
929.112	11813
929.218	11851
929.323	11691
929.428	11684
929.533	11813
929.638	11543
929.743	11703
929.848	11680
929.953	11615
930.058	11482
930.163	11383
930.267	11379
930.372	11558
930.477	11360
930.581	11539
930.685	11436
930.79	11322
930.894	11318
930.998	11162
931.103	11368
931.207	10972
931.311	10972
931.415	10835
931.519	10660
931.623	10645
