Data from test_V78500241_1594.txt Node
Date: Fri Mar 25 15:20:57 CST 2022
User: usil
Spectrometer: V785-0024
Trigger mode: 0
Integration Time (sec): 4.000000E-1
Scans to average: 1
Nonlinearity correction enabled: false
Boxcar width: 0
Storing dark spectrum: false
XAxis mode: Wavelengths
Number of Pixels in Spectrum: 1024
>>>>>Begin Spectral Data<<<<<
801.071	27998
801.214	27888
801.356	27717
801.499	27587
801.641	27530
801.783	27485
801.926	27606
802.068	27576
802.211	27515
802.353	27431
802.496	27268
802.638	27256
802.78	27230
802.923	27142
803.065	27036
803.208	27180
803.35	27329
803.492	27351
803.635	27351
803.777	27363
803.919	27386
804.061	27774
804.204	27401
804.346	27351
804.488	27279
804.63	27488
804.773	27268
804.915	27363
805.057	27473
805.199	27511
805.341	27511
805.483	27587
805.626	27443
805.768	27260
805.91	27523
806.052	27606
806.194	27511
806.336	27709
806.478	27587
806.62	27523
806.762	27663
806.904	27823
807.046	28166
807.188	28002
807.33	27911
807.472	27892
807.614	27972
807.756	27800
807.898	27854
808.04	27812
808.182	27770
808.324	27808
808.465	27857
808.607	28025
808.749	28169
808.891	28177
809.033	28455
809.174	28352
809.316	28169
809.458	28200
809.6	28143
809.741	28272
809.883	28363
810.025	28352
810.166	28485
810.308	28653
810.45	28565
810.591	28318
810.733	28147
810.875	28234
811.016	28147
811.158	28173
811.299	28166
811.441	28344
811.582	28394
811.724	28249
811.865	28101
812.007	28226
812.148	28196
812.29	28382
812.431	28382
812.573	28481
812.714	28584
812.855	28763
812.997	28831
813.138	28885
813.279	28771
813.421	28816
813.562	28717
813.703	28698
813.845	28325
813.986	28272
814.127	27991
814.268	27934
814.41	27846
814.551	27949
814.692	28086
814.833	27838
814.974	27884
815.115	27785
815.256	27778
815.397	27854
815.539	27812
815.68	27709
815.821	27667
815.962	27857
816.103	27698
816.244	27504
816.385	27557
816.526	27454
816.666	27313
816.807	27055
816.948	27268
817.089	27329
817.23	27165
817.371	27100
817.512	27188
817.653	27135
817.793	27157
817.934	27249
818.075	27241
818.216	27138
818.356	26952
818.497	27017
818.638	26925
818.778	26906
818.919	27017
819.06	27028
819.2	27123
819.341	27230
819.481	27241
819.622	27321
819.762	27507
819.903	27363
820.043	27397
820.184	27389
820.324	27370
820.465	27325
820.605	27165
820.746	27268
820.886	27237
821.026	27306
821.167	27218
821.307	27389
821.447	27195
821.588	27043
821.728	26918
821.868	26750
822.008	26655
822.149	26629
822.289	26602
822.429	26476
822.569	26393
822.709	26366
822.849	26107
822.99	26122
823.13	26172
823.27	26073
823.41	26103
823.55	25997
823.69	26119
823.83	25978
823.97	25811
824.11	25856
824.25	25845
824.389	25765
824.529	25849
824.669	25791
824.809	26001
824.949	25890
825.089	25845
825.228	25909
825.368	25609
825.508	25753
825.648	25643
825.787	25799
825.927	25795
826.067	25605
826.206	25734
826.346	25693
826.485	25700
826.625	25731
826.765	25765
826.904	25738
827.044	25464
827.183	25388
827.323	25339
827.462	25285
827.601	25495
827.741	25468
827.88	25506
828.02	25285
828.159	25358
828.298	25457
828.437	25518
828.577	25400
828.716	25457
828.855	25202
828.994	25034
829.134	25069
829.273	25080
829.412	25065
829.551	25152
829.69	25118
829.829	25133
829.968	25304
830.107	25278
830.246	25129
830.385	25141
830.524	24996
830.663	24916
830.802	24821
830.941	24681
831.08	24688
831.219	24635
831.357	24798
831.496	24905
831.635	24700
831.774	24604
831.913	24517
832.051	24578
832.19	24486
832.329	24464
832.467	24429
832.606	24258
832.744	24289
832.883	24429
833.022	24479
833.16	24330
833.299	24380
833.437	24319
833.576	24445
833.714	24505
833.852	24365
833.991	24536
834.129	24528
834.267	24551
834.406	24441
834.544	24369
834.682	24346
834.821	24456
834.959	24494
835.097	24346
835.235	24502
835.373	24471
835.511	24456
835.65	24395
835.788	24243
835.926	24163
836.064	24182
836.202	24057
836.34	24289
836.478	24304
836.615	24254
836.753	24330
836.891	24239
837.029	24258
837.167	24266
837.305	24144
837.443	24064
837.58	24087
837.718	24144
837.856	24167
837.993	23954
838.131	24064
838.269	23954
838.406	23999
838.544	24034
838.681	23729
838.819	23771
838.956	23657
839.094	23623
839.231	23657
839.369	23710
839.506	23916
839.643	23828
839.781	23524
839.918	23566
840.055	23554
840.193	23467
840.33	23474
840.467	23478
840.604	23459
840.742	23748
840.879	23353
841.016	23254
841.153	23478
841.29	23551
841.427	23459
841.564	23512
841.701	23482
841.838	23410
841.975	23353
842.112	23345
842.249	23299
842.385	23083
842.522	23436
842.659	23223
842.796	23193
842.933	23212
843.069	23162
843.206	23254
843.343	23387
843.479	23185
843.616	23181
843.752	22908
843.889	23022
844.025	23136
844.162	23064
844.298	23090
844.435	23029
844.571	22965
844.708	23090
844.844	23185
844.98	23079
845.117	23155
845.253	22786
845.389	22862
845.525	22942
845.661	22854
845.798	22580
845.934	22774
846.07	22759
846.206	22771
846.342	22824
846.478	22656
846.614	22554
846.75	22542
846.886	22421
847.022	22451
847.158	22672
847.294	22531
847.429	22485
847.565	22550
847.701	22672
847.837	22207
847.972	22101
848.108	22306
848.244	22386
848.379	22173
848.515	21979
848.65	22017
848.786	22124
848.921	22143
849.057	22063
849.192	22082
849.328	22017
849.463	22021
849.598	21987
849.734	21956
849.869	21911
850.004	21892
850.14	21899
850.275	21808
850.41	21850
850.545	21759
850.68	21751
850.815	21846
850.95	21876
851.085	21945
851.22	22040
851.355	21800
851.49	21709
851.625	21736
851.76	21728
851.895	21789
852.03	21736
852.165	21926
852.299	21789
852.434	21846
852.569	21804
852.703	21865
852.838	21915
852.973	22074
853.107	21892
853.242	21781
853.376	21576
853.511	21473
853.645	21580
853.78	21831
853.914	21545
854.048	21625
854.183	21667
854.317	21713
854.451	21812
854.585	21568
854.72	21675
854.854	21652
854.988	21530
855.122	21717
855.256	21416
855.39	21717
855.524	21641
855.658	21667
855.792	21625
855.926	21675
856.06	21770
856.194	21736
856.327	21709
856.461	21667
856.595	21564
856.729	21454
856.862	21675
856.996	21686
857.13	21644
857.263	21728
857.397	21759
857.53	21660
857.664	21682
857.797	21770
857.931	21663
858.064	21701
858.197	21682
858.331	21595
858.464	21709
858.597	21488
858.731	21534
858.864	21629
858.997	21622
859.13	21549
859.263	21667
859.396	21736
859.529	21610
859.662	21595
859.795	21481
859.928	21743
860.061	21751
860.194	21694
860.327	21682
860.46	21694
860.592	21713
860.725	21694
860.858	21819
860.99	21549
861.123	21534
861.256	21599
861.388	21656
861.521	22295
861.653	21462
861.786	21534
861.918	21485
862.05	21507
862.183	21439
862.315	21603
862.447	21557
862.58	21622
862.712	21378
862.844	21321
862.976	21542
863.108	21523
863.24	21633
863.372	21294
863.504	21431
863.636	21294
863.768	21420
863.9	21424
864.032	21332
864.164	21332
864.296	21416
864.428	21416
864.559	21397
864.691	21355
864.823	21340
864.954	21264
865.086	21241
865.217	21279
865.349	21062
865.48	21283
865.612	21203
865.743	21279
865.875	21184
866.006	21176
866.137	21176
866.269	21230
866.4	21256
866.531	21138
866.662	21100
866.793	21192
866.924	21104
867.055	21222
867.186	21184
867.317	21184
867.448	21100
867.579	21104
867.71	21089
867.841	21047
867.972	21165
868.103	21169
868.233	21226
868.364	21154
868.495	21268
868.625	21424
868.756	21462
868.886	21466
869.017	21386
869.147	21583
869.278	21564
869.408	21431
869.539	21500
869.669	21515
869.799	21477
869.929	21561
870.06	21557
870.19	21759
870.32	21701
870.45	21660
870.58	21728
870.71	21979
870.84	21774
870.97	21751
871.1	21781
871.23	21979
871.36	21964
871.489	21907
871.619	21876
871.749	22063
871.879	22002
872.008	22139
872.138	21953
872.267	21922
872.397	21842
872.526	21819
872.656	21857
872.785	21903
872.915	22006
873.044	22070
873.173	22021
873.303	22036
873.432	22017
873.561	22139
873.69	21987
873.819	21994
873.948	22010
874.077	22010
874.206	21884
874.335	21960
874.464	22105
874.593	22238
874.722	22139
874.851	22169
874.979	22173
875.108	22424
875.237	22169
875.365	22067
875.494	22131
875.623	22303
875.751	22162
875.88	22276
876.008	22363
876.136	22405
876.265	22630
876.393	22725
876.521	22820
876.65	22664
876.778	22573
876.906	22538
877.034	22542
877.162	22649
877.29	22436
877.418	22577
877.546	22641
877.674	22596
877.802	22542
877.93	22592
878.058	22413
878.185	22474
878.313	22523
878.441	22569
878.568	22489
878.696	22615
878.824	22637
878.951	22717
879.079	22763
879.206	22862
879.333	22858
879.461	22516
879.588	22786
879.715	22782
879.842	22877
879.97	22653
880.097	22310
880.224	22428
880.351	22443
880.478	22481
880.605	22303
880.732	22322
880.859	22630
880.986	22440
881.112	22462
881.239	22261
881.366	22131
881.493	22010
881.619	21941
881.746	22059
881.872	21816
881.999	21953
882.125	21892
882.252	22055
882.378	21956
882.505	21994
882.631	21873
882.757	21724
882.883	21781
883.01	21705
883.136	21690
883.262	21564
883.388	21496
883.514	21705
883.64	21778
883.766	21648
883.892	21397
884.018	21420
884.143	21663
884.269	21778
884.395	21458
884.52	21203
884.646	21329
884.772	21313
884.897	21260
885.023	21252
885.148	21382
885.274	21370
885.399	21405
885.524	21454
885.65	21321
885.775	21344
885.9	21249
886.025	21481
886.15	21321
886.275	21298
886.4	21256
886.525	21211
886.65	21252
886.775	21214
886.9	21382
887.025	21477
887.149	21256
887.274	21127
887.399	21089
887.523	21135
887.648	20979
887.773	20834
887.897	21161
888.021	21203
888.146	20887
888.27	21146
888.395	21142
888.519	21108
888.643	21180
888.767	21116
888.891	20880
889.015	20887
889.139	20868
889.263	20762
889.387	20975
889.511	21017
889.635	21017
889.759	20891
889.883	20804
890.006	20876
890.13	20963
890.254	20777
890.377	20895
890.501	20613
890.624	20621
890.748	20750
890.871	20503
890.995	20450
891.118	20469
891.241	20381
891.364	20423
891.488	20552
891.611	20396
891.734	20465
891.857	20446
891.98	20473
892.103	20514
892.226	20396
892.349	20229
892.471	20119
892.594	20385
892.717	20427
892.839	20286
892.962	20431
893.085	20412
893.207	20328
893.33	20263
893.452	20320
893.575	20374
893.697	20332
893.819	20431
893.941	20495
894.064	20552
894.186	20309
894.308	20317
894.43	20385
894.552	20389
894.674	20434
894.796	20195
894.918	20317
895.04	20275
895.161	20336
895.283	20419
895.405	20256
895.526	20317
895.648	20263
895.769	20419
895.891	20347
896.012	20286
896.134	20290
896.255	20176
896.376	20252
896.498	20233
896.619	20412
896.74	20381
896.861	20252
896.982	20609
897.103	20750
897.224	20552
897.345	20659
897.466	20461
897.587	20617
897.708	20712
897.828	20549
897.949	20446
898.07	20252
898.19	20507
898.311	20602
898.431	20450
898.552	20499
898.672	20613
898.792	20663
898.913	20564
899.033	20366
899.153	20454
899.273	20244
899.393	20278
899.513	20317
899.633	20294
899.753	20328
899.873	20301
899.993	20313
900.113	20214
900.232	20298
900.352	20191
900.472	20103
900.591	19970
900.711	20084
900.83	19906
900.95	20199
901.069	20244
901.189	19822
901.308	19742
901.427	19670
901.546	19601
901.665	19677
901.784	19655
901.904	19472
902.023	19407
902.141	19129
902.26	19152
902.379	19236
902.498	19137
902.617	19095
902.735	19320
902.854	19202
902.973	19099
903.091	18787
903.21	18810
903.328	18814
903.446	18677
903.565	18650
903.683	18604
903.801	18608
903.919	18608
904.038	18445
904.156	18418
904.274	18498
904.392	18346
904.51	18422
904.627	18338
904.745	18551
904.863	18479
904.981	18129
905.098	18117
905.216	18007
905.334	18114
905.451	18072
905.569	18011
905.686	18114
905.803	18095
905.921	17893
906.038	17916
906.155	17999
906.272	17748
906.389	17767
906.506	17524
906.623	17589
906.74	17509
906.857	17505
906.974	17577
907.091	17623
907.208	17733
907.324	17615
907.441	17429
907.557	17334
907.674	17277
907.79	17250
907.907	17296
908.023	17318
908.139	17349
908.256	17292
908.372	17174
908.488	17170
908.604	16972
908.72	17041
908.836	17025
908.952	16889
909.068	17067
909.184	17052
909.3	16953
909.415	17037
909.531	17094
909.647	16786
909.762	16820
909.878	16771
909.993	16733
910.108	16702
910.224	16736
910.339	16649
910.454	16546
910.57	16489
910.685	16436
910.8	16831
910.915	16584
911.03	16546
911.145	16379
911.259	16314
911.374	16284
911.489	16265
911.604	16128
911.718	16090
911.833	15975
911.947	16017
912.062	15842
912.176	16006
912.291	15953
912.405	16044
912.519	16238
912.633	16207
912.748	16128
912.862	15895
912.976	15873
913.09	15762
913.204	15865
913.318	15911
913.431	15964
913.545	15983
913.659	15800
913.772	15823
913.886	15694
914	15511
914.113	15679
914.226	15751
914.34	15785
914.453	15492
914.566	15709
914.68	15450
914.793	15549
914.906	15378
915.019	15275
915.132	15203
915.245	15192
915.358	15313
915.47	15195
915.583	15252
915.696	15294
915.809	15424
915.921	15408
916.034	15157
916.146	15184
916.259	15161
916.371	15157
916.483	15237
916.595	15142
916.708	15077
916.82	15081
916.932	15104
917.044	15077
917.156	15070
917.268	14880
917.38	14937
917.491	14872
917.603	14876
917.715	15005
917.826	14990
917.938	14815
918.049	14659
918.161	14933
918.272	15009
918.384	14941
918.495	14842
918.606	14636
918.717	14625
918.828	14583
918.939	14644
919.05	14579
919.161	14678
919.272	14469
919.383	14469
919.494	14678
919.604	14914
919.715	14701
919.826	14552
919.936	14568
920.047	14758
920.157	14644
920.267	14750
920.378	14682
920.488	14682
920.598	14720
920.708	14891
920.818	14765
920.928	14754
921.038	14868
921.148	14864
921.258	14571
921.368	14450
921.477	14351
921.587	14298
921.697	14202
921.806	14313
921.916	14214
922.025	14020
922.134	14134
922.244	14050
922.353	13989
922.462	13902
922.571	13841
922.68	13719
922.789	13666
922.898	13689
923.007	13594
923.116	13693
923.224	13556
923.333	13639
923.442	13597
923.55	13620
923.659	13525
923.767	13571
923.876	13472
923.984	13552
924.092	13430
924.201	13415
924.309	13472
924.417	13396
924.525	13331
924.633	13441
924.741	14229
924.849	13213
924.956	13149
925.064	13091
925.172	13053
925.279	13091
925.387	13137
925.494	13057
925.602	13236
925.709	13080
925.816	13008
925.924	13061
926.031	13114
926.138	13065
926.245	13084
926.352	12962
926.459	13091
926.566	12993
926.673	12954
926.779	12871
926.886	12810
926.993	12715
927.099	12688
927.206	12650
927.312	12597
927.419	12601
927.525	12639
927.631	12703
927.737	12517
927.843	12471
927.95	12437
928.056	12513
928.162	12483
928.267	12623
928.373	13118
928.479	12608
928.585	12296
928.69	12483
928.796	12384
928.901	12304
929.007	12178
929.112	12334
929.218	12380
929.323	12167
929.428	12232
929.533	12372
929.638	12098
929.743	12171
929.848	12190
929.953	12148
930.058	12049
930.163	11851
930.267	11912
930.372	11920
930.477	11817
930.581	12049
930.685	11992
930.79	11748
930.894	11828
930.998	11760
931.103	11783
931.207	11551
931.311	11349
931.415	11307
931.519	11178
931.623	11109
