Data from test_V78500241_2600.txt Node
Date: Fri Mar 25 15:27:57 CST 2022
User: usil
Spectrometer: V785-0024
Trigger mode: 0
Integration Time (sec): 4.000000E-1
Scans to average: 1
Nonlinearity correction enabled: false
Boxcar width: 0
Storing dark spectrum: false
XAxis mode: Wavelengths
Number of Pixels in Spectrum: 1024
>>>>>Begin Spectral Data<<<<<
801.071	27070
801.214	27169
801.356	26762
801.499	26861
801.641	26663
801.783	26716
801.926	26735
802.068	26708
802.211	26446
802.353	26514
802.496	26412
802.638	26336
802.78	26320
802.923	26191
803.065	26069
803.208	26130
803.35	26199
803.492	26450
803.635	26583
803.777	26305
803.919	26522
804.061	26739
804.204	26507
804.346	26549
804.488	26374
804.63	26431
804.773	26339
804.915	26678
805.057	26583
805.199	26450
805.341	26556
805.483	26674
805.626	26480
805.768	26484
805.91	26530
806.052	26640
806.194	26530
806.336	26670
806.478	26629
806.62	26587
806.762	26708
806.904	26804
807.046	26967
807.188	27154
807.33	26998
807.472	26960
807.614	26899
807.756	27047
807.898	26796
808.04	26754
808.182	26842
808.324	26777
808.465	26921
808.607	27066
808.749	27226
808.891	27260
809.033	27317
809.174	27237
809.316	27081
809.458	27150
809.6	27195
809.741	27348
809.883	27279
810.025	27348
810.166	27458
810.308	27477
810.45	27473
810.591	27393
810.733	27317
810.875	27245
811.016	27207
811.158	27188
811.299	27408
811.441	27401
811.582	27443
811.724	27348
811.865	27192
812.007	27142
812.148	27127
812.29	27127
812.431	27363
812.573	27405
812.714	27576
812.855	27622
812.997	27732
813.138	27922
813.279	27789
813.421	27610
813.562	27599
813.703	27363
813.845	27469
813.986	27017
814.127	26853
814.268	26906
814.41	26899
814.551	26800
814.692	26864
814.833	26804
814.974	26849
815.115	26921
815.256	26636
815.397	26746
815.539	26663
815.68	26514
815.821	26552
815.962	26697
816.103	26503
816.244	26313
816.385	26446
816.526	26492
816.666	26225
816.807	26130
816.948	26233
817.089	26233
817.23	26065
817.371	26062
817.512	25970
817.653	26145
817.793	25951
817.934	26210
818.075	26107
818.216	25970
818.356	26111
818.497	26027
818.638	25894
818.778	25822
818.919	25784
819.06	25940
819.2	25997
819.341	26058
819.481	25947
819.622	26313
819.762	26362
819.903	26294
820.043	26214
820.184	26252
820.324	26168
820.465	26149
820.605	26294
820.746	26164
820.886	26092
821.026	26142
821.167	26122
821.307	26252
821.447	26065
821.588	25936
821.728	25750
821.868	25639
822.008	25586
822.149	25571
822.289	25499
822.429	25259
822.569	25183
822.709	25133
822.849	25126
822.99	25145
823.13	25023
823.27	24989
823.41	24954
823.55	24768
823.69	24787
823.83	24901
823.97	24871
824.11	24684
824.25	24563
824.389	24593
824.529	24707
824.669	24688
824.809	24779
824.949	24909
825.089	24829
825.228	24760
825.368	24441
825.508	24471
825.648	24650
825.787	24665
825.927	24589
826.067	24563
826.206	24521
826.346	24688
826.485	24654
826.625	24563
826.765	24719
826.904	24521
827.044	24372
827.183	24289
827.323	24296
827.462	24277
827.601	24289
827.741	24243
827.88	24338
828.02	24186
828.159	24174
828.298	24330
828.437	24361
828.577	24330
828.716	24315
828.855	24171
828.994	24041
829.134	24026
829.273	24117
829.412	23889
829.551	23973
829.69	24068
829.829	23996
829.968	24064
830.107	24026
830.246	24057
830.385	23965
830.524	24049
830.663	23859
830.802	23771
830.941	23581
831.08	23623
831.219	23661
831.357	23627
831.496	23821
831.635	23547
831.774	23501
831.913	23524
832.051	23425
832.19	23395
832.329	23330
832.467	23349
832.606	23353
832.744	23235
832.883	23292
833.022	23216
833.16	23326
833.299	23162
833.437	23296
833.576	23391
833.714	23444
833.852	23341
833.991	23505
834.129	23398
834.267	23436
834.406	23383
834.544	23433
834.682	23372
834.821	23334
834.959	23604
835.097	23356
835.235	23490
835.373	23383
835.511	23353
835.65	23223
835.788	23189
835.926	23102
836.064	23006
836.202	23117
836.34	23174
836.478	23235
836.615	23094
836.753	23200
836.891	23417
837.029	23041
837.167	23258
837.305	22949
837.443	23094
837.58	22984
837.718	23094
837.856	23170
837.993	23014
838.131	23010
838.269	23003
838.406	22900
838.544	22980
838.681	22873
838.819	22774
838.956	22565
839.094	22436
839.231	22687
839.369	22805
839.506	22869
839.643	22755
839.781	22462
839.918	22592
840.055	22512
840.193	22489
840.33	22428
840.467	22580
840.604	22580
840.742	22793
840.879	22371
841.016	22440
841.153	22436
841.29	22557
841.427	22436
841.564	22573
841.701	22546
841.838	22303
841.975	22428
842.112	22588
842.249	22329
842.385	22295
842.522	22489
842.659	22265
842.796	22276
842.933	22234
843.069	22272
843.206	22131
843.343	22341
843.479	22310
843.616	22230
843.752	22070
843.889	22048
844.025	22124
844.162	21991
844.298	22040
844.435	21937
844.571	21934
844.708	21979
844.844	22029
844.98	22059
845.117	22082
845.253	21994
845.389	21964
845.525	21903
845.661	21861
845.798	21831
845.934	21899
846.07	21698
846.206	21899
846.342	21709
846.478	21690
846.614	21481
846.75	21416
846.886	21515
847.022	21523
847.158	21564
847.294	21534
847.429	21523
847.565	21572
847.701	21705
847.837	21207
847.972	21188
848.108	21332
848.244	21302
848.379	21081
848.515	21039
848.65	21009
848.786	21142
848.921	21028
849.057	21100
849.192	21093
849.328	21085
849.463	21081
849.598	21013
849.734	20944
849.869	20872
850.004	20743
850.14	20826
850.275	20891
850.41	20754
850.545	20826
850.68	20868
850.815	20941
850.95	20861
851.085	21066
851.22	20998
851.355	20941
851.49	20701
851.625	20807
851.76	20792
851.895	20731
852.03	20655
852.165	20785
852.299	20861
852.434	20864
852.569	20845
852.703	20857
852.838	20826
852.973	20956
853.107	20963
853.242	20762
853.376	20724
853.511	20606
853.645	20609
853.78	20811
853.914	20762
854.048	20670
854.183	20746
854.317	20682
854.451	20811
854.585	20670
854.72	20716
854.854	20838
854.988	20617
855.122	20590
855.256	20670
855.39	20560
855.524	20765
855.658	20731
855.792	20788
855.926	20648
856.06	20731
856.194	20830
856.327	20587
856.461	20480
856.595	20640
856.729	20613
856.862	20750
856.996	20636
857.13	20796
857.263	20655
857.397	20788
857.53	20590
857.664	20735
857.797	20697
857.931	20815
858.064	20765
858.197	20678
858.331	20697
858.464	20636
858.597	20648
858.731	20667
858.864	20609
858.997	20617
859.13	20758
859.263	20670
859.396	20781
859.529	20655
859.662	20606
859.795	20606
859.928	20689
860.061	20781
860.194	20941
860.327	20701
860.46	20655
860.592	20830
860.725	20834
860.858	20804
860.99	20655
861.123	20606
861.256	20697
861.388	20575
861.521	21504
861.653	20659
861.786	20412
861.918	20495
862.05	20549
862.183	20579
862.315	20621
862.447	20613
862.58	20499
862.712	20438
862.844	20275
862.976	20450
863.108	20533
863.24	20887
863.372	20351
863.504	20404
863.636	20396
863.768	20438
863.9	20385
864.032	20393
864.164	20355
864.296	20343
864.428	20419
864.559	20473
864.691	20374
864.823	20336
864.954	20461
865.086	20278
865.217	20366
865.349	20191
865.48	20305
865.612	20202
865.743	20362
865.875	20248
866.006	20206
866.137	20233
866.269	20374
866.4	20286
866.531	20290
866.662	20221
866.793	20294
866.924	20259
867.055	20172
867.186	20191
867.317	20256
867.448	20134
867.579	20138
867.71	20161
867.841	20065
867.972	20229
868.103	20195
868.233	20347
868.364	20221
868.495	20336
868.625	20484
868.756	20514
868.886	20355
869.017	20404
869.147	20514
869.278	20636
869.408	20446
869.539	20377
869.669	20606
869.799	20533
869.929	20568
870.06	20632
870.19	20800
870.32	20731
870.45	20769
870.58	20887
870.71	20944
870.84	20941
870.97	20864
871.1	20845
871.23	21047
871.36	21070
871.489	21051
871.619	21165
871.749	21165
871.879	21020
872.008	21180
872.138	21047
872.267	21089
872.397	20887
872.526	21005
872.656	20872
872.785	20887
872.915	21146
873.044	21218
873.173	20994
873.303	21199
873.432	21047
873.561	21066
873.69	21058
873.819	21028
873.948	21207
874.077	21104
874.206	21119
874.335	21157
874.464	21199
874.593	21306
874.722	21207
874.851	21450
874.979	21405
875.108	21370
875.237	21294
875.365	21245
875.494	21195
875.623	21332
875.751	21283
875.88	21389
876.008	21435
876.136	21515
876.265	21709
876.393	21892
876.521	21808
876.65	21751
876.778	21781
876.906	21694
877.034	21644
877.162	21713
877.29	21637
877.418	21667
877.546	21709
877.674	21694
877.802	21751
877.93	21637
878.058	21675
878.185	21652
878.313	21701
878.441	21618
878.568	21572
878.696	21641
878.824	21732
878.951	21705
879.079	21770
879.206	22010
879.333	21835
879.461	21717
879.588	21694
879.715	21888
879.842	21842
879.97	21797
880.097	21485
880.224	21481
880.351	21511
880.478	21583
880.605	21485
880.732	21496
880.859	21618
880.986	21572
881.112	21511
881.239	21313
881.366	21249
881.493	21188
881.619	21116
881.746	21070
881.872	21169
881.999	21096
882.125	21104
882.252	21104
882.378	21116
882.505	21096
882.631	21074
882.757	20849
882.883	20914
883.01	20765
883.136	20686
883.262	20648
883.388	20552
883.514	20834
883.64	20804
883.766	20648
883.892	20625
884.018	20564
884.143	20655
884.269	20773
884.395	20526
884.52	20438
884.646	20423
884.772	20457
884.897	20351
885.023	20526
885.148	20442
885.274	20549
885.399	20518
885.524	20473
885.65	20499
885.775	20450
885.9	20522
886.025	20552
886.15	20545
886.275	20298
886.4	20339
886.525	20317
886.65	20336
886.775	20419
886.9	20530
887.025	20465
887.149	20450
887.274	20134
887.399	20237
887.523	20252
887.648	20107
887.773	20298
887.897	20351
888.021	20294
888.146	20161
888.27	20332
888.395	20317
888.519	20168
888.643	20278
888.767	20267
888.891	20096
889.015	20058
889.139	20126
889.263	20069
889.387	20161
889.511	20328
889.635	20172
889.759	19955
889.883	20058
890.006	20058
890.13	20012
890.254	19955
890.377	20001
890.501	19780
890.624	19807
890.748	19875
890.871	19616
890.995	19533
891.118	19411
891.241	19609
891.364	19613
891.488	19875
891.611	19556
891.734	19533
891.857	19586
891.98	19537
892.103	19662
892.226	19628
892.349	19548
892.471	19430
892.594	19609
892.717	19575
892.839	19514
892.962	19575
893.085	19559
893.207	19438
893.33	19438
893.452	19472
893.575	19620
893.697	19403
893.819	19704
893.941	19677
894.064	19632
894.186	19525
894.308	19384
894.43	19480
894.552	19647
894.674	19605
894.796	19381
894.918	19464
895.04	19487
895.161	19495
895.283	19468
895.405	19449
895.526	19590
895.648	19620
895.769	19525
895.891	19586
896.012	19620
896.134	19514
896.255	19544
896.376	19510
896.498	19491
896.619	19556
896.74	19559
896.861	19540
896.982	19932
897.103	19967
897.224	19898
897.345	19772
897.466	19704
897.587	19681
897.708	19894
897.828	19765
897.949	19693
898.07	19616
898.19	19738
898.311	19955
898.431	19727
898.552	19731
898.672	19818
898.792	19814
898.913	19715
899.033	19586
899.153	19734
899.273	19491
899.393	19590
899.513	19544
899.633	19510
899.753	19586
899.873	19480
899.993	19502
900.113	19510
900.232	19434
900.352	19350
900.472	19236
900.591	19206
900.711	19263
900.83	19278
900.95	19396
901.069	19430
901.189	19076
901.308	18954
901.427	18871
901.546	19027
901.665	18951
901.784	18863
901.904	18787
902.023	18738
902.141	18452
902.26	18407
902.379	18494
902.498	18445
902.617	18342
902.735	18418
902.854	18399
902.973	18334
903.091	18060
903.21	18148
903.328	18152
903.446	17958
903.565	17870
903.683	17878
903.801	17836
903.919	17771
904.038	17821
904.156	17786
904.274	17775
904.392	17596
904.51	17676
904.627	17687
904.745	17657
904.863	17748
904.981	17448
905.098	17417
905.216	17391
905.334	17463
905.451	17368
905.569	17341
905.686	17417
905.803	17345
905.921	17197
906.038	17269
906.155	17178
906.272	16984
906.389	17003
906.506	16911
906.623	16949
906.74	16850
906.857	16828
906.974	16835
907.091	16938
907.208	17033
907.324	16957
907.441	16824
907.557	16706
907.674	16554
907.79	16516
907.907	16550
908.023	16466
908.139	16656
908.256	16599
908.372	16451
908.488	16485
908.604	16337
908.72	16363
908.836	16333
908.952	16249
909.068	16337
909.184	16371
909.3	16287
909.415	16417
909.531	16325
909.647	16055
909.762	16055
909.878	16032
909.993	16013
910.108	16021
910.224	15983
910.339	15998
910.454	15926
910.57	15884
910.685	15797
910.8	16169
910.915	16116
911.03	15899
911.145	15705
911.259	15709
911.374	15542
911.489	15625
911.604	15481
911.718	15431
911.833	15439
911.947	15291
912.062	15245
912.176	15473
912.291	15542
912.405	15435
912.519	15644
912.633	15663
912.748	15450
912.862	15370
912.976	15325
913.09	15154
913.204	15195
913.318	15313
913.431	15291
913.545	15313
913.659	15245
913.772	15176
913.886	15055
914	15066
914.113	15051
914.226	15173
914.34	15157
914.453	14918
914.566	15043
914.68	14861
914.793	14967
914.906	14743
915.019	14640
915.132	14663
915.245	14678
915.358	14629
915.47	14632
915.583	14632
915.696	14750
915.809	14727
915.921	14712
916.034	14602
916.146	14514
916.259	14545
916.371	14606
916.483	14670
916.595	14400
916.708	14461
916.82	14568
916.932	14393
917.044	14438
917.156	14358
917.268	14290
917.38	14412
917.491	14484
917.603	14301
917.715	14408
917.826	14396
917.938	14267
918.049	14176
918.161	14259
918.272	14457
918.384	14362
918.495	14275
918.606	14161
918.717	14065
918.828	14092
918.939	14183
919.05	14084
919.161	14130
919.272	13822
919.383	13989
919.494	14145
919.604	14275
919.715	14027
919.826	14035
919.936	14046
920.047	14107
920.157	14043
920.267	14130
920.378	14058
920.488	13932
920.598	14210
920.708	14389
920.818	14161
920.928	14153
921.038	14404
921.148	14290
921.258	13978
921.368	13883
921.477	13856
921.587	13795
921.697	13662
921.806	13795
921.916	13655
922.025	13510
922.134	13495
922.244	13441
922.353	13529
922.462	13365
922.571	13247
922.68	13137
922.789	13107
922.898	13164
923.007	13042
923.116	13126
923.224	13034
923.333	13057
923.442	13019
923.55	12970
923.659	12894
923.767	12989
923.876	12871
923.984	12928
924.092	12852
924.201	12871
924.309	12875
924.417	12730
924.525	12787
924.633	12760
924.741	13670
924.849	12612
924.956	12741
925.064	12608
925.172	12551
925.279	12521
925.387	12494
925.494	12490
925.602	12669
925.709	12551
925.816	12452
925.924	12506
926.031	12566
926.138	12410
926.245	12517
926.352	12410
926.459	12544
926.566	12555
926.673	12490
926.779	12311
926.886	12319
926.993	12194
927.099	12091
927.206	12041
927.312	12072
927.419	12121
927.525	12114
927.631	12155
927.737	11992
927.843	11958
927.95	11939
928.056	11931
928.162	11988
928.267	12015
928.373	12426
928.479	11961
928.585	11760
928.69	11954
928.796	11916
928.901	11771
929.007	11653
929.112	11805
929.218	11786
929.323	11680
929.428	11699
929.533	11832
929.638	11596
929.743	11684
929.848	11714
929.953	11642
930.058	11532
930.163	11398
930.267	11448
930.372	11539
930.477	11334
930.581	11581
930.685	11433
930.79	11239
930.894	11307
930.998	11265
931.103	11356
931.207	11045
931.311	10953
931.415	10892
931.519	10714
931.623	10687
