Data from test_V78500241_3074.txt Node
Date: Fri Mar 25 15:31:15 CST 2022
User: usil
Spectrometer: V785-0024
Trigger mode: 0
Integration Time (sec): 4.000000E-1
Scans to average: 1
Nonlinearity correction enabled: false
Boxcar width: 0
Storing dark spectrum: false
XAxis mode: Wavelengths
Number of Pixels in Spectrum: 1024
>>>>>Begin Spectral Data<<<<<
801.071	27256
801.214	27146
801.356	26891
801.499	26864
801.641	26758
801.783	26853
801.926	26895
802.068	26686
802.211	26746
802.353	26678
802.496	26678
802.638	26579
802.78	26431
802.923	26450
803.065	26237
803.208	26400
803.35	26469
803.492	26514
803.635	26724
803.777	26507
803.919	26625
804.061	26956
804.204	26514
804.346	26632
804.488	26587
804.63	26625
804.773	26575
804.915	26697
805.057	26811
805.199	26446
805.341	26743
805.483	26682
805.626	26842
805.768	26670
805.91	26636
806.052	26720
806.194	26499
806.336	26815
806.478	26746
806.62	26537
806.762	26785
806.904	26899
807.046	27348
807.188	27173
807.33	27176
807.472	27275
807.614	27089
807.756	26967
807.898	27058
808.04	26933
808.182	26902
808.324	26971
808.465	27154
808.607	27108
808.749	27127
808.891	27401
809.033	27291
809.174	27370
809.316	27344
809.458	27393
809.6	27241
809.741	27454
809.883	27355
810.025	27583
810.166	27781
810.308	27523
810.45	27656
810.591	27454
810.733	27313
810.875	27291
811.016	27283
811.158	27138
811.299	27389
811.441	27523
811.582	27488
811.724	27321
811.865	27283
812.007	27176
812.148	27207
812.29	27317
812.431	27401
812.573	27625
812.714	27614
812.855	27720
812.997	27827
813.138	27964
813.279	27960
813.421	27804
813.562	27739
813.703	27606
813.845	27424
813.986	27230
814.127	26948
814.268	26887
814.41	27005
814.551	26834
814.692	26895
814.833	26948
814.974	26899
815.115	26933
815.256	26724
815.397	26830
815.539	26891
815.68	26655
815.821	26731
815.962	26834
816.103	26823
816.244	26560
816.385	26533
816.526	26549
816.666	26366
816.807	26107
816.948	26377
817.089	26157
817.23	26278
817.371	26183
817.512	26157
817.653	26358
817.793	26122
817.934	26237
818.075	26183
818.216	26077
818.356	26126
818.497	26081
818.638	25909
818.778	26024
818.919	25921
819.06	25970
819.2	26157
819.341	26237
819.481	26229
819.622	26381
819.762	26495
819.903	26301
820.043	26309
820.184	26206
820.324	26240
820.465	26453
820.605	26362
820.746	26328
820.886	26305
821.026	26305
821.167	26233
821.307	26298
821.447	26103
821.588	26202
821.728	25928
821.868	25791
822.008	25723
822.149	25715
822.289	25635
822.429	25419
822.569	25247
822.709	25263
822.849	25206
822.99	25148
823.13	25053
823.27	25217
823.41	24943
823.55	25057
823.69	25137
823.83	24886
823.97	24909
824.11	24703
824.25	24894
824.389	24768
824.529	24806
824.669	24795
824.809	24913
824.949	24878
825.089	24871
825.228	24764
825.368	24631
825.508	24661
825.648	24734
825.787	24620
825.927	24749
826.067	24745
826.206	24703
826.346	24768
826.485	24776
826.625	24639
826.765	24798
826.904	24711
827.044	24498
827.183	24498
827.323	24289
827.462	24452
827.601	24464
827.741	24346
827.88	24479
828.02	24304
828.159	24388
828.298	24403
828.437	24536
828.577	24323
828.716	24429
828.855	24273
828.994	24148
829.134	24068
829.273	24110
829.412	23931
829.551	23946
829.69	24049
829.829	24194
829.968	24285
830.107	24106
830.246	24186
830.385	24041
830.524	23977
830.663	23999
830.802	23805
830.941	23786
831.08	23813
831.219	23920
831.357	23904
831.496	23984
831.635	23824
831.774	23547
831.913	23627
832.051	23573
832.19	23429
832.329	23421
832.467	23410
832.606	23353
832.744	23341
832.883	23376
833.022	23376
833.16	23334
833.299	23356
833.437	23490
833.576	23455
833.714	23543
833.852	23535
833.991	23414
834.129	23600
834.267	23463
834.406	23444
834.544	23543
834.682	23410
834.821	23398
834.959	23596
835.097	23383
835.235	23467
835.373	23478
835.511	23318
835.65	23337
835.788	23406
835.926	23204
836.064	23166
836.202	23151
836.34	23162
836.478	23376
836.615	23299
836.753	23208
836.891	23421
837.029	23425
837.167	23235
837.305	23098
837.443	23265
837.58	23136
837.718	23174
837.856	23113
837.993	23136
838.131	23033
838.269	22995
838.406	23170
838.544	22862
838.681	22839
838.819	22816
838.956	22717
839.094	22512
839.231	22713
839.369	22809
839.506	23121
839.643	22793
839.781	22797
839.918	22592
840.055	22630
840.193	22577
840.33	22500
840.467	22622
840.604	22607
840.742	22869
840.879	22447
841.016	22523
841.153	22485
841.29	22626
841.427	22569
841.564	22504
841.701	22535
841.838	22512
841.975	22409
842.112	22440
842.249	22402
842.385	22291
842.522	22596
842.659	22516
842.796	22333
842.933	22246
843.069	22310
843.206	22230
843.343	22413
843.479	22360
843.616	22265
843.752	22090
843.889	22006
844.025	22272
844.162	22112
844.298	22223
844.435	22074
844.571	22017
844.708	22086
844.844	22226
844.98	22150
845.117	22185
845.253	22109
845.389	22044
845.525	22082
845.661	21972
845.798	21751
845.934	21781
846.07	21819
846.206	21922
846.342	21949
846.478	21918
846.614	21580
846.75	21545
846.886	21591
847.022	21606
847.158	21663
847.294	21534
847.429	21557
847.565	21481
847.701	21876
847.837	21317
847.972	21287
848.108	21344
848.244	21378
848.379	21146
848.515	21142
848.65	21131
848.786	21218
848.921	21096
849.057	21188
849.192	21226
849.328	21161
849.463	21157
849.598	20990
849.734	21081
849.869	21093
850.004	20979
850.14	20929
850.275	20952
850.41	20758
850.545	21036
850.68	20883
850.815	21024
850.95	20960
851.085	21096
851.22	20982
851.355	20986
851.49	20998
851.625	20849
851.76	20826
851.895	20929
852.03	20834
852.165	20925
852.299	20876
852.434	20872
852.569	20941
852.703	20952
852.838	20998
852.973	20937
853.107	21024
853.242	20849
853.376	20815
853.511	20739
853.645	20701
853.78	20826
853.914	20826
854.048	20644
854.183	20686
854.317	20754
854.451	21028
854.585	20724
854.72	20765
854.854	20674
854.988	20819
855.122	20655
855.256	20689
855.39	20746
855.524	20674
855.658	20769
855.792	20716
855.926	20796
856.06	20754
856.194	20823
856.327	20659
856.461	20724
856.595	20632
856.729	20720
856.862	20895
856.996	20838
857.13	20842
857.263	20887
857.397	20823
857.53	20693
857.664	20773
857.797	20819
857.931	20796
858.064	20792
858.197	20834
858.331	20674
858.464	20655
858.597	20712
858.731	20705
858.864	20746
858.997	20705
859.13	20697
859.263	20842
859.396	20792
859.529	20682
859.662	20701
859.795	20587
859.928	20815
860.061	20967
860.194	20937
860.327	20769
860.46	20758
860.592	20925
860.725	20963
860.858	20933
860.99	20796
861.123	20640
861.256	20724
861.388	20727
861.521	21344
861.653	20651
861.786	20545
861.918	20526
862.05	20644
862.183	20773
862.315	20819
862.447	20804
862.58	20781
862.712	20503
862.844	20434
862.976	20503
863.108	20575
863.24	20811
863.372	20450
863.504	20541
863.636	20438
863.768	20495
863.9	20446
864.032	20503
864.164	20461
864.296	20511
864.428	20556
864.559	20571
864.691	20590
864.823	20374
864.954	20427
865.086	20454
865.217	20423
865.349	20324
865.48	20415
865.612	20355
865.743	20457
865.875	20408
866.006	20415
866.137	20419
866.269	20495
866.4	20229
866.531	20347
866.662	20355
866.793	20339
866.924	20324
867.055	20351
867.186	20347
867.317	20244
867.448	20229
867.579	20320
867.71	20199
867.841	20195
867.972	20180
868.103	20271
868.233	20362
868.364	20210
868.495	20347
868.625	20587
868.756	20469
868.886	20552
869.017	20419
869.147	20746
869.278	20632
869.408	20594
869.539	20511
869.669	20594
869.799	20648
869.929	20640
870.06	20724
870.19	20849
870.32	20895
870.45	20872
870.58	20986
870.71	21081
870.84	21001
870.97	20971
871.1	21005
871.23	21116
871.36	20971
871.489	20990
871.619	21062
871.749	21066
871.879	21135
872.008	21211
872.138	21237
872.267	21165
872.397	20998
872.526	20971
872.656	21062
872.785	20944
872.915	21287
873.044	21348
873.173	21093
873.303	21195
873.432	21165
873.561	21252
873.69	21180
873.819	21138
873.948	21146
874.077	21146
874.206	21013
874.335	21081
874.464	21283
874.593	21469
874.722	21310
874.851	21389
874.979	21443
875.108	21469
875.237	21332
875.365	21344
875.494	21397
875.623	21526
875.751	21340
875.88	21496
876.008	21412
876.136	21591
876.265	21793
876.393	21949
876.521	21922
876.65	21789
876.778	21873
876.906	21739
877.034	21755
877.162	21675
877.29	21675
877.418	21876
877.546	21743
877.674	21732
877.802	21873
877.93	21717
878.058	21644
878.185	21637
878.313	21698
878.441	21698
878.568	21660
878.696	21728
878.824	21724
878.951	21770
879.079	21987
879.206	22101
879.333	21873
879.461	21819
879.588	21876
879.715	21911
879.842	22063
879.97	21808
880.097	21656
880.224	21656
880.351	21538
880.478	21542
880.605	21485
880.732	21568
880.859	21736
880.986	21587
881.112	21660
881.239	21370
881.366	21393
881.493	21180
881.619	21085
881.746	21214
881.872	21188
881.999	21214
882.125	21047
882.252	21066
882.378	21058
882.505	21279
882.631	21039
882.757	20944
882.883	20925
883.01	20880
883.136	20701
883.262	20701
883.388	20765
883.514	20861
883.64	20853
883.766	20823
883.892	20689
884.018	20651
884.143	20712
884.269	20921
884.395	20568
884.52	20450
884.646	20583
884.772	20484
884.897	20404
885.023	20530
885.148	20693
885.274	20670
885.399	20667
885.524	20541
885.65	20499
885.775	20629
885.9	20480
886.025	20617
886.15	20564
886.275	20412
886.4	20533
886.525	20556
886.65	20336
886.775	20431
886.9	20625
887.025	20781
887.149	20518
887.274	20259
887.399	20278
887.523	20237
887.648	20202
887.773	20103
887.897	20328
888.021	20431
888.146	20240
888.27	20427
888.395	20351
888.519	20305
888.643	20229
888.767	20244
888.891	20180
889.015	20100
889.139	20164
889.263	20126
889.387	20119
889.511	20465
889.635	20153
889.759	20107
889.883	20115
890.006	20172
890.13	20164
890.254	20077
890.377	20134
890.501	19898
890.624	19693
890.748	19776
890.871	19826
890.995	19708
891.118	19556
891.241	19655
891.364	19712
891.488	19674
891.611	19655
891.734	19708
891.857	19734
891.98	19597
892.103	19677
892.226	19662
892.349	19666
892.471	19567
892.594	19605
892.717	19674
892.839	19632
892.962	19540
893.085	19693
893.207	19613
893.33	19647
893.452	19407
893.575	19746
893.697	19590
893.819	19708
893.941	19738
894.064	19651
894.186	19495
894.308	19578
894.43	19662
894.552	19788
894.674	19685
894.796	19468
894.918	19567
895.04	19525
895.161	19559
895.283	19632
895.405	19514
895.526	19609
895.648	19609
895.769	19647
895.891	19594
896.012	19715
896.134	19628
896.255	19670
896.376	19544
896.498	19567
896.619	19613
896.74	19597
896.861	19635
896.982	19955
897.103	20043
897.224	19849
897.345	19795
897.466	19772
897.587	19814
897.708	19898
897.828	19917
897.949	19639
898.07	19696
898.19	19795
898.311	19986
898.431	19849
898.552	19856
898.672	19928
898.792	19868
898.913	19928
899.033	19632
899.153	19689
899.273	19552
899.393	19616
899.513	19578
899.633	19525
899.753	19624
899.873	19400
899.993	19597
900.113	19434
900.232	19635
900.352	19426
900.472	19525
900.591	19327
900.711	19388
900.83	19388
900.95	19445
901.069	19373
901.189	19228
901.308	19084
901.427	18962
901.546	18954
901.665	19042
901.784	18837
901.904	18875
902.023	18810
902.141	18490
902.26	18593
902.379	18616
902.498	18551
902.617	18330
902.735	18509
902.854	18517
902.973	18490
903.091	18220
903.21	18053
903.328	18243
903.446	18083
903.565	17927
903.683	18087
903.801	17847
903.919	17946
904.038	17939
904.156	17828
904.274	17870
904.392	17775
904.51	17684
904.627	17767
904.745	17798
904.863	17684
904.981	17516
905.098	17376
905.216	17417
905.334	17539
905.451	17433
905.569	17330
905.686	17463
905.803	17452
905.921	17223
906.038	17261
906.155	17261
906.272	17174
906.389	17094
906.506	16934
906.623	16972
906.74	16965
906.857	16805
906.974	16881
907.091	17064
907.208	16995
907.324	17003
907.441	16835
907.557	16691
907.674	16706
907.79	16550
907.907	16656
908.023	16790
908.139	16736
908.256	16637
908.372	16596
908.488	16596
908.604	16455
908.72	16474
908.836	16409
908.952	16508
909.068	16409
909.184	16493
909.3	16421
909.415	16394
909.531	16390
909.647	16067
909.762	16139
909.878	16105
909.993	16181
910.108	16055
910.224	16200
910.339	16021
910.454	15949
910.57	16025
910.685	15793
910.8	16135
910.915	16055
911.03	15945
911.145	15747
911.259	15759
911.374	15739
911.489	15667
911.604	15576
911.718	15469
911.833	15473
911.947	15374
912.062	15359
912.176	15511
912.291	15511
912.405	15504
912.519	15660
912.633	15644
912.748	15511
912.862	15408
912.976	15306
913.09	15283
913.204	15275
913.318	15222
913.431	15416
913.545	15405
913.659	15351
913.772	15302
913.886	15066
914	15138
914.113	15241
914.226	15214
914.34	15207
914.453	15001
914.566	15089
914.68	14998
914.793	14982
914.906	14823
915.019	14819
915.132	14636
915.245	14708
915.358	14845
915.47	14689
915.583	14750
915.696	14762
915.809	14823
915.921	14849
916.034	14720
916.146	14689
916.259	14617
916.371	14826
916.483	14682
916.595	14594
916.708	14613
916.82	14575
916.932	14469
917.044	14530
917.156	14499
917.268	14465
917.38	14396
917.491	14377
917.603	14396
917.715	14537
917.826	14484
917.938	14366
918.049	14237
918.161	14332
918.272	14476
918.384	14400
918.495	14347
918.606	14286
918.717	14073
918.828	14153
918.939	14187
919.05	14161
919.161	14115
919.272	13940
919.383	14100
919.494	14172
919.604	14389
919.715	14149
919.826	14138
919.936	14069
920.047	14161
920.157	14096
920.267	14328
920.378	14164
920.488	14157
920.598	14294
920.708	14454
920.818	14298
920.928	14199
921.038	14347
921.148	14408
921.258	14054
921.368	13970
921.477	13818
921.587	13909
921.697	13757
921.806	13826
921.916	13715
922.025	13529
922.134	13575
922.244	13495
922.353	13647
922.462	13316
922.571	13343
922.68	13141
922.789	13160
922.898	13076
923.007	13122
923.116	13308
923.224	13152
923.333	13194
923.442	12970
923.55	12962
923.659	13095
923.767	13061
923.876	12989
923.984	13046
924.092	12890
924.201	12913
924.309	12962
924.417	12859
924.525	12932
924.633	12859
924.741	13731
924.849	12631
924.956	12814
925.064	12677
925.172	12540
925.279	12616
925.387	12654
925.494	12563
925.602	12722
925.709	12646
925.816	12574
925.924	12563
926.031	12604
926.138	12578
926.245	12574
926.352	12414
926.459	12547
926.566	12677
926.673	12429
926.779	12330
926.886	12395
926.993	12220
927.099	12152
927.206	12159
927.312	12178
927.419	12243
927.525	12186
927.631	12235
927.737	12072
927.843	12045
927.95	11946
928.056	12026
928.162	12129
928.267	12091
928.373	12639
928.479	12102
928.585	11836
928.69	11908
928.796	12034
928.901	11912
929.007	11741
929.112	11923
929.218	11863
929.323	11756
929.428	11760
929.533	11824
929.638	11630
929.743	11623
929.848	11691
929.953	11726
930.058	11528
930.163	11433
930.267	11459
930.372	11501
930.477	11402
930.581	11589
930.685	11433
930.79	11383
930.894	11368
930.998	11383
931.103	11471
931.207	11102
931.311	11056
931.415	10877
931.519	10733
931.623	10805
