Data from test_V78500241_1209.txt Node
Date: Fri Mar 25 15:18:16 CST 2022
User: usil
Spectrometer: V785-0024
Trigger mode: 0
Integration Time (sec): 4.000000E-1
Scans to average: 1
Nonlinearity correction enabled: false
Boxcar width: 0
Storing dark spectrum: false
XAxis mode: Wavelengths
Number of Pixels in Spectrum: 1024
>>>>>Begin Spectral Data<<<<<
801.071	28268
801.214	28211
801.356	27827
801.499	27869
801.641	27785
801.783	27842
801.926	27739
802.068	27736
802.211	27717
802.353	27762
802.496	27538
802.638	27424
802.78	27306
802.923	27313
803.065	27389
803.208	27325
803.35	27454
803.492	27500
803.635	27591
803.777	27336
803.919	27709
804.061	27937
804.204	27717
804.346	27732
804.488	27492
804.63	27545
804.773	27515
804.915	27663
805.057	27660
805.199	27679
805.341	27797
805.483	27778
805.626	27759
805.768	27481
805.91	27732
806.052	27675
806.194	27606
806.336	27842
806.478	27884
806.62	27918
806.762	27842
806.904	27972
807.046	28230
807.188	28196
807.33	28124
807.472	28257
807.614	28219
807.756	28207
807.898	28086
808.04	28059
808.182	27983
808.324	28078
808.465	28082
808.607	28230
808.749	28443
808.891	28546
809.033	28656
809.174	28485
809.316	28474
809.458	28310
809.6	28519
809.741	28592
809.883	28428
810.025	28656
810.166	28717
810.308	28721
810.45	28634
810.591	28508
810.733	28474
810.875	28371
811.016	28306
811.158	28341
811.299	28390
811.441	28645
811.582	28489
811.724	28413
811.865	28504
812.007	28504
812.148	28538
812.29	28519
812.431	28736
812.573	28820
812.714	28934
812.855	28953
812.997	29075
813.138	29098
813.279	29140
813.421	28953
813.562	28965
813.703	28847
813.845	28679
813.986	28352
814.127	28356
814.268	28166
814.41	28303
814.551	28105
814.692	28238
814.833	28173
814.974	28135
815.115	28196
815.256	28048
815.397	28051
815.539	27857
815.68	27865
815.821	27884
815.962	27861
816.103	27930
816.244	27907
816.385	27785
816.526	27732
816.666	27523
816.807	27439
816.948	27504
817.089	27557
817.23	27507
817.371	27420
817.512	27401
817.653	27466
817.793	27294
817.934	27488
818.075	27450
818.216	27519
818.356	27420
818.497	27325
818.638	27112
818.778	27066
818.919	27351
819.06	27184
819.2	27279
819.341	27412
819.481	27507
819.622	27549
819.762	27743
819.903	27781
820.043	27762
820.184	27667
820.324	27469
820.465	27553
820.605	27561
820.746	27549
820.886	27450
821.026	27542
821.167	27564
821.307	27736
821.447	27450
821.588	27416
821.728	27173
821.868	27081
822.008	26819
822.149	26876
822.289	27051
822.429	26606
822.569	26571
822.709	26575
822.849	26446
822.99	26400
823.13	26336
823.27	26358
823.41	26309
823.55	26111
823.69	26252
823.83	26271
823.97	26320
824.11	26069
824.25	26001
824.389	26126
824.529	26100
824.669	26088
824.809	26252
824.949	26252
825.089	26172
825.228	26153
825.368	26024
825.508	25997
825.648	26039
825.787	26012
825.927	25909
826.067	25955
826.206	25868
826.346	26035
826.485	25909
826.625	25970
826.765	26111
826.904	26100
827.044	25822
827.183	25757
827.323	25693
827.462	25704
827.601	25841
827.741	25556
827.88	25662
828.02	25590
828.159	25734
828.298	25700
828.437	25719
828.577	25643
828.716	25791
828.855	25616
828.994	25476
829.134	25403
829.273	25400
829.412	25304
829.551	25331
829.69	25263
829.829	25400
829.968	25457
830.107	25464
830.246	25537
830.385	25365
830.524	25225
830.663	25133
830.802	25160
830.941	25012
831.08	24909
831.219	25019
831.357	25065
831.496	25190
831.635	24962
831.774	24871
831.913	24958
832.051	24859
832.19	24829
832.329	24958
832.467	24639
832.606	24703
832.744	24726
832.883	24833
833.022	24528
833.16	24802
833.299	24749
833.437	24760
833.576	24741
833.714	24829
833.852	24806
833.991	24916
834.129	24867
834.267	24814
834.406	24734
834.544	24859
834.682	24840
834.821	24814
834.959	24905
835.097	24620
835.235	24779
835.373	24703
835.511	24688
835.65	24711
835.788	24597
835.926	24582
836.064	24437
836.202	24399
836.34	24547
836.478	24669
836.615	24661
836.753	24677
836.891	24684
837.029	24650
837.167	24627
837.305	24376
837.443	24593
837.58	24403
837.718	24494
837.856	24350
837.993	24338
838.131	24494
838.269	24251
838.406	24330
838.544	24232
838.681	24041
838.819	24007
838.956	23920
839.094	23965
839.231	24018
839.369	24045
839.506	24247
839.643	24129
839.781	23874
839.918	23843
840.055	23935
840.193	23946
840.33	23805
840.467	23733
840.604	23882
840.742	24091
840.879	23634
841.016	23665
841.153	23676
841.29	23897
841.427	23752
841.564	23923
841.701	23802
841.838	23767
841.975	23668
842.112	23786
842.249	23653
842.385	23501
842.522	23836
842.659	23668
842.796	23566
842.933	23608
843.069	23471
843.206	23558
843.343	23623
843.479	23535
843.616	23581
843.752	23372
843.889	23387
844.025	23452
844.162	23296
844.298	23356
844.435	23379
844.571	23334
844.708	23360
844.844	23570
844.98	23490
845.117	23383
845.253	23265
845.389	23151
845.525	23246
845.661	23212
845.798	23197
845.934	23033
846.07	23094
846.206	23155
846.342	23162
846.478	23029
846.614	22889
846.75	22812
846.886	22805
847.022	22908
847.158	22820
847.294	22877
847.429	22873
847.565	22949
847.701	22995
847.837	22516
847.972	22656
848.108	22805
848.244	22588
848.379	22424
848.515	22504
848.65	22306
848.786	22322
848.921	22455
849.057	22565
849.192	22527
849.328	22440
849.463	22398
849.598	22459
849.734	22253
849.869	22295
850.004	21998
850.14	22238
850.275	22196
850.41	22090
850.545	22154
850.68	22029
850.815	22204
850.95	22131
851.085	22272
851.22	22211
851.355	22097
851.49	22147
851.625	22051
851.76	22112
851.895	22017
852.03	22029
852.165	22120
852.299	22162
852.434	22173
852.569	22181
852.703	22116
852.838	22139
852.973	22257
853.107	22325
853.242	22101
853.376	21975
853.511	21846
853.645	21949
853.78	22135
853.914	21953
854.048	21998
854.183	22021
854.317	22010
854.451	22131
854.585	21972
854.72	22002
854.854	22097
854.988	21972
855.122	22048
855.256	21816
855.39	21911
855.524	22086
855.658	22002
855.792	21953
855.926	21892
856.06	22013
856.194	21987
856.327	21861
856.461	21922
856.595	21854
856.729	21907
856.862	22086
856.996	21915
857.13	22112
857.263	22048
857.397	22067
857.53	22032
857.664	21968
857.797	22101
857.931	22067
858.064	22093
858.197	21934
858.331	22044
858.464	21930
858.597	21838
858.731	21972
858.864	21922
858.997	22002
859.13	21835
859.263	21994
859.396	22128
859.529	21979
859.662	21998
859.795	22029
859.928	21953
860.061	21983
860.194	22154
860.327	22010
860.46	22048
860.592	22116
860.725	22048
860.858	22097
860.99	22036
861.123	21873
861.256	21937
861.388	21865
861.521	22809
861.653	21816
861.786	21831
861.918	21789
862.05	21895
862.183	21953
862.315	21960
862.447	21972
862.58	21861
862.712	21679
862.844	21648
862.976	21720
863.108	21732
863.24	22166
863.372	21675
863.504	21686
863.636	21610
863.768	21690
863.9	21747
864.032	21637
864.164	21652
864.296	21564
864.428	21774
864.559	21644
864.691	21732
864.823	21644
864.954	21622
865.086	21663
865.217	21641
865.349	21625
865.48	21557
865.612	21599
865.743	21705
865.875	21530
866.006	21488
866.137	21504
866.269	21648
866.4	21477
866.531	21469
866.662	21443
866.793	21397
866.924	21408
867.055	21587
867.186	21591
867.317	21435
867.448	21393
867.579	21272
867.71	21378
867.841	21393
867.972	21462
868.103	21534
868.233	21583
868.364	21466
868.495	21603
868.625	21724
868.756	21770
868.886	21583
869.017	21660
869.147	21675
869.278	21831
869.408	21759
869.539	21690
869.669	21888
869.799	21743
869.929	21953
870.06	21842
870.19	22032
870.32	21979
870.45	22036
870.58	22158
870.71	22166
870.84	22299
870.97	22074
871.1	22139
871.23	22314
871.36	22375
871.489	22173
871.619	22242
871.749	22394
871.879	22402
872.008	22436
872.138	22284
872.267	22375
872.397	22207
872.526	22082
872.656	22120
872.785	22135
872.915	22417
873.044	22329
873.173	22432
873.303	22348
873.432	22405
873.561	22500
873.69	22409
873.819	22314
873.948	22379
874.077	22253
874.206	22249
874.335	22344
874.464	22554
874.593	22500
874.722	22603
874.851	22622
874.979	22481
875.108	22748
875.237	22470
875.365	22557
875.494	22516
875.623	22717
875.751	22554
875.88	22493
876.008	22744
876.136	22763
876.265	22999
876.393	22938
876.521	23060
876.65	22972
876.778	22908
876.906	22793
877.034	22885
877.162	22957
877.29	22725
877.418	22896
877.546	22949
877.674	22812
877.802	22896
877.93	22991
878.058	22938
878.185	22850
878.313	22744
878.441	22854
878.568	22881
878.696	22790
878.824	22839
878.951	22930
879.079	23094
879.206	23189
879.333	23185
879.461	22919
879.588	22995
879.715	22949
879.842	23033
879.97	22949
880.097	22713
880.224	22786
880.351	22839
880.478	22622
880.605	22729
880.732	22683
880.859	22892
880.986	22698
881.112	22763
881.239	22516
881.366	22436
881.493	22344
881.619	22386
881.746	22276
881.872	22333
881.999	22333
882.125	22325
882.252	22333
882.378	22284
882.505	22303
882.631	22207
882.757	22036
882.883	22188
883.01	22021
883.136	21941
883.262	21747
883.388	21720
883.514	21922
883.64	21979
883.766	21956
883.892	21789
884.018	21728
884.143	21827
884.269	22017
884.395	21686
884.52	21667
884.646	21713
884.772	21561
884.897	21622
885.023	21587
885.148	21694
885.274	21800
885.399	21747
885.524	21466
885.65	21523
885.775	21545
885.9	21618
886.025	21679
886.15	21614
886.275	21530
886.4	21488
886.525	21622
886.65	21496
886.775	21439
886.9	21739
887.025	21823
887.149	21564
887.274	21572
887.399	21378
887.523	21511
887.648	21195
887.773	21306
887.897	21447
888.021	21450
888.146	21291
888.27	21496
888.395	21572
888.519	21393
888.643	21382
888.767	21408
888.891	21298
889.015	21203
889.139	21237
889.263	21241
889.387	21237
889.511	21355
889.635	21340
889.759	21108
889.883	21207
890.006	21104
890.13	21302
890.254	20982
890.377	21081
890.501	20990
890.624	20902
890.748	20918
890.871	20861
890.995	20735
891.118	20689
891.241	20815
891.364	20811
891.488	20849
891.611	20739
891.734	20811
891.857	20788
891.98	20815
892.103	20788
892.226	20670
892.349	20674
892.471	20427
892.594	20640
892.717	20670
892.839	20667
892.962	20533
893.085	20663
893.207	20598
893.33	20480
893.452	20526
893.575	20594
893.697	20522
893.819	20762
893.941	20777
894.064	20739
894.186	20568
894.308	20492
894.43	20731
894.552	20762
894.674	20655
894.796	20522
894.918	20651
895.04	20415
895.161	20674
895.283	20609
895.405	20598
895.526	20541
895.648	20484
895.769	20705
895.891	20708
896.012	20743
896.134	20667
896.255	20731
896.376	20473
896.498	20571
896.619	20629
896.74	20606
896.861	20644
896.982	20872
897.103	21074
897.224	20895
897.345	20758
897.466	20819
897.587	20785
897.708	20845
897.828	20796
897.949	20800
898.07	20655
898.19	20807
898.311	20842
898.431	20686
898.552	20880
898.672	20807
898.792	20842
898.913	20785
899.033	20655
899.153	20689
899.273	20488
899.393	20552
899.513	20419
899.633	20461
899.753	20396
899.873	20404
899.993	20495
900.113	20583
900.232	20450
900.352	20336
900.472	20351
900.591	20328
900.711	20412
900.83	20271
900.95	20419
901.069	20320
901.189	20107
901.308	20046
901.427	19875
901.546	19898
901.665	19765
901.784	19890
901.904	19609
902.023	19647
902.141	19407
902.26	19365
902.379	19495
902.498	19381
902.617	19365
902.735	19430
902.854	19346
902.973	19327
903.091	19118
903.21	19061
903.328	19050
903.446	18977
903.565	18939
903.683	18825
903.801	18757
903.919	18897
904.038	18779
904.156	18654
904.274	18795
904.392	18578
904.51	18639
904.627	18677
904.745	18681
904.863	18726
904.981	18486
905.098	18258
905.216	18296
905.334	18384
905.451	18334
905.569	18334
905.686	18399
905.803	18308
905.921	18121
906.038	18216
906.155	18197
906.272	17901
906.389	17916
906.506	17809
906.623	17870
906.74	17764
906.857	17680
906.974	17714
907.091	17836
907.208	17927
907.324	17920
907.441	17680
907.557	17551
907.674	17619
907.79	17501
907.907	17505
908.023	17543
908.139	17551
908.256	17554
908.372	17398
908.488	17455
908.604	17345
908.72	17216
908.836	17269
908.952	17269
909.068	17379
909.184	17402
909.3	17189
909.415	17265
909.531	17273
909.647	16961
909.762	17022
909.878	16946
909.993	17022
910.108	16900
910.224	16831
910.339	16866
910.454	16923
910.57	16717
910.685	16596
910.8	17041
910.915	16831
911.03	16713
911.145	16637
911.259	16565
911.374	16504
911.489	16493
911.604	16424
911.718	16253
911.833	16386
911.947	16181
912.062	16101
912.176	16318
912.291	16344
912.405	16318
912.519	16447
912.633	16481
912.748	16284
912.862	16280
912.976	16143
913.09	16040
913.204	16051
913.318	16124
913.431	16185
913.545	16204
913.659	16139
913.772	16017
913.886	15922
914	15930
914.113	15907
914.226	15987
914.34	16063
914.453	15808
914.566	15918
914.68	15785
914.793	15736
914.906	15580
915.019	15561
915.132	15431
915.245	15500
915.358	15466
915.47	15408
915.583	15466
915.696	15519
915.809	15561
915.921	15507
916.034	15447
916.146	15374
916.259	15386
916.371	15431
916.483	15458
916.595	15313
916.708	15374
916.82	15370
916.932	15408
917.044	15222
917.156	15233
917.268	15097
917.38	15230
917.491	15055
917.603	15123
917.715	15165
917.826	15112
917.938	15112
918.049	15013
918.161	15047
918.272	15272
918.384	15154
918.495	15062
918.606	14921
918.717	14864
918.828	14845
918.939	14899
919.05	14845
919.161	14834
919.272	14663
919.383	14754
919.494	14960
919.604	15097
919.715	14819
919.826	14796
919.936	14773
920.047	14944
920.157	14967
920.267	14982
920.378	14861
920.488	14811
920.598	15036
920.708	15192
920.818	14994
920.928	14937
921.038	15123
921.148	15047
921.258	14807
921.368	14674
921.477	14541
921.587	14511
921.697	14374
921.806	14640
921.916	14450
922.025	14377
922.134	14244
922.244	14195
922.353	14275
922.462	14062
922.571	14001
922.68	13871
922.789	13799
922.898	13845
923.007	13833
923.116	13894
923.224	13784
923.333	13841
923.442	13662
923.55	13552
923.659	13643
923.767	13662
923.876	13563
923.984	13681
924.092	13567
924.201	13655
924.309	13636
924.417	13578
924.525	13533
924.633	13540
924.741	14210
924.849	13350
924.956	13396
925.064	13293
925.172	13225
925.279	13141
925.387	13263
925.494	13225
925.602	13278
925.709	13240
925.816	13179
925.924	13198
926.031	13202
926.138	13145
926.245	13103
926.352	13114
926.459	13209
926.566	13266
926.673	13114
926.779	12954
926.886	13069
926.993	12856
927.099	12844
927.206	12730
927.312	12707
927.419	12726
927.525	12810
927.631	12867
927.737	12741
927.843	12768
927.95	12525
928.056	12627
928.162	12589
928.267	12578
928.373	13091
928.479	12639
928.585	12426
928.69	12544
928.796	12593
928.901	12399
929.007	12342
929.112	12414
929.218	12422
929.323	12391
929.428	12353
929.533	12498
929.638	12270
929.743	12254
929.848	12273
929.953	12197
930.058	12178
930.163	11969
930.267	12011
930.372	12197
930.477	11996
930.581	12216
930.685	12007
930.79	11843
930.894	11885
930.998	11878
931.103	12057
931.207	11672
931.311	11627
931.415	11459
931.519	11288
931.623	11261
