Data from test_V78500241_999.txt Node
Date: Fri Mar 25 15:16:48 CST 2022
User: usil
Spectrometer: V785-0024
Trigger mode: 0
Integration Time (sec): 4.000000E-1
Scans to average: 1
Nonlinearity correction enabled: false
Boxcar width: 0
Storing dark spectrum: false
XAxis mode: Wavelengths
Number of Pixels in Spectrum: 1024
>>>>>Begin Spectral Data<<<<<
801.071	28523
801.214	28398
801.356	28204
801.499	28185
801.641	27857
801.783	28029
801.926	27991
802.068	27998
802.211	27926
802.353	27884
802.496	27622
802.638	27515
802.78	27675
802.923	27675
803.065	27652
803.208	27675
803.35	27644
803.492	27899
803.635	27770
803.777	27778
803.919	27770
804.061	28215
804.204	27911
804.346	27720
804.488	27903
804.63	27838
804.773	27747
804.915	27991
805.057	28021
805.199	28078
805.341	27903
805.483	28040
805.626	28048
805.768	27880
805.91	27926
806.052	28048
806.194	27934
806.336	28131
806.478	27983
806.62	28124
806.762	28204
806.904	28276
807.046	28637
807.188	28523
807.33	28390
807.472	28428
807.614	28367
807.756	28356
807.898	28268
808.04	28265
808.182	28287
808.324	28367
808.465	28303
808.607	28611
808.749	28733
808.891	28626
809.033	28915
809.174	28713
809.316	28687
809.458	28698
809.6	28630
809.741	28744
809.883	28721
810.025	28976
810.166	28927
810.308	28923
810.45	28915
810.591	28839
810.733	28713
810.875	28771
811.016	28630
811.158	28672
811.299	28691
811.441	28831
811.582	28896
811.724	28687
811.865	28679
812.007	28668
812.148	28675
812.29	28744
812.431	28831
812.573	29086
812.714	29140
812.855	29326
812.997	29261
813.138	29368
813.279	29391
813.421	29330
813.562	29204
813.703	29060
813.845	29010
813.986	28554
814.127	28485
814.268	28462
814.41	28447
814.551	28432
814.692	28379
814.833	28432
814.974	28367
815.115	28398
815.256	28333
815.397	28333
815.539	28284
815.68	28352
815.821	28143
815.962	28230
816.103	28169
816.244	28105
816.385	28219
816.526	28101
816.666	27926
816.807	27759
816.948	27812
817.089	27800
817.23	27831
817.371	27641
817.512	27717
817.653	27717
817.793	27766
817.934	27713
818.075	27709
818.216	27747
818.356	27759
818.497	27549
818.638	27507
818.778	27485
818.919	27614
819.06	27625
819.2	27660
819.341	27762
819.481	27785
819.622	27914
819.762	28162
819.903	28002
820.043	27800
820.184	27907
820.324	27774
820.465	27876
820.605	27922
820.746	27914
820.886	27587
821.026	27899
821.167	27797
821.307	27907
821.447	27793
821.588	27717
821.728	27462
821.868	27393
822.008	27291
822.149	27169
822.289	27230
822.429	26872
822.569	26883
822.709	26872
822.849	26754
822.99	26697
823.13	26788
823.27	26632
823.41	26564
823.55	26446
823.69	26712
823.83	26549
823.97	26530
824.11	26221
824.25	26381
824.389	26339
824.529	26438
824.669	26423
824.809	26476
824.949	26503
825.089	26511
825.228	26457
825.368	26176
825.508	26328
825.648	26267
825.787	26328
825.927	26355
826.067	26176
826.206	26214
826.346	26408
826.485	26339
826.625	26225
826.765	26415
826.904	26366
827.044	26024
827.183	26043
827.323	25845
827.462	26024
827.601	26065
827.741	25887
827.88	26062
828.02	25898
828.159	25963
828.298	25986
828.437	26073
828.577	26031
828.716	26100
828.855	25894
828.994	25670
829.134	25753
829.273	25845
829.412	25677
829.551	25719
829.69	25715
829.829	25723
829.968	25841
830.107	25765
830.246	25628
830.385	25605
830.524	25590
830.663	25533
830.802	25518
830.941	25479
831.08	25270
831.219	25479
831.357	25567
831.496	25510
831.635	25331
831.774	25320
831.913	25225
832.051	25164
832.19	24989
832.329	25126
832.467	25019
832.606	25088
832.744	24863
832.883	25034
833.022	24951
833.16	25031
833.299	25000
833.437	25088
833.576	24989
833.714	25129
833.852	25114
833.991	25122
834.129	25156
834.267	25221
834.406	25069
834.544	25118
834.682	25099
834.821	25042
834.959	25282
835.097	24966
835.235	25107
835.373	24932
835.511	24909
835.65	24985
835.788	25004
835.926	24760
836.064	24673
836.202	24791
836.34	24928
836.478	24806
836.615	24852
836.753	24909
836.891	25118
837.029	24924
837.167	24837
837.305	24791
837.443	24730
837.58	24856
837.718	24768
837.856	24829
837.993	24631
838.131	24722
838.269	24559
838.406	24589
838.544	24612
838.681	24395
838.819	24311
838.956	24273
839.094	24209
839.231	24327
839.369	24361
839.506	24551
839.643	24513
839.781	24072
839.918	24106
840.055	24178
840.193	24197
840.33	24049
840.467	24018
840.604	24171
840.742	24270
840.879	24011
841.016	24022
841.153	24015
841.29	24213
841.427	24053
841.564	24148
841.701	24030
841.838	24003
841.975	23996
842.112	23908
842.249	23897
842.385	23920
842.522	24079
842.659	23927
842.796	23775
842.933	23931
843.069	23805
843.206	23904
843.343	23863
843.479	23821
843.616	23866
843.752	23672
843.889	23737
844.025	23756
844.162	23653
844.298	23794
844.435	23589
844.571	23554
844.708	23687
844.844	23699
844.98	23649
845.117	23668
845.253	23558
845.389	23398
845.525	23509
845.661	23497
845.798	23216
845.934	23395
846.07	23273
846.206	23467
846.342	23501
846.478	23303
846.614	23067
846.75	22965
846.886	23010
847.022	23166
847.158	23124
847.294	23147
847.429	23170
847.565	23003
847.701	23337
847.837	22778
847.972	22896
848.108	22984
848.244	22889
848.379	22702
848.515	22717
848.65	22679
848.786	22592
848.921	22698
849.057	22713
849.192	22733
849.328	22740
849.463	22580
849.598	22546
849.734	22493
849.869	22489
850.004	22382
850.14	22649
850.275	22538
850.41	22238
850.545	22390
850.68	22360
850.815	22554
850.95	22466
851.085	22599
851.22	22519
851.355	22500
851.49	22303
851.625	22428
851.76	22356
851.895	22356
852.03	22497
852.165	22421
852.299	22451
852.434	22573
852.569	22428
852.703	22443
852.838	22565
852.973	22557
853.107	22531
853.242	22318
853.376	22143
853.511	22162
853.645	22013
853.78	22295
853.914	22295
854.048	22284
854.183	22162
854.317	22318
854.451	22497
854.585	22207
854.72	22242
854.854	22318
854.988	22280
855.122	22234
855.256	22177
855.39	22200
855.524	22318
855.658	22226
855.792	22398
855.926	22329
856.06	22257
856.194	22398
856.327	22192
856.461	22135
856.595	22238
856.729	22223
856.862	22360
856.996	22249
857.13	22295
857.263	22379
857.397	22382
857.53	22284
857.664	22280
857.797	22101
857.931	22417
858.064	22276
858.197	22333
858.331	22367
858.464	22215
858.597	22166
858.731	22234
858.864	22272
858.997	22261
859.13	22265
859.263	22242
859.396	22329
859.529	22295
859.662	22181
859.795	22223
859.928	22238
860.061	22409
860.194	22413
860.327	22421
860.46	22268
860.592	22261
860.725	22409
860.858	22337
860.99	22268
861.123	22188
861.256	22188
861.388	22310
861.521	22862
861.653	22188
861.786	21998
861.918	21998
862.05	22116
862.183	22059
862.315	22204
862.447	22322
862.58	22200
862.712	21987
862.844	21918
862.976	22017
863.108	22147
863.24	22287
863.372	21800
863.504	21945
863.636	21972
863.768	21956
863.9	22021
864.032	21880
864.164	22002
864.296	21991
864.428	22074
864.559	22093
864.691	21857
864.823	22006
864.954	21884
865.086	21869
865.217	21899
865.349	21759
865.48	21797
865.612	21846
865.743	22025
865.875	21892
866.006	21831
866.137	21781
866.269	21876
866.4	21808
866.531	21827
866.662	21762
866.793	21793
866.924	21747
867.055	21827
867.186	21831
867.317	21656
867.448	21720
867.579	21850
867.71	21618
867.841	21698
867.972	21876
868.103	21739
868.233	21800
868.364	21762
868.495	21816
868.625	21945
868.756	22147
868.886	21800
869.017	21949
869.147	22158
869.278	22101
869.408	22051
869.539	22097
869.669	22105
869.799	22105
869.929	22124
870.06	22070
870.19	22291
870.32	22363
870.45	22428
870.58	22371
870.71	22436
870.84	22531
870.97	22352
871.1	22440
871.23	22508
871.36	22599
871.489	22489
871.619	22554
871.749	22577
871.879	22675
872.008	22702
872.138	22584
872.267	22618
872.397	22550
872.526	22542
872.656	22398
872.785	22356
872.915	22679
873.044	22752
873.173	22508
873.303	22641
873.432	22630
873.561	22774
873.69	22516
873.819	22702
873.948	22596
874.077	22538
874.206	22607
874.335	22774
874.464	22797
874.593	22847
874.722	22812
874.851	22835
874.979	22900
875.108	22828
875.237	22816
875.365	22615
875.494	22816
875.623	22809
875.751	22892
875.88	22927
876.008	22934
876.136	23003
876.265	23208
876.393	23284
876.521	23193
876.65	23315
876.778	23121
876.906	23223
877.034	23174
877.162	23102
877.29	23159
877.418	23056
877.546	23166
877.674	23258
877.802	23075
877.93	23121
878.058	23159
878.185	23189
878.313	23075
878.441	23109
878.568	23052
878.696	23052
878.824	23094
878.951	23372
879.079	23387
879.206	23360
879.333	23402
879.461	23242
879.588	23368
879.715	23261
879.842	23512
879.97	23174
880.097	22995
880.224	22987
880.351	23048
880.478	23006
880.605	22820
880.732	22995
880.859	23208
880.986	22896
881.112	23006
881.239	22854
881.366	22683
881.493	22649
881.619	22546
881.746	22603
881.872	22603
881.999	22535
882.125	22512
882.252	22470
882.378	22512
882.505	22626
882.631	22314
882.757	22112
882.883	22367
883.01	22287
883.136	22249
883.262	22211
883.388	21960
883.514	22242
883.64	22253
883.766	22150
883.892	21922
884.018	22036
884.143	22070
884.269	22265
884.395	21850
884.52	21713
884.646	21842
884.772	21953
884.897	21762
885.023	21876
885.148	21846
885.274	21983
885.399	21956
885.524	21854
885.65	21907
885.775	21922
885.9	21774
886.025	21949
886.15	21937
886.275	21686
886.4	21682
886.525	21895
886.65	21663
886.775	21861
886.9	21922
887.025	22120
887.149	21789
887.274	21705
887.399	21682
887.523	21599
887.648	21606
887.773	21466
887.897	21770
888.021	21667
888.146	21473
888.27	21652
888.395	21663
888.519	21743
888.643	21709
888.767	21652
888.891	21496
889.015	21439
889.139	21549
889.263	21431
889.387	21488
889.511	21603
889.635	21454
889.759	21454
889.883	21431
890.006	21450
890.13	21443
890.254	21260
890.377	21245
890.501	21119
890.624	21123
890.748	21310
890.871	21051
890.995	21001
891.118	20883
891.241	20994
891.364	20990
891.488	21089
891.611	21036
891.734	20937
891.857	21020
891.98	21077
892.103	21013
892.226	21009
892.349	20815
892.471	20659
892.594	20853
892.717	21020
892.839	20857
892.962	20895
893.085	20929
893.207	20914
893.33	20708
893.452	20853
893.575	20937
893.697	20830
893.819	20986
893.941	21032
894.064	21039
894.186	20849
894.308	20746
894.43	20876
894.552	20929
894.674	20887
894.796	20720
894.918	20819
895.04	20720
895.161	20941
895.283	20933
895.405	20788
895.526	20819
895.648	20880
895.769	20769
895.891	20777
896.012	20811
896.134	20971
896.255	20750
896.376	20659
896.498	20796
896.619	20952
896.74	20788
896.861	20941
896.982	21287
897.103	21241
897.224	21089
897.345	20986
897.466	21017
897.587	21055
897.708	21108
897.828	21062
897.949	21066
898.07	20872
898.19	20982
898.311	21135
898.431	21009
898.552	20876
898.672	21108
898.792	21089
898.913	20967
899.033	20887
899.153	20952
899.273	20655
899.393	20826
899.513	20769
899.633	20773
899.753	20834
899.873	20796
899.993	20807
900.113	20693
900.232	20701
900.352	20739
900.472	20621
900.591	20442
900.711	20522
900.83	20495
900.95	20583
901.069	20602
901.189	20434
901.308	20195
901.427	20263
901.546	20119
901.665	20065
901.784	20183
901.904	19989
902.023	19982
902.141	19594
902.26	19655
902.379	19712
902.498	19571
902.617	19601
902.735	19685
902.854	19586
902.973	19632
903.091	19293
903.21	19274
903.328	19278
903.446	19194
903.565	19187
903.683	19023
903.801	18985
903.919	19061
904.038	19046
904.156	18882
904.274	18840
904.392	18840
904.51	18886
904.627	18886
904.745	18913
904.863	18924
904.981	18665
905.098	18475
905.216	18460
905.334	18544
905.451	18426
905.569	18498
905.686	18471
905.803	18544
905.921	18243
906.038	18467
906.155	18346
906.272	18201
906.389	18338
906.506	18022
906.623	18133
906.74	18091
906.857	17984
906.974	18011
907.091	18106
907.208	18194
907.324	18022
907.441	17916
907.557	17703
907.674	17718
907.79	17653
907.907	17665
908.023	17783
908.139	17779
908.256	17615
908.372	17668
908.488	17672
908.604	17573
908.72	17516
908.836	17455
908.952	17516
909.068	17497
909.184	17535
909.3	17592
909.415	17425
909.531	17535
909.647	17170
909.762	17280
909.878	17159
909.993	17094
910.108	17094
910.224	17010
910.339	17159
910.454	17014
910.57	17037
910.685	16923
910.8	17220
910.915	17075
911.03	16984
911.145	16767
911.259	16698
911.374	16828
911.489	16660
911.604	16626
911.718	16485
911.833	16493
911.947	16360
912.062	16257
912.176	16424
912.291	16512
912.405	16451
912.519	16729
912.633	16626
912.748	16523
912.862	16504
912.976	16333
913.09	16173
913.204	16147
913.318	16306
913.431	16455
913.545	16394
913.659	16390
913.772	16207
913.886	16131
914	16109
914.113	16147
914.226	16150
914.34	16109
914.453	15903
914.566	16158
914.68	16010
914.793	16010
914.906	15762
915.019	15793
915.132	15618
915.245	15671
915.358	15728
915.47	15705
915.583	15682
915.696	15827
915.809	15728
915.921	15835
916.034	15686
916.146	15622
916.259	15622
916.371	15610
916.483	15637
916.595	15538
916.708	15526
916.82	15507
916.932	15469
917.044	15477
917.156	15393
917.268	15298
917.38	15283
917.491	15272
917.603	15408
917.715	15408
917.826	15321
917.938	15195
918.049	15077
918.161	15279
918.272	15336
918.384	15329
918.495	15192
918.606	15104
918.717	15047
918.828	15058
918.939	15077
919.05	14990
919.161	15043
919.272	14746
919.383	15009
919.494	15058
919.604	15214
919.715	14956
919.826	15047
919.936	14925
920.047	15116
920.157	15009
920.267	15119
920.378	15097
920.488	14941
920.598	15165
920.708	15351
920.818	15161
920.928	15154
921.038	15241
921.148	15173
921.258	15001
921.368	14941
921.477	14769
921.587	14708
921.697	14598
921.806	14705
921.916	14629
922.025	14385
922.134	14320
922.244	14351
922.353	14317
922.462	14263
922.571	14168
922.68	14039
922.789	14020
922.898	13978
923.007	13890
923.116	13967
923.224	14039
923.333	13986
923.442	13936
923.55	13780
923.659	13795
923.767	13947
923.876	13780
923.984	13871
924.092	13700
924.201	13849
924.309	13738
924.417	13636
924.525	13742
924.633	13746
924.741	14526
924.849	13438
924.956	13628
925.064	13434
925.172	13301
925.279	13362
925.387	13388
925.494	13411
925.602	13464
925.709	13422
925.816	13316
925.924	13285
926.031	13369
926.138	13369
926.245	13365
926.352	13228
926.459	13457
926.566	13434
926.673	13232
926.779	13213
926.886	13099
926.993	12985
927.099	13004
927.206	12962
927.312	12875
927.419	12981
927.525	12844
927.631	12985
927.737	12760
927.843	12783
927.95	12776
928.056	12757
928.162	12741
928.267	12863
928.373	13403
928.479	12833
928.585	12646
928.69	12700
928.796	12863
928.901	12585
929.007	12536
929.112	12528
929.218	12563
929.323	12464
929.428	12433
929.533	12627
929.638	12456
929.743	12399
929.848	12395
929.953	12426
930.058	12327
930.163	12175
930.267	12171
930.372	12224
930.477	12163
930.581	12327
930.685	12232
930.79	12083
930.894	12053
930.998	12053
931.103	12239
931.207	11912
931.311	11722
931.415	11558
931.519	11512
931.623	11524
