Data from test_V78500241_2216.txt Node
Date: Fri Mar 25 15:25:17 CST 2022
User: usil
Spectrometer: V785-0024
Trigger mode: 0
Integration Time (sec): 4.000000E-1
Scans to average: 1
Nonlinearity correction enabled: false
Boxcar width: 0
Storing dark spectrum: false
XAxis mode: Wavelengths
Number of Pixels in Spectrum: 1024
>>>>>Begin Spectral Data<<<<<
801.071	27816
801.214	27918
801.356	27603
801.499	27507
801.641	27340
801.783	27401
801.926	27332
802.068	27367
802.211	27207
802.353	27188
802.496	26963
802.638	26956
802.78	26864
802.923	27005
803.065	26929
803.208	26952
803.35	27077
803.492	27154
803.635	27302
803.777	27051
803.919	27222
804.061	27389
804.204	27214
804.346	27192
804.488	27157
804.63	27146
804.773	27116
804.915	27256
805.057	27272
805.199	27199
805.341	27336
805.483	27363
805.626	27412
805.768	27214
805.91	27386
806.052	27382
806.194	27283
806.336	27469
806.478	27408
806.62	27306
806.762	27542
806.904	27526
807.046	27789
807.188	27660
807.33	27679
807.472	27865
807.614	27770
807.756	27701
807.898	27728
808.04	27568
808.182	27637
808.324	27675
808.465	27705
808.607	27686
808.749	27922
808.891	28112
809.033	28204
809.174	28017
809.316	27903
809.458	27934
809.6	27892
809.741	28048
809.883	28169
810.025	28268
810.166	28360
810.308	28287
810.45	28226
810.591	28207
810.733	28017
810.875	28090
811.016	27888
811.158	27953
811.299	27998
811.441	28131
811.582	28070
811.724	28002
811.865	28063
812.007	27979
812.148	27949
812.29	27941
812.431	28097
812.573	28382
812.714	28360
812.855	28588
812.997	28557
813.138	28733
813.279	28721
813.421	28546
813.562	28478
813.703	28291
813.845	28219
813.986	27884
814.127	27873
814.268	27755
814.41	27656
814.551	27595
814.692	27785
814.833	27603
814.974	27694
815.115	27785
815.256	27469
815.397	27603
815.539	27542
815.68	27450
815.821	27370
815.962	27469
816.103	27321
816.244	27351
816.385	27180
816.526	27131
816.666	27017
816.807	26990
816.948	27135
817.089	26994
817.23	26914
817.371	26902
817.512	26963
817.653	26910
817.793	26929
817.934	26887
818.075	26963
818.216	26921
818.356	26902
818.497	26834
818.638	26667
818.778	26667
818.919	26800
819.06	26659
819.2	26883
819.341	26815
819.481	26948
819.622	27024
819.762	27249
819.903	27142
820.043	27146
820.184	27096
820.324	26998
820.465	27135
820.605	27081
820.746	26891
820.886	26914
821.026	27020
821.167	27043
821.307	27116
821.447	26940
821.588	26769
821.728	26773
821.868	26385
822.008	26438
822.149	26328
822.289	26347
822.429	26077
822.569	26168
822.709	26035
822.849	25921
822.99	25803
823.13	25966
823.27	25856
823.41	25784
823.55	25628
823.69	25864
823.83	25837
823.97	25632
824.11	25567
824.25	25487
824.389	25575
824.529	25586
824.669	25529
824.809	25643
824.949	25605
825.089	25727
825.228	25651
825.368	25377
825.508	25396
825.648	25487
825.787	25457
825.927	25350
826.067	25460
826.206	25381
826.346	25468
826.485	25472
826.625	25464
826.765	25476
826.904	25464
827.044	25225
827.183	25209
827.323	25095
827.462	25217
827.601	24951
827.741	25080
827.88	25160
828.02	24996
828.159	25008
828.298	25164
828.437	25050
828.577	24977
828.716	25103
828.855	25046
828.994	24958
829.134	24726
829.273	24764
829.412	24772
829.551	24890
829.69	24738
829.829	24821
829.968	24867
830.107	24734
830.246	24772
830.385	24715
830.524	24673
830.663	24734
830.802	24559
830.941	24441
831.08	24350
831.219	24505
831.357	24502
831.496	24726
831.635	24330
831.774	24384
831.913	24270
832.051	24190
832.19	24273
832.329	24292
832.467	24315
832.606	24114
832.744	23977
832.883	24018
833.022	24068
833.16	24159
833.299	24057
833.437	24079
833.576	24258
833.714	24350
833.852	24342
833.991	24079
834.129	24270
834.267	24152
834.406	24277
834.544	24254
834.682	24159
834.821	24171
834.959	24452
835.097	24057
835.235	24197
835.373	24209
835.511	24121
835.65	23916
835.788	24159
835.926	23882
836.064	23646
836.202	23866
836.34	24026
836.478	24045
836.615	23980
836.753	24030
836.891	24064
837.029	24125
837.167	23969
837.305	23859
837.443	23878
837.58	23878
837.718	23927
837.856	23855
837.993	23805
838.131	23824
838.269	23745
838.406	23764
838.544	23718
838.681	23467
838.819	23429
838.956	23421
839.094	23440
839.231	23315
839.369	23467
839.506	23722
839.643	23531
839.781	23330
839.918	23239
840.055	23280
840.193	23299
840.33	23193
840.467	23239
840.604	23189
840.742	23493
840.879	23166
841.016	23193
841.153	23029
841.29	23181
841.427	23109
841.564	23170
841.701	23326
841.838	23117
841.975	23006
842.112	23033
842.249	22961
842.385	23022
842.522	23159
842.659	22953
842.796	22812
842.933	22831
843.069	22843
843.206	22938
843.343	23006
843.479	23006
843.616	23067
843.752	22675
843.889	22839
844.025	22809
844.162	22729
844.298	23010
844.435	22759
844.571	22698
844.708	22835
844.844	22835
844.98	22919
845.117	22847
845.253	22694
845.389	22615
845.525	22675
845.661	22596
845.798	22531
845.934	22618
846.07	22382
846.206	22516
846.342	22618
846.478	22531
846.614	22344
846.75	22086
846.886	22124
847.022	22322
847.158	22303
847.294	22219
847.429	22284
847.565	22188
847.701	22440
847.837	21873
847.972	21907
848.108	22074
848.244	21953
848.379	21816
848.515	21812
848.65	21842
848.786	21732
848.921	21739
849.057	21960
849.192	21876
849.328	21892
849.463	21808
849.598	21785
849.734	21610
849.869	21648
850.004	21542
850.14	21690
850.275	21572
850.41	21469
850.545	21568
850.68	21420
850.815	21580
850.95	21496
851.085	21686
851.22	21690
851.355	21652
851.49	21614
851.625	21439
851.76	21561
851.895	21485
852.03	21488
852.165	21534
852.299	21462
852.434	21682
852.569	21549
852.703	21542
852.838	21580
852.973	21724
853.107	21648
853.242	21511
853.376	21454
853.511	21260
853.645	21294
853.78	21488
853.914	21424
854.048	21412
854.183	21355
854.317	21344
854.451	21504
854.585	21428
854.72	21367
854.854	21386
854.988	21298
855.122	21393
855.256	21283
855.39	21279
855.524	21469
855.658	21538
855.792	21340
855.926	21401
856.06	21363
856.194	21450
856.327	21317
856.461	21329
856.595	21313
856.729	21435
856.862	21553
856.996	21401
857.13	21386
857.263	21530
857.397	21443
857.53	21310
857.664	21367
857.797	21534
857.931	21466
858.064	21370
858.197	21412
858.331	21397
858.464	21332
858.597	21272
858.731	21382
858.864	21241
858.997	21378
859.13	21397
859.263	21321
859.396	21458
859.529	21294
859.662	21329
859.795	21397
859.928	21420
860.061	21454
860.194	21477
860.327	21557
860.46	21401
860.592	21530
860.725	21542
860.858	21507
860.99	21374
861.123	21393
861.256	21302
861.388	21374
861.521	22021
861.653	21222
861.786	21138
861.918	21142
862.05	21116
862.183	21310
862.315	21279
862.447	21416
862.58	21245
862.712	20986
862.844	21047
862.976	21161
863.108	21176
863.24	21488
863.372	21081
863.504	21112
863.636	21074
863.768	21135
863.9	21062
864.032	20979
864.164	21051
864.296	21070
864.428	21138
864.559	21154
864.691	21180
864.823	21192
864.954	21055
865.086	21055
865.217	21017
865.349	20921
865.48	21066
865.612	20998
865.743	21074
865.875	20998
866.006	20834
866.137	20975
866.269	21039
866.4	20960
866.531	20864
866.662	20914
866.793	20941
866.924	20963
867.055	20895
867.186	20929
867.317	20830
867.448	20727
867.579	20762
867.71	20826
867.841	20716
867.972	20880
868.103	20929
868.233	20899
868.364	20941
868.495	21024
868.625	21256
868.756	21272
868.886	21173
869.017	21085
869.147	21260
869.278	21268
869.408	21116
869.539	21195
869.669	21230
869.799	21226
869.929	21154
870.06	21306
870.19	21549
870.32	21397
870.45	21595
870.58	21523
870.71	21606
870.84	21629
870.97	21568
871.1	21610
871.23	21648
871.36	21797
871.489	21682
871.619	21679
871.749	21789
871.879	21717
872.008	21850
872.138	21698
872.267	21739
872.397	21663
872.526	21625
872.656	21641
872.785	21542
872.915	21770
873.044	21831
873.173	21774
873.303	21755
873.432	21755
873.561	21835
873.69	21755
873.819	21781
873.948	21869
874.077	21755
874.206	21762
874.335	21724
874.464	21922
874.593	21895
874.722	21899
874.851	21998
874.979	22002
875.108	21915
875.237	22040
875.365	21892
875.494	21960
875.623	22063
875.751	21926
875.88	21956
876.008	22017
876.136	22185
876.265	22337
876.393	22478
876.521	22432
876.65	22500
876.778	22413
876.906	22329
877.034	22265
877.162	22253
877.29	22287
877.418	22405
877.546	22306
877.674	22306
877.802	22295
877.93	22246
878.058	22295
878.185	22390
878.313	22325
878.441	22436
878.568	22200
878.696	22310
878.824	22322
878.951	22382
879.079	22424
879.206	22607
879.333	22451
879.461	22386
879.588	22287
879.715	22531
879.842	22512
879.97	22363
880.097	22150
880.224	22204
880.351	22131
880.478	22253
880.605	22162
880.732	22139
880.859	22504
880.986	22188
881.112	22147
881.239	22059
881.366	21869
881.493	21827
881.619	21770
881.746	21622
881.872	21736
881.999	21736
882.125	21576
882.252	21644
882.378	21766
882.505	21724
882.631	21583
882.757	21447
882.883	21496
883.01	21462
883.136	21412
883.262	21241
883.388	21260
883.514	21450
883.64	21408
883.766	21355
883.892	21188
884.018	21207
884.143	21340
884.269	21439
884.395	21154
884.52	21058
884.646	21093
884.772	20967
884.897	21005
885.023	21005
885.148	21211
885.274	21173
885.399	21169
885.524	20944
885.65	21173
885.775	21100
885.9	21043
886.025	21272
886.15	21112
886.275	21142
886.4	21043
886.525	20971
886.65	21001
886.775	20994
886.9	21127
887.025	21332
887.149	21085
887.274	20918
887.399	20826
887.523	20777
887.648	20746
887.773	20727
887.897	20880
888.021	20910
888.146	20705
888.27	21024
888.395	20918
888.519	20910
888.643	20876
888.767	20845
888.891	20746
889.015	20598
889.139	20629
889.263	20625
889.387	20807
889.511	20788
889.635	20705
889.759	20625
889.883	20587
890.006	20697
890.13	20758
890.254	20457
890.377	20480
890.501	20332
890.624	20278
890.748	20434
890.871	20244
890.995	20168
891.118	20180
891.241	20199
891.364	20183
891.488	20305
891.611	20210
891.734	20240
891.857	20191
891.98	20149
892.103	20256
892.226	20183
892.349	20096
892.471	19989
892.594	20058
892.717	20172
892.839	20187
892.962	20191
893.085	20324
893.207	20157
893.33	20039
893.452	20035
893.575	20077
893.697	20016
893.819	20237
893.941	20244
894.064	20119
894.186	20008
894.308	19997
894.43	20122
894.552	20221
894.674	20138
894.796	20046
894.918	20096
895.04	20092
895.161	20298
895.283	20084
895.405	20058
895.526	20126
895.648	20130
895.769	20149
895.891	20084
896.012	20145
896.134	20172
896.255	20069
896.376	19936
896.498	20005
896.619	20172
896.74	20199
896.861	20248
896.982	20457
897.103	20393
897.224	20240
897.345	20381
897.466	20233
897.587	20313
897.708	20442
897.828	20366
897.949	20271
898.07	20164
898.19	20229
898.311	20355
898.431	20320
898.552	20343
898.672	20351
898.792	20370
898.913	20305
899.033	20229
899.153	20191
899.273	20012
899.393	19940
899.513	20084
899.633	20054
899.753	20031
899.873	20084
899.993	20062
900.113	19940
900.232	20016
900.352	19890
900.472	19955
900.591	19864
900.711	19887
900.83	19791
900.95	19967
901.069	19974
901.189	19799
901.308	19464
901.427	19411
901.546	19464
901.665	19510
901.784	19438
901.904	19274
902.023	19232
902.141	19004
902.26	19076
902.379	19103
902.498	18981
902.617	18989
902.735	19095
902.854	18996
902.973	18871
903.091	18642
903.21	18631
903.328	18627
903.446	18528
903.565	18506
903.683	18471
903.801	18323
903.919	18350
904.038	18426
904.156	18197
904.274	18235
904.392	18129
904.51	18247
904.627	18243
904.745	18228
904.863	18076
904.981	18007
905.098	17893
905.216	17863
905.334	17977
905.451	17893
905.569	17771
905.686	17809
905.803	17882
905.921	17619
906.038	17687
906.155	17760
906.272	17623
906.389	17627
906.506	17349
906.623	17315
906.74	17360
906.857	17261
906.974	17311
907.091	17558
907.208	17543
907.324	17345
907.441	17299
907.557	17094
907.674	17128
907.79	17105
907.907	17056
908.023	17227
908.139	17242
908.256	16980
908.372	16915
908.488	16976
908.604	16873
908.72	16736
908.836	16911
908.952	16793
909.068	16858
909.184	16885
909.3	16911
909.415	16911
909.531	16885
909.647	16493
909.762	16485
909.878	16516
909.993	16641
910.108	16561
910.224	16485
910.339	16497
910.454	16516
910.57	16367
910.685	16299
910.8	16580
910.915	16497
911.03	16280
911.145	16268
911.259	16192
911.374	16147
911.489	15994
911.604	16036
911.718	15972
911.833	16029
911.947	15690
912.062	15682
912.176	15857
912.291	15857
912.405	15797
912.519	16055
912.633	16032
912.748	15907
912.862	15922
912.976	15759
913.09	15610
913.204	15709
913.318	15648
913.431	15819
913.545	15751
913.659	15857
913.772	15686
913.886	15557
914	15561
914.113	15519
914.226	15633
914.34	15572
914.453	15397
914.566	15599
914.68	15344
914.793	15416
914.906	15211
915.019	15108
915.132	15097
915.245	15123
915.358	15081
915.47	15077
915.583	15085
915.696	15180
915.809	15180
915.921	15169
916.034	15066
916.146	15097
916.259	14986
916.371	15112
916.483	15039
916.595	14921
916.708	14887
916.82	14960
916.932	14891
917.044	14986
917.156	14864
917.268	14792
917.38	14777
917.491	14823
917.603	14826
917.715	14880
917.826	14807
917.938	14621
918.049	14659
918.161	14686
918.272	14883
918.384	14849
918.495	14727
918.606	14571
918.717	14476
918.828	14579
918.939	14503
919.05	14465
919.161	14590
919.272	14278
919.383	14362
919.494	14587
919.604	14686
919.715	14594
919.826	14374
919.936	14473
920.047	14621
920.157	14476
920.267	14705
920.378	14537
920.488	14427
920.598	14773
920.708	14708
920.818	14606
920.928	14571
921.038	14785
921.148	14708
921.258	14446
921.368	14347
921.477	14324
921.587	14214
921.697	14103
921.806	14244
921.916	14111
922.025	13928
922.134	13955
922.244	13811
922.353	13936
922.462	13750
922.571	13681
922.68	13567
922.789	13559
922.898	13567
923.007	13502
923.116	13480
923.224	13445
923.333	13529
923.442	13373
923.55	13335
923.659	13381
923.767	13419
923.876	13266
923.984	13354
924.092	13168
924.201	13270
924.309	13171
924.417	13320
924.525	13225
924.633	13190
924.741	14039
924.849	12935
924.956	13118
925.064	13042
925.172	12871
925.279	12928
925.387	12943
925.494	12943
925.602	13053
925.709	13034
925.816	12852
925.924	12939
926.031	12985
926.138	12856
926.245	12958
926.352	12798
926.459	12920
926.566	12909
926.673	12757
926.779	12654
926.886	12677
926.993	12494
927.099	12502
927.206	12460
927.312	12464
927.419	12479
927.525	12555
927.631	12536
927.737	12448
927.843	12391
927.95	12350
928.056	12422
928.162	12361
928.267	12327
928.373	12935
928.479	12369
928.585	12175
928.69	12243
928.796	12372
928.901	12273
929.007	12053
929.112	12114
929.218	12232
929.323	12144
929.428	12022
929.533	12133
929.638	11977
929.743	12019
929.848	12045
929.953	11965
930.058	11851
930.163	11653
930.267	11729
930.372	11927
930.477	11821
930.581	11851
930.685	11756
930.79	11657
930.894	11726
930.998	11592
931.103	11726
931.207	11429
931.311	11330
931.415	11208
931.519	11052
931.623	11033
