Data from test_V78500241_2309.txt Node
Date: Fri Mar 25 15:25:56 CST 2022
User: usil
Spectrometer: V785-0024
Trigger mode: 0
Integration Time (sec): 4.000000E-1
Scans to average: 1
Nonlinearity correction enabled: false
Boxcar width: 0
Storing dark spectrum: false
XAxis mode: Wavelengths
Number of Pixels in Spectrum: 1024
>>>>>Begin Spectral Data<<<<<
801.071	27252
801.214	27070
801.356	26940
801.499	26853
801.641	26659
801.783	26590
801.926	26750
802.068	26621
802.211	26609
802.353	26415
802.496	26434
802.638	26263
802.78	26244
802.923	26298
803.065	26225
803.208	26164
803.35	26252
803.492	26393
803.635	26495
803.777	26328
803.919	26457
804.061	26800
804.204	26503
804.346	26575
804.488	26332
804.63	26488
804.773	26438
804.915	26495
805.057	26575
805.199	26358
805.341	26476
805.483	26697
805.626	26560
805.768	26320
805.91	26697
806.052	26583
806.194	26328
806.336	26788
806.478	26632
806.62	26446
806.762	26682
806.904	26727
807.046	26990
807.188	26967
807.33	27096
807.472	26963
807.614	26891
807.756	26944
807.898	26785
808.04	26777
808.182	26693
808.324	26777
808.465	26804
808.607	26982
808.749	27032
808.891	27116
809.033	27473
809.174	27165
809.316	27123
809.458	27074
809.6	27154
809.741	27279
809.883	27195
810.025	27412
810.166	27382
810.308	27336
810.45	27344
810.591	27256
810.733	27146
810.875	27112
811.016	27051
811.158	27009
811.299	27036
811.441	27207
811.582	27192
811.724	27161
811.865	27058
812.007	27024
812.148	27055
812.29	27096
812.431	27298
812.573	27382
812.714	27496
812.855	27690
812.997	27709
813.138	27846
813.279	27728
813.421	27755
813.562	27610
813.703	27466
813.845	27336
813.986	26933
814.127	26861
814.268	26826
814.41	26792
814.551	26754
814.692	26792
814.833	26701
814.974	26819
815.115	26830
815.256	26629
815.397	26663
815.539	26689
815.68	26613
815.821	26560
815.962	26598
816.103	26381
816.244	26290
816.385	26415
816.526	26328
816.666	26191
816.807	26107
816.948	26081
817.089	26138
817.23	26221
817.371	26054
817.512	25974
817.653	25966
817.793	26005
817.934	26016
818.075	25883
818.216	26134
818.356	25917
818.497	25909
818.638	25734
818.778	25700
818.919	25715
819.06	25860
819.2	25902
819.341	26031
819.481	25993
819.622	26016
819.762	26275
819.903	26275
820.043	26180
820.184	26149
820.324	26058
820.465	26126
820.605	26138
820.746	26024
820.886	26065
821.026	26134
821.167	26027
821.307	26065
821.447	25963
821.588	25966
821.728	25890
821.868	25624
822.008	25457
822.149	25483
822.289	25438
822.429	25373
822.569	25084
822.709	25084
822.849	25000
822.99	25061
823.13	24973
823.27	24875
823.41	24837
823.55	24715
823.69	24863
823.83	24776
823.97	24738
824.11	24661
824.25	24540
824.389	24612
824.529	24776
824.669	24646
824.809	24585
824.949	24772
825.089	24593
825.228	24768
825.368	24505
825.508	24517
825.648	24585
825.787	24467
825.927	24604
826.067	24460
826.206	24536
826.346	24589
826.485	24346
826.625	24384
826.765	24612
826.904	24612
827.044	24281
827.183	24235
827.323	24186
827.462	24251
827.601	24224
827.741	24270
827.88	24243
828.02	24018
828.159	24197
828.298	24072
828.437	24155
828.577	24121
828.716	24224
828.855	24034
828.994	23889
829.134	23908
829.273	23882
829.412	23916
829.551	23668
829.69	23832
829.829	23764
829.968	23901
830.107	24087
830.246	23878
830.385	23805
830.524	23824
830.663	23733
830.802	23638
830.941	23501
831.08	23467
831.219	23551
831.357	23535
831.496	23691
831.635	23566
831.774	23383
831.913	23326
832.051	23269
832.19	23140
832.329	23223
832.467	23239
832.606	23136
832.744	23166
832.883	23166
833.022	23041
833.16	23086
833.299	23277
833.437	23216
833.576	23284
833.714	23166
833.852	23337
833.991	23284
834.129	23353
834.267	23307
834.406	23254
834.544	23277
834.682	23246
834.821	23280
834.959	23395
835.097	23155
835.235	23307
835.373	23216
835.511	23197
835.65	23064
835.788	23132
835.926	22984
836.064	22934
836.202	22968
836.34	23086
836.478	23143
836.615	23014
836.753	23174
836.891	22995
837.029	23121
837.167	23029
837.305	22881
837.443	22930
837.58	22889
837.718	23037
837.856	22999
837.993	22778
838.131	22980
838.269	22755
838.406	22812
838.544	22748
838.681	22565
838.819	22622
838.956	22394
839.094	22382
839.231	22421
839.369	22489
839.506	22805
839.643	22694
839.781	22413
839.918	22417
840.055	22421
840.193	22363
840.33	22341
840.467	22284
840.604	22306
840.742	22573
840.879	22268
841.016	22261
841.153	22166
841.29	22360
841.427	22329
841.564	22265
841.701	22310
841.838	22150
841.975	22188
842.112	22169
842.249	22192
842.385	21972
842.522	22226
842.659	22181
842.796	22036
842.933	22105
843.069	21994
843.206	21956
843.343	22135
843.479	22093
843.616	21949
843.752	21915
843.889	21755
844.025	21998
844.162	21766
844.298	22002
844.435	21774
844.571	21770
844.708	21778
844.844	21915
844.98	21903
845.117	22055
845.253	21838
845.389	21736
845.525	21652
845.661	21652
845.798	21473
845.934	21595
846.07	21534
846.206	21500
846.342	21637
846.478	21610
846.614	21401
846.75	21325
846.886	21378
847.022	21249
847.158	21306
847.294	21348
847.429	21340
847.565	21294
847.701	21618
847.837	21024
847.972	20979
848.108	21081
848.244	21142
848.379	20921
848.515	20941
848.65	20857
848.786	20811
848.921	20868
849.057	20975
849.192	21074
849.328	20842
849.463	20910
849.598	20857
849.734	20845
849.869	20701
850.004	20720
850.14	20716
850.275	20545
850.41	20590
850.545	20674
850.68	20644
850.815	20568
850.95	20724
851.085	20819
851.22	20826
851.355	20701
851.49	20716
851.625	20617
851.76	20655
851.895	20545
852.03	20594
852.165	20644
852.299	20678
852.434	20743
852.569	20686
852.703	20727
852.838	20769
852.973	20667
853.107	20758
853.242	20602
853.376	20549
853.511	20389
853.645	20423
853.78	20579
853.914	20564
854.048	20450
854.183	20454
854.317	20442
854.451	20785
854.585	20541
854.72	20294
854.854	20541
854.988	20571
855.122	20465
855.256	20313
855.39	20590
855.524	20564
855.658	20473
855.792	20560
855.926	20564
856.06	20556
856.194	20419
856.327	20415
856.461	20469
856.595	20549
856.729	20412
856.862	20594
856.996	20659
857.13	20545
857.263	20629
857.397	20636
857.53	20454
857.664	20473
857.797	20530
857.931	20514
858.064	20473
858.197	20606
858.331	20438
858.464	20427
858.597	20339
858.731	20412
858.864	20492
858.997	20598
859.13	20492
859.263	20579
859.396	20575
859.529	20454
859.662	20488
859.795	20476
859.928	20511
860.061	20648
860.194	20720
860.327	20499
860.46	20511
860.592	20545
860.725	20583
860.858	20545
860.99	20461
861.123	20396
861.256	20377
861.388	20389
861.521	21245
861.653	20385
861.786	20339
861.918	20347
862.05	20370
862.183	20606
862.315	20377
862.447	20396
862.58	20404
862.712	20225
862.844	20218
862.976	20305
863.108	20286
863.24	20785
863.372	20172
863.504	20275
863.636	20282
863.768	20305
863.9	20134
864.032	20161
864.164	20199
864.296	20244
864.428	20259
864.559	20309
864.691	20237
864.823	20229
864.954	20168
865.086	20191
865.217	20077
865.349	19970
865.48	20031
865.612	20149
865.743	20138
865.875	20161
866.006	20035
866.137	20107
866.269	20180
866.4	20088
866.531	20092
866.662	20016
866.793	20020
866.924	19993
867.055	20046
867.186	20058
867.317	20069
867.448	19830
867.579	20020
867.71	19909
867.841	19955
867.972	20039
868.103	20012
868.233	20145
868.364	20058
868.495	20221
868.625	20229
868.756	20343
868.886	20252
869.017	20233
869.147	20328
869.278	20473
869.408	20362
869.539	20278
869.669	20381
869.799	20221
869.929	20263
870.06	20355
870.19	20636
870.32	20621
870.45	20670
870.58	20750
870.71	20758
870.84	20838
870.97	20724
871.1	20781
871.23	20872
871.36	20933
871.489	20708
871.619	20838
871.749	20921
871.879	21001
872.008	21039
872.138	20925
872.267	20754
872.397	20788
872.526	20769
872.656	20716
872.785	20598
872.915	21009
873.044	21043
873.173	20842
873.303	20921
873.432	20868
873.561	21017
873.69	21009
873.819	20971
873.948	21009
874.077	20944
874.206	20868
874.335	20918
874.464	20971
874.593	21161
874.722	21135
874.851	21112
874.979	21112
875.108	21268
875.237	21096
875.365	21005
875.494	21226
875.623	21272
875.751	21009
875.88	21157
876.008	21294
876.136	21329
876.265	21523
876.393	21705
876.521	21728
876.65	21606
876.778	21492
876.906	21504
877.034	21439
877.162	21568
877.29	21382
877.418	21530
877.546	21519
877.674	21477
877.802	21469
877.93	21454
878.058	21443
878.185	21466
878.313	21534
878.441	21458
878.568	21302
878.696	21329
878.824	21511
878.951	21606
879.079	21724
879.206	21857
879.333	21766
879.461	21595
879.588	21538
879.715	21553
879.842	21686
879.97	21549
880.097	21351
880.224	21275
880.351	21370
880.478	21283
880.605	21306
880.732	21233
880.859	21523
880.986	21294
881.112	21408
881.239	21135
881.366	21066
881.493	21058
881.619	20819
881.746	20967
881.872	20868
881.999	20918
882.125	20807
882.252	20937
882.378	20937
882.505	20948
882.631	20754
882.757	20663
882.883	20708
883.01	20648
883.136	20514
883.262	20556
883.388	20438
883.514	20609
883.64	20571
883.766	20598
883.892	20393
884.018	20454
884.143	20575
884.269	20697
884.395	20320
884.52	20240
884.646	20263
884.772	20202
884.897	20157
885.023	20248
885.148	20446
885.274	20377
885.399	20366
885.524	20374
885.65	20172
885.775	20343
885.9	20320
886.025	20457
886.15	20309
886.275	20176
886.4	20259
886.525	20210
886.65	20172
886.775	20244
886.9	20404
887.025	20492
887.149	20237
887.274	20214
887.399	19989
887.523	20046
887.648	20005
887.773	19925
887.897	20130
888.021	20153
888.146	19974
888.27	20145
888.395	20157
888.519	20077
888.643	20081
888.767	20134
888.891	20020
889.015	19856
889.139	19883
889.263	19761
889.387	20039
889.511	20001
889.635	19970
889.759	19860
889.883	19799
890.006	19947
890.13	20005
890.254	19818
890.377	19830
890.501	19586
890.624	19521
890.748	19647
890.871	19445
890.995	19434
891.118	19392
891.241	19445
891.364	19502
891.488	19556
891.611	19396
891.734	19468
891.857	19407
891.98	19369
892.103	19518
892.226	19491
892.349	19487
892.471	19365
892.594	19331
892.717	19487
892.839	19392
892.962	19304
893.085	19449
893.207	19369
893.33	19304
893.452	19365
893.575	19422
893.697	19411
893.819	19540
893.941	19468
894.064	19472
894.186	19225
894.308	19244
894.43	19495
894.552	19514
894.674	19449
894.796	19354
894.918	19240
895.04	19297
895.161	19384
895.283	19415
895.405	19236
895.526	19445
895.648	19263
895.769	19320
895.891	19388
896.012	19415
896.134	19544
896.255	19373
896.376	19320
896.498	19354
896.619	19312
896.74	19350
896.861	19392
896.982	19651
897.103	19932
897.224	19628
897.345	19590
897.466	19506
897.587	19533
897.708	19689
897.828	19628
897.949	19441
898.07	19460
898.19	19499
898.311	19685
898.431	19635
898.552	19632
898.672	19700
898.792	19719
898.913	19677
899.033	19419
899.153	19460
899.273	19411
899.393	19472
899.513	19445
899.633	19388
899.753	19320
899.873	19289
899.993	19464
900.113	19343
900.232	19441
900.352	19240
900.472	19244
900.591	19217
900.711	19202
900.83	19209
900.95	19403
901.069	19183
901.189	19019
901.308	18802
901.427	18791
901.546	18760
901.665	18867
901.784	18810
901.904	18700
902.023	18623
902.141	18365
902.26	18410
902.379	18422
902.498	18357
902.617	18117
902.735	18388
902.854	18289
902.973	18209
903.091	17992
903.21	17973
903.328	17958
903.446	17745
903.565	17756
903.683	17798
903.801	17668
903.919	17733
904.038	17760
904.156	17608
904.274	17646
904.392	17562
904.51	17532
904.627	17577
904.745	17512
904.863	17524
904.981	17307
905.098	17200
905.216	17280
905.334	17356
905.451	17280
905.569	17231
905.686	17330
905.803	17200
905.921	17075
906.038	17136
906.155	16991
906.272	16790
906.389	16839
906.506	16854
906.623	16904
906.74	16774
906.857	16691
906.974	16618
907.091	16790
907.208	16900
907.324	16843
907.441	16725
907.557	16474
907.674	16474
907.79	16409
907.907	16466
908.023	16462
908.139	16512
908.256	16443
908.372	16421
908.488	16390
908.604	16242
908.72	16249
908.836	16287
908.952	16150
909.068	16249
909.184	16226
909.3	16097
909.415	16166
909.531	16177
909.647	15926
909.762	15918
909.878	15876
909.993	15972
910.108	15907
910.224	15880
910.339	15876
910.454	15774
910.57	15713
910.685	15690
910.8	16021
910.915	15842
911.03	15618
911.145	15511
911.259	15511
911.374	15519
911.489	15435
911.604	15393
911.718	15310
911.833	15256
911.947	15241
912.062	15085
912.176	15241
912.291	15241
912.405	15222
912.519	15272
912.633	15473
912.748	15325
912.862	15294
912.976	15089
913.09	15017
913.204	14998
913.318	15081
913.431	15070
913.545	15138
913.659	15203
913.772	14971
913.886	14849
914	14857
914.113	14975
914.226	14933
914.34	15036
914.453	14815
914.566	14925
914.68	14853
914.793	14823
914.906	14625
915.019	14556
915.132	14583
915.245	14552
915.358	14526
915.47	14476
915.583	14454
915.696	14564
915.809	14701
915.921	14720
916.034	14480
916.146	14427
916.259	14465
916.371	14602
916.483	14408
916.595	14427
916.708	14370
916.82	14362
916.932	14366
917.044	14237
917.156	14278
917.268	14149
917.38	14210
917.491	14282
917.603	14244
917.715	14286
917.826	14305
917.938	14233
918.049	14065
918.161	14043
918.272	14301
918.384	14313
918.495	14107
918.606	14107
918.717	13913
918.828	14005
918.939	13967
919.05	13902
919.161	14035
919.272	13769
919.383	13788
919.494	13963
919.604	14183
919.715	13959
919.826	13906
919.936	13894
920.047	13967
920.157	13974
920.267	14096
920.378	13989
920.488	13951
920.598	14138
920.708	14267
920.818	14077
920.928	14069
921.038	14164
921.148	14187
921.258	13913
921.368	13795
921.477	13689
921.587	13734
921.697	13578
921.806	13681
921.916	13540
922.025	13403
922.134	13373
922.244	13270
922.353	13320
922.462	13304
922.571	13152
922.68	13091
922.789	12958
922.898	12970
923.007	12890
923.116	13057
923.224	13027
923.333	12962
923.442	12848
923.55	12772
923.659	12856
923.767	12989
923.876	12719
923.984	12878
924.092	12798
924.201	12863
924.309	12738
924.417	12696
924.525	12673
924.633	12665
924.741	13681
924.849	12563
924.956	12623
925.064	12471
925.172	12433
925.279	12395
925.387	12490
925.494	12525
925.602	12559
925.709	12407
925.816	12395
925.924	12300
926.031	12486
926.138	12319
926.245	12327
926.352	12308
926.459	12490
926.566	12460
926.673	12315
926.779	12247
926.886	12197
926.993	12110
927.099	12030
927.206	11977
927.312	11889
927.419	12072
927.525	12007
927.631	12083
927.737	11901
927.843	11870
927.95	11771
928.056	11832
928.162	11847
928.267	11965
928.373	12376
928.479	11931
928.585	11680
928.69	11851
928.796	11901
928.901	11737
929.007	11570
929.112	11748
929.218	11733
929.323	11684
929.428	11657
929.533	11703
929.638	11448
929.743	11623
929.848	11604
929.953	11558
930.058	11478
930.163	11273
930.267	11254
930.372	11459
930.477	11254
930.581	11406
930.685	11345
930.79	11162
930.894	11220
930.998	11239
931.103	11292
931.207	10957
931.311	10866
931.415	10793
931.519	10626
931.623	10493
