Data from test_V78500241_3244.txt Node
Date: Fri Mar 25 15:32:26 CST 2022
User: usil
Spectrometer: V785-0024
Trigger mode: 0
Integration Time (sec): 4.000000E-1
Scans to average: 1
Nonlinearity correction enabled: false
Boxcar width: 0
Storing dark spectrum: false
XAxis mode: Wavelengths
Number of Pixels in Spectrum: 1024
>>>>>Begin Spectral Data<<<<<
801.071	27233
801.214	27161
801.356	26963
801.499	26872
801.641	26845
801.783	26773
801.926	26781
802.068	26750
802.211	26712
802.353	26773
802.496	26549
802.638	26564
802.78	26267
802.923	26267
803.065	26195
803.208	26381
803.35	26442
803.492	26503
803.635	26609
803.777	26492
803.919	26583
804.061	26880
804.204	26716
804.346	26415
804.488	26438
804.63	26503
804.773	26358
804.915	26587
805.057	26629
805.199	26648
805.341	26621
805.483	26727
805.626	26606
805.768	26522
805.91	26678
806.052	26606
806.194	26594
806.336	26937
806.478	26727
806.62	26663
806.762	26849
806.904	26902
807.046	27066
807.188	27104
807.33	27096
807.472	27245
807.614	26914
807.756	27074
807.898	26724
808.04	26861
808.182	26712
808.324	26975
808.465	27043
808.607	27116
808.749	27135
808.891	27218
809.033	27504
809.174	27192
809.316	27211
809.458	27154
809.6	27188
809.741	27359
809.883	27534
810.025	27485
810.166	27557
810.308	27549
810.45	27450
810.591	27389
810.733	27294
810.875	27344
811.016	27142
811.158	27317
811.299	27359
811.441	27393
811.582	27393
811.724	27298
811.865	27249
812.007	27165
812.148	27317
812.29	27317
812.431	27359
812.573	27348
812.714	27606
812.855	27892
812.997	27835
813.138	27884
813.279	27945
813.421	27713
813.562	27705
813.703	27561
813.845	27431
813.986	27055
814.127	26952
814.268	26830
814.41	26834
814.551	26902
814.692	26986
814.833	26887
814.974	26834
815.115	26971
815.256	26746
815.397	26792
815.539	26674
815.68	26575
815.821	26590
815.962	26693
816.103	26750
816.244	26545
816.385	26587
816.526	26366
816.666	26195
816.807	26210
816.948	26324
817.089	26332
817.23	26043
817.371	26199
817.512	26077
817.653	26145
817.793	26096
817.934	26183
818.075	26142
818.216	26180
818.356	26096
818.497	26005
818.638	25788
818.778	25932
818.919	25845
819.06	25944
819.2	26134
819.341	26180
819.481	26065
819.622	26339
819.762	26457
819.903	26393
820.043	26393
820.184	26271
820.324	26229
820.465	26320
820.605	26256
820.746	26305
820.886	26119
821.026	26202
821.167	26214
821.307	26393
821.447	26157
821.588	26024
821.728	25951
821.868	25753
822.008	25643
822.149	25655
822.289	25643
822.429	25434
822.569	25259
822.709	25209
822.849	25278
822.99	25202
823.13	25023
823.27	25160
823.41	24863
823.55	24760
823.69	25042
823.83	25031
823.97	24871
824.11	24650
824.25	24616
824.389	24661
824.529	24848
824.669	24711
824.809	24859
824.949	24802
825.089	24692
825.228	24829
825.368	24593
825.508	24452
825.648	24627
825.787	24658
825.927	24711
826.067	24612
826.206	24661
826.346	24696
826.485	24658
826.625	24612
826.765	24783
826.904	24741
827.044	24448
827.183	24407
827.323	24342
827.462	24467
827.601	24456
827.741	24395
827.88	24407
828.02	24258
828.159	24292
828.298	24311
828.437	24418
828.577	24266
828.716	24426
828.855	24228
828.994	23916
829.134	23946
829.273	24007
829.412	24011
829.551	23973
829.69	23965
829.829	24114
829.968	24220
830.107	24095
830.246	24102
830.385	23939
830.524	23961
830.663	23882
830.802	23771
830.941	23680
831.08	23528
831.219	23771
831.357	23897
831.496	23817
831.635	23745
831.774	23608
831.913	23611
832.051	23379
832.19	23429
832.329	23482
832.467	23368
832.606	23341
832.744	23261
832.883	23349
833.022	23254
833.16	23448
833.299	23334
833.437	23398
833.576	23452
833.714	23448
833.852	23414
833.991	23516
834.129	23581
834.267	23387
834.406	23486
834.544	23383
834.682	23516
834.821	23421
834.959	23646
835.097	23474
835.235	23448
835.373	23402
835.511	23364
835.65	23284
835.788	23273
835.926	23193
836.064	22930
836.202	23170
836.34	23250
836.478	23311
836.615	23368
836.753	23296
836.891	23421
837.029	23200
837.167	23216
837.305	23223
837.443	23067
837.58	23067
837.718	23136
837.856	23162
837.993	23090
838.131	23105
838.269	23143
838.406	23128
838.544	22850
838.681	22771
838.819	22664
838.956	22641
839.094	22622
839.231	22710
839.369	22828
839.506	22976
839.643	22645
839.781	22672
839.918	22542
840.055	22626
840.193	22577
840.33	22542
840.467	22634
840.604	22512
840.742	22957
840.879	22428
841.016	22508
841.153	22436
841.29	22615
841.427	22656
841.564	22706
841.701	22645
841.838	22489
841.975	22375
842.112	22542
842.249	22485
842.385	22322
842.522	22542
842.659	22504
842.796	22265
842.933	22238
843.069	22177
843.206	22219
843.343	22322
843.479	22363
843.616	22329
843.752	22067
843.889	22078
844.025	22177
844.162	22013
844.298	22158
844.435	22059
844.571	22078
844.708	22097
844.844	22158
844.98	22219
845.117	22158
845.253	22070
845.389	21918
845.525	21979
845.661	21918
845.798	21762
845.934	21895
846.07	21751
846.206	21926
846.342	21789
846.478	21804
846.614	21648
846.75	21458
846.886	21473
847.022	21644
847.158	21606
847.294	21663
847.429	21644
847.565	21534
847.701	21854
847.837	21287
847.972	21317
848.108	21363
848.244	21401
848.379	21138
848.515	21165
848.65	21108
848.786	21199
848.921	21100
849.057	21306
849.192	21226
849.328	21173
849.463	21138
849.598	21256
849.734	21062
849.869	20971
850.004	20944
850.14	20834
850.275	20933
850.41	20785
850.545	20815
850.68	20834
850.815	20853
850.95	20899
851.085	21165
851.22	21013
851.355	20849
851.49	20883
851.625	20941
851.76	20918
851.895	20849
852.03	20933
852.165	21051
852.299	20967
852.434	20895
852.569	20807
852.703	21043
852.838	20994
852.973	21085
853.107	21116
853.242	20857
853.376	20773
853.511	20655
853.645	20659
853.78	20830
853.914	20811
854.048	20720
854.183	20708
854.317	20864
854.451	20864
854.585	20857
854.72	20785
854.854	20777
854.988	20670
855.122	20727
855.256	20606
855.39	20743
855.524	20937
855.658	20739
855.792	20796
855.926	20777
856.06	20925
856.194	20864
856.327	20617
856.461	20667
856.595	20693
856.729	20754
856.862	20853
856.996	20765
857.13	20838
857.263	20891
857.397	20815
857.53	20651
857.664	20678
857.797	20823
857.931	20929
858.064	20788
858.197	20792
858.331	20613
858.464	20746
858.597	20621
858.731	20743
858.864	20667
858.997	20678
859.13	20697
859.263	20655
859.396	20929
859.529	20705
859.662	20819
859.795	20716
859.928	20663
860.061	20929
860.194	20960
860.327	20777
860.46	20743
860.592	20781
860.725	20979
860.858	20807
860.99	20663
861.123	20708
861.256	20590
861.388	20708
861.521	21332
861.653	20541
861.786	20499
861.918	20556
862.05	20678
862.183	20746
862.315	20651
862.447	20777
862.58	20674
862.712	20503
862.844	20454
862.976	20522
863.108	20499
863.24	20845
863.372	20389
863.504	20492
863.636	20442
863.768	20579
863.9	20465
864.032	20317
864.164	20427
864.296	20438
864.428	20503
864.559	20575
864.691	20438
864.823	20457
864.954	20545
865.086	20419
865.217	20282
865.349	20328
865.48	20396
865.612	20362
865.743	20609
865.875	20427
866.006	20275
866.137	20454
866.269	20324
866.4	20275
866.531	20229
866.662	20317
866.793	20259
866.924	20320
867.055	20336
867.186	20290
867.317	20191
867.448	20168
867.579	20343
867.71	20199
867.841	20149
867.972	20214
868.103	20317
868.233	20320
868.364	20408
868.495	20278
868.625	20613
868.756	20644
868.886	20446
869.017	20495
869.147	20644
869.278	20678
869.408	20488
869.539	20571
869.669	20530
869.799	20594
869.929	20621
870.06	20598
870.19	20746
870.32	20819
870.45	20804
870.58	20883
870.71	21024
870.84	21081
870.97	20994
871.1	20971
871.23	21100
871.36	21135
871.489	21058
871.619	21127
871.749	21154
871.879	21104
872.008	21291
872.138	21252
872.267	21100
872.397	20967
872.526	20895
872.656	20986
872.785	20967
872.915	21245
873.044	21294
873.173	21222
873.303	21260
873.432	21306
873.561	21370
873.69	21165
873.819	21161
873.948	21104
874.077	21093
874.206	21184
874.335	21237
874.464	21294
874.593	21351
874.722	21386
874.851	21428
874.979	21439
875.108	21393
875.237	21431
875.365	21317
875.494	21466
875.623	21481
875.751	21351
875.88	21485
876.008	21557
876.136	21739
876.265	21739
876.393	21895
876.521	21827
876.65	21956
876.778	21884
876.906	21694
877.034	21762
877.162	21812
877.29	21698
877.418	21717
877.546	21812
877.674	21793
877.802	21743
877.93	21778
878.058	21770
878.185	21614
878.313	21785
878.441	21934
878.568	21561
878.696	21641
878.824	21770
878.951	21762
879.079	21895
879.206	22002
879.333	21903
879.461	21736
879.588	21899
879.715	21892
879.842	22067
879.97	21797
880.097	21660
880.224	21545
880.351	21599
880.478	21652
880.605	21549
880.732	21515
880.859	21766
880.986	21614
881.112	21523
881.239	21515
881.366	21321
881.493	21351
881.619	21119
881.746	21188
881.872	21226
881.999	21226
882.125	21036
882.252	21146
882.378	21161
882.505	21264
882.631	21058
882.757	20929
882.883	20921
883.01	20853
883.136	20921
883.262	20731
883.388	20754
883.514	20918
883.64	20963
883.766	20842
883.892	20682
884.018	20693
884.143	20891
884.269	20960
884.395	20583
884.52	20522
884.646	20689
884.772	20427
884.897	20427
885.023	20606
885.148	20667
885.274	20674
885.399	20682
885.524	20556
885.65	20545
885.775	20636
885.9	20522
886.025	20648
886.15	20552
886.275	20526
886.4	20431
886.525	20499
886.65	20381
886.775	20480
886.9	20606
887.025	20724
887.149	20499
887.274	20484
887.399	20278
887.523	20324
887.648	20267
887.773	20267
887.897	20446
888.021	20301
888.146	20206
888.27	20377
888.395	20320
888.519	20256
888.643	20298
888.767	20233
888.891	20244
889.015	20244
889.139	20153
889.263	19898
889.387	20237
889.511	20309
889.635	20115
889.759	20145
889.883	20039
890.006	20119
890.13	20206
890.254	19906
890.377	20054
890.501	19887
890.624	19814
890.748	19917
890.871	19788
890.995	19700
891.118	19540
891.241	19765
891.364	19830
891.488	19788
891.611	19658
891.734	19791
891.857	19670
891.98	19723
892.103	19746
892.226	19753
892.349	19685
892.471	19434
892.594	19620
892.717	19677
892.839	19632
892.962	19643
893.085	19632
893.207	19632
893.33	19468
893.452	19438
893.575	19609
893.697	19605
893.819	19811
893.941	19746
894.064	19776
894.186	19571
894.308	19586
894.43	19662
894.552	19738
894.674	19757
894.796	19578
894.918	19647
895.04	19521
895.161	19708
895.283	19712
895.405	19525
895.526	19575
895.648	19632
895.769	19506
895.891	19670
896.012	19750
896.134	19639
896.255	19643
896.376	19597
896.498	19499
896.619	19487
896.74	19632
896.861	19734
896.982	19906
897.103	19967
897.224	19830
897.345	19894
897.466	19887
897.587	19803
897.708	20039
897.828	19936
897.949	19811
898.07	19632
898.19	19784
898.311	19917
898.431	19738
898.552	19788
898.672	19921
898.792	19788
898.913	19879
899.033	19757
899.153	19563
899.273	19556
899.393	19563
899.513	19655
899.633	19582
899.753	19563
899.873	19518
899.993	19537
900.113	19578
900.232	19639
900.352	19415
900.472	19384
900.591	19171
900.711	19388
900.83	19240
900.95	19445
901.069	19518
901.189	19285
901.308	19046
901.427	18928
901.546	18962
901.665	18939
901.784	18989
901.904	18958
902.023	18692
902.141	18517
902.26	18540
902.379	18635
902.498	18513
902.617	18448
902.735	18407
902.854	18437
902.973	18388
903.091	18201
903.21	18266
903.328	18182
903.446	18053
903.565	17912
903.683	18076
903.801	17889
903.919	17889
904.038	17798
904.156	17775
904.274	17878
904.392	17737
904.51	17748
904.627	17786
904.745	17794
904.863	17802
904.981	17501
905.098	17490
905.216	17421
905.334	17436
905.451	17387
905.569	17387
905.686	17452
905.803	17364
905.921	17159
906.038	17227
906.155	17261
906.272	17277
906.389	17128
906.506	16980
906.623	16915
906.74	16968
906.857	16672
906.974	16911
907.091	16972
907.208	17006
907.324	17010
907.441	16976
907.557	16816
907.674	16626
907.79	16672
907.907	16683
908.023	16656
908.139	16615
908.256	16649
908.372	16641
908.488	16523
908.604	16379
908.72	16352
908.836	16402
908.952	16421
909.068	16512
909.184	16497
909.3	16318
909.415	16409
909.531	16325
909.647	16124
909.762	16101
909.878	16158
909.993	16116
910.108	16166
910.224	16013
910.339	16105
910.454	15876
910.57	15945
910.685	15884
910.8	16185
910.915	16021
911.03	15884
911.145	15774
911.259	15728
911.374	15606
911.489	15625
911.604	15568
911.718	15504
911.833	15549
911.947	15329
912.062	15355
912.176	15557
912.291	15447
912.405	15370
912.519	15675
912.633	15663
912.748	15469
912.862	15397
912.976	15230
913.09	15211
913.204	15256
913.318	15287
913.431	15291
913.545	15313
913.659	15416
913.772	15275
913.886	15123
914	15028
914.113	15249
914.226	15195
914.34	15112
914.453	14941
914.566	15116
914.68	15051
914.793	15009
914.906	14792
915.019	14792
915.132	14636
915.245	14625
915.358	14682
915.47	14674
915.583	14708
915.696	14735
915.809	14758
915.921	14857
916.034	14686
916.146	14655
916.259	14511
916.371	14769
916.483	14724
916.595	14533
916.708	14598
916.82	14568
916.932	14469
917.044	14461
917.156	14469
917.268	14309
917.38	14389
917.491	14389
917.603	14423
917.715	14400
917.826	14434
917.938	14332
918.049	14183
918.161	14305
918.272	14339
918.384	14457
918.495	14278
918.606	14195
918.717	14077
918.828	14065
918.939	14084
919.05	14058
919.161	14088
919.272	13974
919.383	13989
919.494	14119
919.604	14275
919.715	14183
919.826	14016
919.936	14096
920.047	14054
920.157	14107
920.267	14336
920.378	14096
920.488	14096
920.598	14263
920.708	14446
920.818	14237
920.928	14202
921.038	14400
921.148	14313
921.258	14100
921.368	13944
921.477	13856
921.587	13830
921.697	13845
921.806	13894
921.916	13746
922.025	13556
922.134	13533
922.244	13510
922.353	13537
922.462	13308
922.571	13320
922.68	13126
922.789	13110
922.898	13107
923.007	13072
923.116	13080
923.224	13107
923.333	13217
923.442	13084
923.55	12939
923.659	13031
923.767	13088
923.876	13027
923.984	12920
924.092	12878
924.201	12924
924.309	12943
924.417	12966
924.525	12890
924.633	12871
924.741	13799
924.849	12688
924.956	12791
925.064	12551
925.172	12639
925.279	12532
925.387	12620
925.494	12658
925.602	12707
925.709	12585
925.816	12448
925.924	12513
926.031	12642
926.138	12593
926.245	12658
926.352	12551
926.459	12547
926.566	12589
926.673	12452
926.779	12369
926.886	12315
926.993	12182
927.099	12163
927.206	12148
927.312	12095
927.419	12186
927.525	12194
927.631	12201
927.737	12064
927.843	11973
927.95	11950
928.056	12068
928.162	11984
928.267	12045
928.373	12688
928.479	12076
928.585	11802
928.69	11958
928.796	12034
928.901	11836
929.007	11748
929.112	11870
929.218	11802
929.323	11748
929.428	11710
929.533	11851
929.638	11642
929.743	11672
929.848	11703
929.953	11691
930.058	11665
930.163	11414
930.267	11444
930.372	11638
930.477	11398
930.581	11646
930.685	11501
930.79	11288
930.894	11398
930.998	11303
931.103	11474
931.207	10987
931.311	10968
931.415	10991
931.519	10797
931.623	10641
