Data from test_V78500241_214.txt Node
Date: Fri Mar 25 15:11:21 CST 2022
User: usil
Spectrometer: V785-0024
Trigger mode: 0
Integration Time (sec): 4.000000E-1
Scans to average: 1
Nonlinearity correction enabled: false
Boxcar width: 0
Storing dark spectrum: false
XAxis mode: Wavelengths
Number of Pixels in Spectrum: 1024
>>>>>Begin Spectral Data<<<<<
801.071	27652
801.214	27561
801.356	27230
801.499	27370
801.641	27214
801.783	27093
801.926	27161
802.068	27051
802.211	27066
802.353	26895
802.496	26880
802.638	26777
802.78	26758
802.923	26670
803.065	26670
803.208	26583
803.35	26678
803.492	26765
803.635	26796
803.777	26640
803.919	26929
804.061	27222
804.204	26845
804.346	26705
804.488	26648
804.63	26876
804.773	26659
804.915	26804
805.057	26804
805.199	26743
805.341	26819
805.483	26868
805.626	26792
805.768	26727
805.91	26807
806.052	26891
806.194	26765
806.336	27024
806.478	26864
806.62	26739
806.762	26861
806.904	27093
807.046	27473
807.188	27184
807.33	27226
807.472	27279
807.614	27138
807.756	27165
807.898	27249
808.04	27055
808.182	27039
808.324	27028
808.465	27051
808.607	27165
808.749	27389
808.891	27382
809.033	27637
809.174	27469
809.316	27397
809.458	27272
809.6	27367
809.741	27561
809.883	27473
810.025	27679
810.166	27587
810.308	27698
810.45	27568
810.591	27572
810.733	27427
810.875	27313
811.016	27199
811.158	27298
811.299	27389
811.441	27523
811.582	27443
811.724	27370
811.865	27195
812.007	27355
812.148	27389
812.29	27401
812.431	27519
812.573	27595
812.714	27652
812.855	27827
812.997	27922
813.138	28040
813.279	27983
813.421	27842
813.562	27717
813.703	27568
813.845	27515
813.986	27233
814.127	27085
814.268	27070
814.41	26982
814.551	26815
814.692	26960
814.833	26940
814.974	26853
815.115	26887
815.256	26640
815.397	26960
815.539	26880
815.68	26792
815.821	26453
815.962	26834
816.103	26689
816.244	26625
816.385	26503
816.526	26423
816.666	26225
816.807	25997
816.948	26206
817.089	26267
817.23	26172
817.371	26164
817.512	26024
817.653	26100
817.793	26142
817.934	26282
818.075	26202
818.216	26176
818.356	26031
818.497	26100
818.638	25917
818.778	25727
818.919	25993
819.06	25928
819.2	25898
819.341	26039
819.481	26027
819.622	26294
819.762	26225
819.903	26415
820.043	26324
820.184	26142
820.324	26229
820.465	26191
820.605	26138
820.746	26149
820.886	25955
821.026	26084
821.167	25959
821.307	26065
821.447	26176
821.588	25890
821.728	25788
821.868	25731
822.008	25597
822.149	25540
822.289	25449
822.429	25228
822.569	25228
822.709	25031
822.849	24958
822.99	25179
823.13	24973
823.27	24878
823.41	24802
823.55	24738
823.69	24795
823.83	24859
823.97	24688
824.11	24513
824.25	24456
824.389	24612
824.529	24654
824.669	24631
824.809	24768
824.949	24623
825.089	24627
825.228	24669
825.368	24433
825.508	24540
825.648	24540
825.787	24429
825.927	24471
826.067	24437
826.206	24380
826.346	24536
826.485	24566
826.625	24391
826.765	24544
826.904	24471
827.044	24243
827.183	24205
827.323	24060
827.462	24243
827.601	24076
827.741	24076
827.88	24163
828.02	23958
828.159	24007
828.298	24186
828.437	24163
828.577	23874
828.716	24289
828.855	23965
828.994	23718
829.134	23840
829.273	23699
829.412	23821
829.551	23722
829.69	23779
829.829	23805
829.968	23786
830.107	23764
830.246	23824
830.385	23710
830.524	23562
830.663	23668
830.802	23448
830.941	23356
831.08	23372
831.219	23383
831.357	23512
831.496	23695
831.635	23433
831.774	23223
831.913	23265
832.051	23181
832.19	23208
832.329	23277
832.467	23113
832.606	23029
832.744	23033
832.883	23052
833.022	23003
833.16	22934
833.299	23022
833.437	23075
833.576	23109
833.714	23105
833.852	23162
833.991	23128
834.129	23098
834.267	23128
834.406	23067
834.544	23231
834.682	23079
834.821	22980
834.959	23136
835.097	23033
835.235	23140
835.373	23022
835.511	22999
835.65	22938
835.788	22919
835.926	22691
836.064	22733
836.202	22839
836.34	22896
836.478	22957
836.615	22995
836.753	22938
836.891	23010
837.029	22885
837.167	22828
837.305	22831
837.443	22771
837.58	22763
837.718	22778
837.856	22744
837.993	22725
838.131	22782
838.269	22588
838.406	22557
838.544	22497
838.681	22409
838.819	22295
838.956	22177
839.094	22177
839.231	22291
839.369	22325
839.506	22592
839.643	22394
839.781	22268
839.918	22192
840.055	22200
840.193	22116
840.33	22116
840.467	22078
840.604	22204
840.742	22276
840.879	21888
841.016	22040
841.153	22074
841.29	22124
841.427	22169
841.564	22086
841.701	22097
841.838	22013
841.975	21949
842.112	22021
842.249	21975
842.385	21762
842.522	22086
842.659	21941
842.796	21835
842.933	21846
843.069	21781
843.206	21838
843.343	21937
843.479	21831
843.616	21720
843.752	21553
843.889	21705
844.025	21728
844.162	21561
844.298	21652
844.435	21572
844.571	21469
844.708	21587
844.844	21736
844.98	21827
845.117	21759
845.253	21610
845.389	21454
845.525	21488
845.661	21431
845.798	21325
845.934	21416
846.07	21332
846.206	21317
846.342	21488
846.478	21306
846.614	21211
846.75	21077
846.886	21020
847.022	21188
847.158	21119
847.294	21039
847.429	21062
847.565	21028
847.701	21325
847.837	20842
847.972	20720
848.108	20937
848.244	20762
848.379	20651
848.515	20602
848.65	20602
848.786	20606
848.921	20701
849.057	20716
849.192	20716
849.328	20632
849.463	20583
849.598	20629
849.734	20480
849.869	20537
850.004	20454
850.14	20511
850.275	20415
850.41	20438
850.545	20328
850.68	20324
850.815	20431
850.95	20317
851.085	20503
851.22	20507
851.355	20355
851.49	20271
851.625	20400
851.76	20400
851.895	20290
852.03	20332
852.165	20366
852.299	20381
852.434	20400
852.569	20336
852.703	20408
852.838	20343
852.973	20587
853.107	20404
853.242	20240
853.376	20225
853.511	20096
853.645	20187
853.78	20343
853.914	20259
854.048	20168
854.183	20157
854.317	20309
854.451	20343
854.585	20248
854.72	20267
854.854	20240
854.988	20088
855.122	20221
855.256	19989
855.39	20092
855.524	20168
855.658	20267
855.792	20233
855.926	20084
856.06	20275
856.194	20221
856.327	20138
856.461	20096
856.595	20183
856.729	20134
856.862	20317
856.996	20210
857.13	20328
857.263	20210
857.397	20263
857.53	20111
857.664	20343
857.797	20298
857.931	20225
858.064	20218
858.197	20305
858.331	20103
858.464	20005
858.597	20005
858.731	20218
858.864	20027
858.997	20050
859.13	20050
859.263	20130
859.396	20244
859.529	20126
859.662	20134
859.795	20024
859.928	20218
860.061	20218
860.194	20214
860.327	20206
860.46	20035
860.592	20259
860.725	20469
860.858	20237
860.99	20153
861.123	19997
861.256	20084
861.388	20199
861.521	20895
861.653	19997
861.786	20054
861.918	20001
862.05	20069
862.183	20012
862.315	20107
862.447	20183
862.58	20088
862.712	19814
862.844	19875
862.976	20100
863.108	19944
863.24	20355
863.372	19898
863.504	19723
863.636	19909
863.768	19921
863.9	19765
864.032	19727
864.164	19788
864.296	19868
864.428	19955
864.559	19860
864.691	19917
864.823	19788
864.954	19795
865.086	19849
865.217	19693
865.349	19734
865.48	19731
865.612	19753
865.743	19963
865.875	19818
866.006	19807
866.137	19765
866.269	19814
866.4	19635
866.531	19696
866.662	19742
866.793	19761
866.924	19685
867.055	19742
867.186	19693
867.317	19662
867.448	19712
867.579	19655
867.71	19704
867.841	19635
867.972	19807
868.103	19753
868.233	19666
868.364	19761
868.495	19906
868.625	19967
868.756	20103
868.886	19963
869.017	19887
869.147	20111
869.278	20096
869.408	20039
869.539	19936
869.669	20084
869.799	20054
869.929	20073
870.06	20096
870.19	20206
870.32	20195
870.45	20446
870.58	20366
870.71	20446
870.84	20514
870.97	20412
871.1	20305
871.23	20571
871.36	20442
871.489	20511
871.619	20579
871.749	20476
871.879	20632
872.008	20552
872.138	20499
872.267	20541
872.397	20343
872.526	20431
872.656	20393
872.785	20423
872.915	20613
873.044	20678
873.173	20461
873.303	20560
873.432	20720
873.561	20537
873.69	20629
873.819	20484
873.948	20739
874.077	20659
874.206	20613
874.335	20533
874.464	20773
874.593	20834
874.722	20899
874.851	20819
874.979	20864
875.108	20804
875.237	20864
875.365	20762
875.494	20811
875.623	20788
875.751	20792
875.88	20933
876.008	21036
876.136	21051
876.265	21192
876.393	21416
876.521	21336
876.65	21329
876.778	21207
876.906	21104
877.034	21127
877.162	21222
877.29	21093
877.418	21173
877.546	21306
877.674	21169
877.802	21226
877.93	21176
878.058	21116
878.185	21093
878.313	21203
878.441	21237
878.568	21017
878.696	21039
878.824	21268
878.951	21237
879.079	21393
879.206	21462
879.333	21264
879.461	21184
879.588	21207
879.715	21321
879.842	21416
879.97	21127
880.097	21066
880.224	21077
880.351	20982
880.478	21131
880.605	21032
880.732	21123
880.859	21291
880.986	21020
881.112	21096
881.239	20796
881.366	20864
881.493	20705
881.619	20746
881.746	20621
881.872	20507
881.999	20575
882.125	20598
882.252	20632
882.378	20617
882.505	20849
882.631	20507
882.757	20313
882.883	20370
883.01	20324
883.136	20324
883.262	20294
883.388	20252
883.514	20248
883.64	20366
883.766	20240
883.892	20168
884.018	20157
884.143	20370
884.269	20355
884.395	20069
884.52	19993
884.646	20062
884.772	19993
884.897	19890
885.023	19997
885.148	20084
885.274	20134
885.399	20088
885.524	20008
885.65	20054
885.775	20016
885.9	19974
886.025	20054
886.15	20016
886.275	19955
886.4	19746
886.525	20001
886.65	19936
886.775	19909
886.9	20024
887.025	20069
887.149	19967
887.274	19799
887.399	19715
887.523	19674
887.648	19769
887.773	19628
887.897	19879
888.021	19757
888.146	19712
888.27	19799
888.395	19822
888.519	19814
888.643	19833
888.767	19658
888.891	19628
889.015	19635
889.139	19674
889.263	19487
889.387	19643
889.511	19791
889.635	19639
889.759	19529
889.883	19537
890.006	19571
890.13	19670
890.254	19510
890.377	19529
890.501	19221
890.624	19244
890.748	19343
890.871	19190
890.995	19122
891.118	19034
891.241	19114
891.364	19099
891.488	19297
891.611	19114
891.734	19183
891.857	19236
891.98	19156
892.103	19187
892.226	19209
892.349	19171
892.471	18848
892.594	19091
892.717	19084
892.839	19118
892.962	19168
893.085	19213
893.207	19110
893.33	18951
893.452	18973
893.575	19027
893.697	19012
893.819	19217
893.941	19362
894.064	19114
894.186	19042
894.308	19027
894.43	19129
894.552	19270
894.674	19202
894.796	19004
894.918	19008
895.04	18996
895.161	19232
895.283	19099
895.405	19053
895.526	19217
895.648	18993
895.769	19122
895.891	19061
896.012	19190
896.134	18996
896.255	19137
896.376	19050
896.498	19164
896.619	19148
896.74	19228
896.861	19240
896.982	19400
897.103	19628
897.224	19453
897.345	19415
897.466	19365
897.587	19388
897.708	19449
897.828	19335
897.949	19335
898.07	19179
898.19	19369
898.311	19384
898.431	19164
898.552	19327
898.672	19445
898.792	19293
898.913	19335
899.033	19148
899.153	19027
899.273	19015
899.393	19091
899.513	19126
899.633	18973
899.753	19103
899.873	19057
899.993	19034
900.113	19084
900.232	19061
900.352	19118
900.472	18970
900.591	18852
900.711	18890
900.83	18734
900.95	18954
901.069	18935
901.189	18844
901.308	18604
901.427	18502
901.546	18452
901.665	18395
901.784	18407
901.904	18426
902.023	18205
902.141	18064
902.26	18011
902.379	18057
902.498	18041
902.617	17999
902.735	17980
902.854	17954
902.973	17889
903.091	17748
903.21	17608
903.328	17585
903.446	17516
903.565	17543
903.683	17406
903.801	17429
903.919	17364
904.038	17471
904.156	17231
904.274	17425
904.392	17212
904.51	17220
904.627	17246
904.745	17242
904.863	17277
904.981	17018
905.098	16915
905.216	16949
905.334	16961
905.451	16957
905.569	16946
905.686	16976
905.803	16987
905.921	16675
906.038	16828
906.155	16778
906.272	16599
906.389	16603
906.506	16447
906.623	16402
906.74	16405
906.857	16424
906.974	16379
907.091	16508
907.208	16611
907.324	16550
907.441	16261
907.557	16207
907.674	16185
907.79	16051
907.907	16086
908.023	16192
908.139	16173
908.256	16158
908.372	16101
908.488	16116
908.604	15934
908.72	15899
908.836	15857
908.952	15876
909.068	15873
909.184	16048
909.3	15934
909.415	15876
909.531	15827
909.647	15667
909.762	15511
909.878	15458
909.993	15492
910.108	15564
910.224	15568
910.339	15572
910.454	15477
910.57	15397
910.685	15393
910.8	15675
910.915	15500
911.03	15412
911.145	15131
911.259	15245
911.374	15169
911.489	15093
911.604	14967
911.718	14979
911.833	14906
911.947	14823
912.062	14857
912.176	14960
912.291	14956
912.405	14845
912.519	15154
912.633	14971
912.748	14990
912.862	14838
912.976	14750
913.09	14716
913.204	14724
913.318	14731
913.431	14823
913.545	14933
913.659	14914
913.772	14777
913.886	14499
914	14473
914.113	14686
914.226	14644
914.34	14571
914.453	14518
914.566	14648
914.68	14522
914.793	14377
914.906	14313
915.019	14271
915.132	14187
915.245	14119
915.358	14252
915.47	14199
915.583	14153
915.696	14294
915.809	14298
915.921	14248
916.034	14115
916.146	14111
916.259	14100
916.371	14183
916.483	14145
916.595	13993
916.708	13989
916.82	14069
916.932	13967
917.044	14035
917.156	14005
917.268	13849
917.38	13902
917.491	13860
917.603	13780
917.715	14001
917.826	14024
917.938	13811
918.049	13753
918.161	13963
918.272	13986
918.384	13917
918.495	13860
918.606	13738
918.717	13601
918.828	13799
918.939	13746
919.05	13529
919.161	13704
919.272	13472
919.383	13578
919.494	13636
919.604	13856
919.715	13628
919.826	13616
919.936	13670
920.047	13670
920.157	13609
920.267	13887
920.378	13639
920.488	13563
920.598	13841
920.708	13928
920.818	13799
920.928	13696
921.038	13989
921.148	13845
921.258	13559
921.368	13563
921.477	13324
921.587	13285
921.697	13270
921.806	13457
921.916	13232
922.025	13034
922.134	13031
922.244	12947
922.353	13069
922.462	12863
922.571	12856
922.68	12635
922.789	12604
922.898	12726
923.007	12623
923.116	12612
923.224	12623
923.333	12620
923.442	12532
923.55	12456
923.659	12532
923.767	12692
923.876	12456
923.984	12506
924.092	12372
924.201	12471
924.309	12433
924.417	12467
924.525	12388
924.633	12365
924.741	13152
924.849	12121
924.956	12350
925.064	12213
925.172	12076
925.279	12117
925.387	12125
925.494	12201
925.602	12327
925.709	12190
925.816	12064
925.924	12060
926.031	12167
926.138	12049
926.245	12060
926.352	12049
926.459	12159
926.566	12098
926.673	12003
926.779	11828
926.886	11859
926.993	11798
927.099	11794
927.206	11638
927.312	11695
927.419	11688
927.525	11737
927.631	11722
927.737	11608
927.843	11577
927.95	11436
928.056	11543
928.162	11638
928.267	11608
928.373	12254
928.479	11657
928.585	11345
928.69	11581
928.796	11589
928.901	11433
929.007	11303
929.112	11463
929.218	11448
929.323	11288
929.428	11349
929.533	11425
929.638	11227
929.743	11246
929.848	11277
929.953	11280
930.058	11094
930.163	10987
930.267	11048
930.372	11181
930.477	11029
930.581	11185
930.685	11025
930.79	10904
930.894	10847
930.998	10831
931.103	10923
931.207	10649
931.311	10565
931.415	10405
931.519	10322
931.623	10337
