Data from test_V78500241_3274.txt Node
Date: Fri Mar 25 15:32:39 CST 2022
User: usil
Spectrometer: V785-0024
Trigger mode: 0
Integration Time (sec): 4.000000E-1
Scans to average: 1
Nonlinearity correction enabled: false
Boxcar width: 0
Storing dark spectrum: false
XAxis mode: Wavelengths
Number of Pixels in Spectrum: 1024
>>>>>Begin Spectral Data<<<<<
801.071	27374
801.214	27291
801.356	27051
801.499	27032
801.641	26773
801.783	27001
801.926	27005
802.068	26781
802.211	26792
802.353	26921
802.496	26617
802.638	26495
802.78	26484
802.923	26351
803.065	26400
803.208	26423
803.35	26442
803.492	26598
803.635	26727
803.777	26609
803.919	26655
804.061	26979
804.204	26750
804.346	26533
804.488	26541
804.63	26625
804.773	26495
804.915	26731
805.057	26670
805.199	26476
805.341	26724
805.483	26739
805.626	26857
805.768	26674
805.91	26708
806.052	26743
806.194	26705
806.336	26925
806.478	26773
806.62	26765
806.762	26826
806.904	26925
807.046	27211
807.188	27157
807.33	27241
807.472	27108
807.614	27192
807.756	27214
807.898	26933
808.04	26960
808.182	26975
808.324	27028
808.465	27138
808.607	27245
808.749	27447
808.891	27378
809.033	27603
809.174	27367
809.316	27321
809.458	27351
809.6	27378
809.741	27450
809.883	27458
810.025	27774
810.166	27842
810.308	27804
810.45	27530
810.591	27606
810.733	27450
810.875	27500
811.016	27313
811.158	27180
811.299	27367
811.441	27618
811.582	27443
811.724	27355
811.865	27260
812.007	27287
812.148	27321
812.29	27310
812.431	27545
812.573	27701
812.714	27656
812.855	27949
812.997	27960
813.138	27983
813.279	27956
813.421	27876
813.562	27793
813.703	27599
813.845	27538
813.986	27119
814.127	27150
814.268	27009
814.41	27161
814.551	27043
814.692	27077
814.833	26914
814.974	26849
815.115	27020
815.256	26906
815.397	26788
815.539	26906
815.68	26853
815.821	26796
815.962	26918
816.103	26952
816.244	26644
816.385	26450
816.526	26659
816.666	26294
816.807	26233
816.948	26408
817.089	26362
817.23	26332
817.371	26324
817.512	26278
817.653	26290
817.793	26328
817.934	26328
818.075	26290
818.216	26309
818.356	26313
818.497	26164
818.638	25993
818.778	25913
818.919	26259
819.06	26176
819.2	26149
819.341	26176
819.481	26309
819.622	26355
819.762	26724
819.903	26541
820.043	26453
820.184	26358
820.324	26362
820.465	26400
820.605	26263
820.746	26271
820.886	26221
821.026	26453
821.167	26313
821.307	26453
821.447	26191
821.588	26248
821.728	26046
821.868	25845
822.008	25807
822.149	25704
822.289	25875
822.429	25559
822.569	25407
822.709	25453
822.849	25297
822.99	25198
823.13	25156
823.27	25247
823.41	25069
823.55	24951
823.69	25141
823.83	25179
823.97	24920
824.11	24890
824.25	24962
824.389	24753
824.529	24882
824.669	24863
824.809	25000
824.949	24970
825.089	24962
825.228	24962
825.368	24795
825.508	24783
825.648	24894
825.787	24867
825.927	24837
826.067	24772
826.206	24753
826.346	24772
826.485	24878
826.625	24837
826.765	24772
826.904	24806
827.044	24608
827.183	24456
827.323	24494
827.462	24597
827.601	24342
827.741	24475
827.88	24342
828.02	24380
828.159	24418
828.298	24372
828.437	24418
828.577	24505
828.716	24479
828.855	24296
828.994	24045
829.134	24228
829.273	24209
829.412	24216
829.551	24125
829.69	24194
829.829	24277
829.968	24300
830.107	24258
830.246	24117
830.385	24239
830.524	24079
830.663	24106
830.802	23840
830.941	23828
831.08	23897
831.219	23859
831.357	23912
831.496	24057
831.635	23760
831.774	23809
831.913	23710
832.051	23535
832.19	23623
832.329	23547
832.467	23455
832.606	23474
832.744	23520
832.883	23372
833.022	23341
833.16	23398
833.299	23516
833.437	23570
833.576	23653
833.714	23657
833.852	23570
833.991	23619
834.129	23642
834.267	23661
834.406	23509
834.544	23615
834.682	23611
834.821	23608
834.959	23707
835.097	23452
835.235	23539
835.373	23634
835.511	23448
835.65	23334
835.788	23379
835.926	23220
836.064	23212
836.202	23280
836.34	23467
836.478	23562
836.615	23463
836.753	23372
836.891	23463
837.029	23467
837.167	23315
837.305	23299
837.443	23273
837.58	23178
837.718	23254
837.856	23303
837.993	23090
838.131	23220
838.269	23280
838.406	23223
838.544	23109
838.681	23006
838.819	22968
838.956	22706
839.094	22698
839.231	22752
839.369	22911
839.506	23246
839.643	22934
839.781	22725
839.918	22801
840.055	22744
840.193	22649
840.33	22725
840.467	22752
840.604	22793
840.742	22892
840.879	22672
841.016	22649
841.153	22474
841.29	22835
841.427	22721
841.564	22733
841.701	22580
841.838	22744
841.975	22542
842.112	22527
842.249	22512
842.385	22542
842.522	22721
842.659	22554
842.796	22500
842.933	22390
843.069	22470
843.206	22409
843.343	22523
843.479	22470
843.616	22436
843.752	22249
843.889	22147
844.025	22356
844.162	22253
844.298	22371
844.435	22196
844.571	22223
844.708	22276
844.844	22382
844.98	22310
845.117	22360
845.253	22086
845.389	22090
845.525	22257
845.661	22063
845.798	21884
845.934	21960
846.07	21937
846.206	21934
846.342	22059
846.478	21915
846.614	21660
846.75	21728
846.886	21717
847.022	21705
847.158	21728
847.294	21736
847.429	21724
847.565	21561
847.701	21991
847.837	21454
847.972	21325
848.108	21469
848.244	21439
848.379	21306
848.515	21306
848.65	21252
848.786	21119
848.921	21287
849.057	21408
849.192	21321
849.328	21245
849.463	21359
849.598	21169
849.734	21112
849.869	21119
850.004	21036
850.14	21146
850.275	21085
850.41	21070
850.545	20914
850.68	20899
850.815	21077
850.95	21020
851.085	21264
851.22	21142
851.355	21085
851.49	21017
851.625	20971
851.76	20918
851.895	20933
852.03	20902
852.165	20986
852.299	21112
852.434	21093
852.569	21096
852.703	20994
852.838	21154
852.973	21146
853.107	21066
853.242	20998
853.376	20872
853.511	20754
853.645	20868
853.78	20895
853.914	20838
854.048	20868
854.183	20902
854.317	20899
854.451	21028
854.585	20918
854.72	20925
854.854	20887
854.988	20781
855.122	20937
855.256	20815
855.39	20956
855.524	20971
855.658	20971
855.792	20937
855.926	20861
856.06	20914
856.194	20910
856.327	20804
856.461	20834
856.595	20933
856.729	20895
856.862	20921
856.996	20967
857.13	20929
857.263	21009
857.397	20979
857.53	20902
857.664	21116
857.797	20864
857.931	21043
858.064	20952
858.197	21009
858.331	20834
858.464	20842
858.597	20826
858.731	20876
858.864	20891
858.997	20842
859.13	20815
859.263	20864
859.396	21066
859.529	20880
859.662	20952
859.795	20830
859.928	20906
860.061	21096
860.194	21062
860.327	20925
860.46	20948
860.592	21062
860.725	21127
860.858	21032
860.99	20933
861.123	20910
861.256	20960
861.388	20944
861.521	21458
861.653	20697
861.786	20762
861.918	20773
862.05	20773
862.183	20796
862.315	20826
862.447	20876
862.58	20914
862.712	20579
862.844	20511
862.976	20708
863.108	20636
863.24	21032
863.372	20587
863.504	20644
863.636	20617
863.768	20720
863.9	20518
864.032	20473
864.164	20575
864.296	20670
864.428	20754
864.559	20670
864.691	20663
864.823	20617
864.954	20640
865.086	20499
865.217	20499
865.349	20396
865.48	20621
865.612	20507
865.743	20777
865.875	20492
866.006	20499
866.137	20499
866.269	20473
866.4	20587
866.531	20507
866.662	20503
866.793	20438
866.924	20473
867.055	20587
867.186	20473
867.317	20366
867.448	20393
867.579	20412
867.71	20454
867.841	20396
867.972	20374
868.103	20560
868.233	20511
868.364	20454
868.495	20514
868.625	20716
868.756	20682
868.886	20590
869.017	20712
869.147	20826
869.278	20876
869.408	20727
869.539	20651
869.669	20674
869.799	20838
869.929	20750
870.06	20785
870.19	21036
870.32	20918
870.45	20952
870.58	21074
870.71	21081
870.84	21226
870.97	21100
871.1	21112
871.23	21302
871.36	21291
871.489	21256
871.619	21332
871.749	21329
871.879	21363
872.008	21504
872.138	21389
872.267	21378
872.397	21157
872.526	21100
872.656	21180
872.785	21070
872.915	21359
873.044	21275
873.173	21260
873.303	21412
873.432	21367
873.561	21332
873.69	21332
873.819	21367
873.948	21412
874.077	21332
874.206	21176
874.335	21386
874.464	21401
874.593	21595
874.722	21538
874.851	21542
874.979	21641
875.108	21675
875.237	21622
875.365	21492
875.494	21443
875.623	21545
875.751	21500
875.88	21557
876.008	21663
876.136	21797
876.265	22082
876.393	22013
876.521	22109
876.65	21945
876.778	22067
876.906	21888
877.034	21850
877.162	21903
877.29	21861
877.418	22002
877.546	22013
877.674	21808
877.802	21861
877.93	21911
878.058	21846
878.185	21934
878.313	21797
878.441	21850
878.568	21816
878.696	21819
878.824	21876
878.951	21975
879.079	22074
879.206	22192
879.333	22185
879.461	21941
879.588	21956
879.715	22097
879.842	22196
879.97	22013
880.097	21656
880.224	21713
880.351	21675
880.478	21739
880.605	21747
880.732	21690
880.859	22002
880.986	21648
881.112	21709
881.239	21720
881.366	21519
881.493	21374
881.619	21401
881.746	21370
881.872	21374
881.999	21283
882.125	21192
882.252	21317
882.378	21336
882.505	21576
882.631	21211
882.757	21020
882.883	21112
883.01	21066
883.136	20842
883.262	20960
883.388	20902
883.514	21081
883.64	21055
883.766	20876
883.892	20777
884.018	20781
884.143	21043
884.269	21055
884.395	20762
884.52	20705
884.646	20659
884.772	20640
884.897	20484
885.023	20621
885.148	20689
885.274	20872
885.399	20823
885.524	20701
885.65	20568
885.775	20609
885.9	20743
886.025	20708
886.15	20629
886.275	20659
886.4	20670
886.525	20621
886.65	20735
886.775	20511
886.9	20712
887.025	20956
887.149	20686
887.274	20552
887.399	20358
887.523	20446
887.648	20385
887.773	20244
887.897	20530
888.021	20499
888.146	20351
888.27	20560
888.395	20526
888.519	20298
888.643	20339
888.767	20644
888.891	20374
889.015	20282
889.139	20252
889.263	20278
889.387	20191
889.511	20381
889.635	20465
889.759	20145
889.883	20164
890.006	20229
890.13	20324
890.254	20244
890.377	20130
890.501	19997
890.624	19898
890.748	20081
890.871	19921
890.995	19822
891.118	19868
891.241	19883
891.364	19818
891.488	19944
891.611	19898
891.734	19898
891.857	19818
891.98	19693
892.103	19803
892.226	19860
892.349	19727
892.471	19594
892.594	19841
892.717	19750
892.839	19723
892.962	19700
893.085	19811
893.207	19670
893.33	19769
893.452	19696
893.575	19769
893.697	19647
893.819	19734
893.941	19928
894.064	19913
894.186	19643
894.308	19731
894.43	19875
894.552	19875
894.674	19814
894.796	19613
894.918	19757
895.04	19582
895.161	19925
895.283	19746
895.405	19769
895.526	19708
895.648	19811
895.769	19734
895.891	19856
896.012	19830
896.134	19784
896.255	19772
896.376	19742
896.498	19696
896.619	19727
896.74	19685
896.861	19845
896.982	20005
897.103	20210
897.224	19967
897.345	19913
897.466	19818
897.587	19955
897.708	19974
897.828	19997
897.949	19925
898.07	19906
898.19	19845
898.311	19978
898.431	19902
898.552	19936
898.672	19974
898.792	19978
898.913	20039
899.033	19879
899.153	19734
899.273	19681
899.393	19696
899.513	19632
899.633	19689
899.753	19742
899.873	19651
899.993	19643
900.113	19750
900.232	19696
900.352	19632
900.472	19491
900.591	19430
900.711	19537
900.83	19388
900.95	19567
901.069	19662
901.189	19377
901.308	19152
901.427	19084
901.546	19084
901.665	19027
901.784	19061
901.904	18916
902.023	18700
902.141	18608
902.26	18684
902.379	18646
902.498	18646
902.617	18460
902.735	18536
902.854	18650
902.973	18464
903.091	18353
903.21	18273
903.328	18194
903.446	18186
903.565	18095
903.683	18019
903.801	17969
903.919	18060
904.038	18003
904.156	17798
904.274	17977
904.392	17824
904.51	17882
904.627	17832
904.745	17851
904.863	17988
904.981	17638
905.098	17520
905.216	17539
905.334	17642
905.451	17672
905.569	17570
905.686	17589
905.803	17509
905.921	17387
906.038	17474
906.155	17368
906.272	17284
906.389	17094
906.506	17025
906.623	17079
906.74	17048
906.857	16980
906.974	17048
907.091	17181
907.208	17155
907.324	17045
907.441	16987
907.557	16752
907.674	16858
907.79	16767
907.907	16816
908.023	16847
908.139	16729
908.256	16786
908.372	16649
908.488	16694
908.604	16500
908.72	16558
908.836	16588
908.952	16615
909.068	16584
909.184	16668
909.3	16459
909.415	16538
909.531	16443
909.647	16322
909.762	16268
909.878	16120
909.993	16185
910.108	16143
910.224	16238
910.339	16124
910.454	16048
910.57	16032
910.685	15895
910.8	16211
910.915	16185
911.03	16143
911.145	15823
911.259	15842
911.374	15850
911.489	15701
911.604	15701
911.718	15606
911.833	15648
911.947	15378
912.062	15477
912.176	15660
912.291	15519
912.405	15717
912.519	15743
912.633	15819
912.748	15686
912.862	15591
912.976	15382
913.09	15233
913.204	15370
913.318	15420
913.431	15435
913.545	15511
913.659	15526
913.772	15428
913.886	15294
914	15100
914.113	15355
914.226	15344
914.34	15241
914.453	15020
914.566	15195
914.68	15055
914.793	15017
914.906	14990
915.019	14811
915.132	14864
915.245	14796
915.358	14769
915.47	14800
915.583	14819
915.696	14849
915.809	14857
915.921	15024
916.034	14777
916.146	14697
916.259	14724
916.371	14758
916.483	14781
916.595	14651
916.708	14651
916.82	14663
916.932	14606
917.044	14568
917.156	14606
917.268	14450
917.38	14412
917.491	14465
917.603	14503
917.715	14549
917.826	14617
917.938	14454
918.049	14271
918.161	14377
918.272	14621
918.384	14560
918.495	14385
918.606	14248
918.717	14214
918.828	14176
918.939	14275
919.05	14157
919.161	14092
919.272	14081
919.383	14107
919.494	14275
919.604	14374
919.715	14149
919.826	14088
919.936	14187
920.047	14229
920.157	14145
920.267	14393
920.378	14142
920.488	14210
920.598	14400
920.708	14507
920.818	14301
920.928	14339
921.038	14473
921.148	14480
921.258	14054
921.368	14058
921.477	14001
921.587	13921
921.697	13814
921.806	13906
921.916	13746
922.025	13784
922.134	13613
922.244	13556
922.353	13628
922.462	13472
922.571	13388
922.68	13297
922.789	13213
922.898	13266
923.007	13285
923.116	13335
923.224	13320
923.333	13247
923.442	13187
923.55	13088
923.659	13103
923.767	13122
923.876	13110
923.984	13126
924.092	12970
924.201	13015
924.309	13099
924.417	13042
924.525	12954
924.633	12890
924.741	13887
924.849	12703
924.956	12909
925.064	12692
925.172	12760
925.279	12681
925.387	12677
925.494	12642
925.602	12821
925.709	12795
925.816	12566
925.924	12627
926.031	12681
926.138	12627
926.245	12681
926.352	12574
926.459	12673
926.566	12734
926.673	12658
926.779	12422
926.886	12452
926.993	12369
927.099	12334
927.206	12247
927.312	12163
927.419	12380
927.525	12239
927.631	12311
927.737	12060
927.843	12186
927.95	12030
928.056	12167
928.162	12144
928.267	12155
928.373	12871
928.479	12247
928.585	11961
928.69	12057
928.796	12045
928.901	12007
929.007	11863
929.112	11988
929.218	11901
929.323	11832
929.428	11836
929.533	11992
929.638	11783
929.743	11722
929.848	11779
929.953	11737
930.058	11703
930.163	11547
930.267	11471
930.372	11672
930.477	11463
930.581	11726
930.685	11516
930.79	11455
930.894	11406
930.998	11387
931.103	11490
931.207	11166
931.311	11189
931.415	11060
931.519	10877
931.623	10809
