Data from test_V78500241_972.txt Node
Date: Fri Mar 25 15:16:37 CST 2022
User: usil
Spectrometer: V785-0024
Trigger mode: 0
Integration Time (sec): 4.000000E-1
Scans to average: 1
Nonlinearity correction enabled: false
Boxcar width: 0
Storing dark spectrum: false
XAxis mode: Wavelengths
Number of Pixels in Spectrum: 1024
>>>>>Begin Spectral Data<<<<<
801.071	28093
801.214	28173
801.356	28025
801.499	27835
801.641	27717
801.783	27701
801.926	27880
802.068	27880
802.211	27644
802.353	27732
802.496	27485
802.638	27427
802.78	27283
802.923	27469
803.065	27458
803.208	27511
803.35	27401
803.492	27576
803.635	27679
803.777	27519
803.919	27473
804.061	27922
804.204	27515
804.346	27583
804.488	27603
804.63	27580
804.773	27397
804.915	27671
805.057	27888
805.199	27610
805.341	27701
805.483	27781
805.626	27808
805.768	27561
805.91	27720
806.052	27831
806.194	27652
806.336	27926
806.478	27876
806.62	27785
806.762	27873
806.904	28067
807.046	28303
807.188	28105
807.33	28268
807.472	28261
807.614	28181
807.756	28097
807.898	28185
808.04	28067
808.182	28010
808.324	28116
808.465	28063
808.607	28166
808.749	28303
808.891	28527
809.033	28565
809.174	28557
809.316	28386
809.458	28478
809.6	28493
809.741	28519
809.883	28596
810.025	28759
810.166	28645
810.308	28698
810.45	28664
810.591	28588
810.733	28588
810.875	28367
811.016	28333
811.158	28455
811.299	28592
811.441	28664
811.582	28462
811.724	28516
811.865	28481
812.007	28401
812.148	28432
812.29	28390
812.431	28478
812.573	28767
812.714	28847
812.855	28942
812.997	29067
813.138	29083
813.279	29166
813.421	29117
813.562	29079
813.703	28790
813.845	28710
813.986	28459
814.127	28322
814.268	28299
814.41	28230
814.551	28173
814.692	28284
814.833	28109
814.974	28124
815.115	28082
815.256	27991
815.397	28048
815.539	28067
815.68	27994
815.821	27983
815.962	27975
816.103	27816
816.244	27884
816.385	27736
816.526	27701
816.666	27515
816.807	27329
816.948	27542
817.089	27656
817.23	27610
817.371	27401
817.512	27500
817.653	27454
817.793	27568
817.934	27435
818.075	27564
818.216	27473
818.356	27466
818.497	27340
818.638	27230
818.778	27294
818.919	27211
819.06	27173
819.2	27408
819.341	27568
819.481	27553
819.622	27648
819.762	27831
819.903	27671
820.043	27587
820.184	27542
820.324	27595
820.465	27618
820.605	27629
820.746	27504
820.886	27389
821.026	27648
821.167	27454
821.307	27595
821.447	27473
821.588	27310
821.728	27245
821.868	27184
822.008	26944
822.149	26971
822.289	27036
822.429	26606
822.569	26636
822.709	26598
822.849	26503
822.99	26370
823.13	26492
823.27	26366
823.41	26347
823.55	26225
823.69	26263
823.83	26259
823.97	26202
824.11	26145
824.25	25986
824.389	26031
824.529	26172
824.669	26115
824.809	26313
824.949	26157
825.089	26195
825.228	26065
825.368	25997
825.508	25997
825.648	26081
825.787	25978
825.927	26012
826.067	25909
826.206	26058
826.346	25986
826.485	25966
826.625	26142
826.765	26142
826.904	25917
827.044	25776
827.183	25674
827.323	25662
827.462	25696
827.601	25727
827.741	25655
827.88	25647
828.02	25746
828.159	25605
828.298	25742
828.437	25731
828.577	25708
828.716	25811
828.855	25609
828.994	25495
829.134	25441
829.273	25487
829.412	25327
829.551	25460
829.69	25499
829.829	25487
829.968	25499
830.107	25525
830.246	25396
830.385	25327
830.524	25247
830.663	25088
830.802	25031
830.941	24943
831.08	25061
831.219	25061
831.357	24985
831.496	25293
831.635	25046
831.774	25012
831.913	25069
832.051	24913
832.19	24932
832.329	24871
832.467	24852
832.606	24772
832.744	24703
832.883	24749
833.022	24677
833.16	24608
833.299	24711
833.437	24673
833.576	24810
833.714	24783
833.852	24852
833.991	24825
834.129	24814
834.267	25015
834.406	24749
834.544	24829
834.682	24856
834.821	24760
834.959	25004
835.097	24821
835.235	24825
835.373	24665
835.511	24681
835.65	24673
835.788	24563
835.926	24547
836.064	24441
836.202	24536
836.34	24502
836.478	24703
836.615	24661
836.753	24688
836.891	24661
837.029	24665
837.167	24601
837.305	24547
837.443	24540
837.58	24384
837.718	24494
837.856	24467
837.993	24308
838.131	24437
838.269	24334
838.406	24388
838.544	24182
838.681	24098
838.819	24163
838.956	23855
839.094	23851
839.231	23904
839.369	24041
839.506	24311
839.643	24129
839.781	23923
839.918	23843
840.055	23920
840.193	23821
840.33	23802
840.467	23855
840.604	23897
840.742	24098
840.879	23600
841.016	23661
841.153	23707
841.29	24018
841.427	23726
841.564	23832
841.701	23775
841.838	23790
841.975	23707
842.112	23638
842.249	23611
842.385	23509
842.522	23764
842.659	23547
842.796	23638
842.933	23501
843.069	23592
843.206	23459
843.343	23493
843.479	23520
843.616	23589
843.752	23398
843.889	23376
844.025	23505
844.162	23406
844.298	23391
844.435	23410
844.571	23284
844.708	23368
844.844	23486
844.98	23562
845.117	23402
845.253	23299
845.389	23147
845.525	23204
845.661	23227
845.798	23071
845.934	23147
846.07	23136
846.206	23022
846.342	23223
846.478	23064
846.614	23041
846.75	22904
846.886	22774
847.022	22801
847.158	22889
847.294	22786
847.429	22812
847.565	22790
847.701	22999
847.837	22546
847.972	22436
848.108	22634
848.244	22550
848.379	22360
848.515	22318
848.65	22367
848.786	22440
848.921	22481
849.057	22550
849.192	22287
849.328	22565
849.463	22402
849.598	22356
849.734	22219
849.869	22238
850.004	22154
850.14	22246
850.275	22181
850.41	22067
850.545	22078
850.68	22188
850.815	22109
850.95	22109
851.085	22310
851.22	22223
851.355	22173
851.49	22158
851.625	22166
851.76	22090
851.895	22158
852.03	22131
852.165	22162
852.299	22207
852.434	22147
852.569	22147
852.703	22272
852.838	22166
852.973	22253
853.107	22360
853.242	22055
853.376	22029
853.511	21785
853.645	21945
853.78	22055
853.914	21998
854.048	21918
854.183	21949
854.317	21937
854.451	22200
854.585	21975
854.72	21987
854.854	22055
854.988	22017
855.122	21873
855.256	21835
855.39	21892
855.524	22082
855.658	22025
855.792	21964
855.926	21953
856.06	22017
856.194	22074
856.327	22002
856.461	22025
856.595	21854
856.729	22150
856.862	22177
856.996	22010
857.13	22086
857.263	22070
857.397	22067
857.53	21869
857.664	22192
857.797	22032
857.931	22051
858.064	22093
858.197	22173
858.331	21968
858.464	21934
858.597	21899
858.731	21972
858.864	21903
858.997	21983
859.13	21983
859.263	22120
859.396	22101
859.529	22067
859.662	21895
859.795	21876
859.928	21983
860.061	22090
860.194	22211
860.327	22078
860.46	22090
860.592	22139
860.725	22101
860.858	22036
860.99	22074
861.123	21838
861.256	21937
861.388	22002
861.521	22698
861.653	21766
861.786	21766
861.918	21945
862.05	21907
862.183	21838
862.315	21895
862.447	21979
862.58	21915
862.712	21720
862.844	21561
862.976	21888
863.108	21781
863.24	21941
863.372	21663
863.504	21561
863.636	21641
863.768	21682
863.9	21720
864.032	21576
864.164	21660
864.296	21675
864.428	21816
864.559	21785
864.691	21789
864.823	21675
864.954	21739
865.086	21675
865.217	21564
865.349	21549
865.48	21595
865.612	21534
865.743	21717
865.875	21591
866.006	21701
866.137	21595
866.269	21519
866.4	21580
866.531	21405
866.662	21488
866.793	21367
866.924	21519
867.055	21576
867.186	21447
867.317	21511
867.448	21393
867.579	21401
867.71	21443
867.841	21412
867.972	21568
868.103	21481
868.233	21519
868.364	21450
868.495	21603
868.625	21694
868.756	21793
868.886	21526
869.017	21713
869.147	21816
869.278	21892
869.408	21701
869.539	21789
869.669	21846
869.799	21846
869.929	21888
870.06	21930
870.19	21983
870.32	22029
870.45	22029
870.58	22082
870.71	22196
870.84	22249
870.97	22078
871.1	22158
871.23	22276
871.36	22303
871.489	22188
871.619	22154
871.749	22303
871.879	22459
872.008	22497
872.138	22268
872.267	22352
872.397	22223
872.526	22093
872.656	22044
872.785	22131
872.915	22413
873.044	22489
873.173	22386
873.303	22333
873.432	22516
873.561	22504
873.69	22352
873.819	22360
873.948	22481
874.077	22310
874.206	22318
874.335	22360
874.464	22417
874.593	22588
874.722	22508
874.851	22660
874.979	22630
875.108	22489
875.237	22508
875.365	22481
875.494	22607
875.623	22557
875.751	22531
875.88	22596
876.008	22683
876.136	22759
876.265	22816
876.393	23018
876.521	22995
876.65	22957
876.778	22873
876.906	22930
877.034	22923
877.162	22786
877.29	22873
877.418	22881
877.546	22995
877.674	22889
877.802	22923
877.93	22877
878.058	22957
878.185	22729
878.313	22839
878.441	22885
878.568	22778
878.696	22828
878.824	22987
878.951	22999
879.079	23124
879.206	23223
879.333	23048
879.461	22946
879.588	23086
879.715	23265
879.842	23117
879.97	22957
880.097	22759
880.224	22763
880.351	22717
880.478	22687
880.605	22683
880.732	22656
880.859	22923
880.986	22744
881.112	22744
881.239	22519
881.366	22497
881.493	22417
881.619	22276
881.746	22295
881.872	22261
881.999	22169
882.125	22211
882.252	22219
882.378	22318
882.505	22390
882.631	22124
882.757	21937
882.883	22131
883.01	22051
883.136	21934
883.262	21892
883.388	21857
883.514	21922
883.64	21972
883.766	21972
883.892	21770
884.018	21903
884.143	21797
884.269	22048
884.395	21564
884.52	21580
884.646	21720
884.772	21523
884.897	21466
885.023	21641
885.148	21652
885.274	21770
885.399	21781
885.524	21652
885.65	21759
885.775	21717
885.9	21519
886.025	21591
886.15	21732
886.275	21568
886.4	21580
886.525	21591
886.65	21466
886.775	21542
886.9	21637
887.025	21675
887.149	21614
887.274	21355
887.399	21477
887.523	21492
887.648	21291
887.773	21211
887.897	21469
888.021	21389
888.146	21367
888.27	21473
888.395	21370
888.519	21481
888.643	21336
888.767	21401
888.891	21283
889.015	21207
889.139	21138
889.263	21154
889.387	21336
889.511	21370
889.635	21389
889.759	21074
889.883	21169
890.006	21233
890.13	21313
890.254	21199
890.377	21150
890.501	20994
890.624	20895
890.748	20967
890.871	20811
890.995	20594
891.118	20678
891.241	20750
891.364	20731
891.488	20815
891.611	20754
891.734	20777
891.857	20785
891.98	20712
892.103	20754
892.226	20625
892.349	20621
892.471	20488
892.594	20663
892.717	20632
892.839	20556
892.962	20571
893.085	20724
893.207	20667
893.33	20579
893.452	20632
893.575	20613
893.697	20602
893.819	20750
893.941	20792
894.064	20762
894.186	20556
894.308	20518
894.43	20587
894.552	20739
894.674	20678
894.796	20511
894.918	20625
895.04	20503
895.161	20758
895.283	20720
895.405	20427
895.526	20651
895.648	20640
895.769	20617
895.891	20602
896.012	20697
896.134	20731
896.255	20697
896.376	20511
896.498	20613
896.619	20727
896.74	20678
896.861	20655
896.982	20887
897.103	21062
897.224	20929
897.345	20845
897.466	20842
897.587	20804
897.708	21028
897.828	20929
897.949	20819
898.07	20792
898.19	20765
898.311	20785
898.431	20750
898.552	20868
898.672	20857
898.792	20872
898.913	20838
899.033	20701
899.153	20594
899.273	20530
899.393	20708
899.513	20606
899.633	20606
899.753	20556
899.873	20644
899.993	20575
900.113	20488
900.232	20632
900.352	20415
900.472	20469
900.591	20309
900.711	20339
900.83	20301
900.95	20476
901.069	20351
901.189	20271
901.308	19944
901.427	19909
901.546	20020
901.665	19940
901.784	19967
901.904	19715
902.023	19651
902.141	19567
902.26	19544
902.379	19449
902.498	19400
902.617	19373
902.735	19605
902.854	19476
902.973	19358
903.091	19221
903.21	19065
903.328	19084
903.446	19012
903.565	18958
903.683	18932
903.801	18848
903.919	19008
904.038	18848
904.156	18814
904.274	18658
904.392	18582
904.51	18608
904.627	18639
904.745	18760
904.863	18658
904.981	18471
905.098	18384
905.216	18357
905.334	18460
905.451	18327
905.569	18334
905.686	18380
905.803	18334
905.921	18095
906.038	18213
906.155	18167
906.272	18125
906.389	18136
906.506	17870
906.623	17874
906.74	17942
906.857	17767
906.974	17737
907.091	17863
907.208	17977
907.324	17916
907.441	17786
907.557	17547
907.674	17558
907.79	17539
907.907	17596
908.023	17604
908.139	17573
908.256	17577
908.372	17543
908.488	17505
908.604	17330
908.72	17216
908.836	17288
908.952	17269
909.068	17372
909.184	17512
909.3	17311
909.415	17296
909.531	17337
909.647	17109
909.762	17094
909.878	16968
909.993	17052
910.108	16889
910.224	16991
910.339	17033
910.454	16831
910.57	16915
910.685	16725
910.8	16957
910.915	17010
911.03	16828
911.145	16592
911.259	16565
911.374	16683
911.489	16421
911.604	16504
911.718	16447
911.833	16417
911.947	16276
912.062	16169
912.176	16325
912.291	16310
912.405	16344
912.519	16550
912.633	16428
912.748	16356
912.862	16287
912.976	16105
913.09	16093
913.204	16097
913.318	16188
913.431	16291
913.545	16242
913.659	16192
913.772	16063
913.886	16074
914	15964
914.113	15926
914.226	15998
914.34	15934
914.453	15930
914.566	15949
914.68	15907
914.793	15762
914.906	15622
915.019	15545
915.132	15401
915.245	15538
915.358	15542
915.47	15530
915.583	15542
915.696	15542
915.809	15614
915.921	15667
916.034	15435
916.146	15424
916.259	15462
916.371	15412
916.483	15435
916.595	15393
916.708	15325
916.82	15313
916.932	15283
917.044	15203
917.156	15161
917.268	15142
917.38	15283
917.491	15176
917.603	15161
917.715	15245
917.826	15252
917.938	15104
918.049	14998
918.161	15055
918.272	15298
918.384	15203
918.495	15032
918.606	15047
918.717	14918
918.828	15005
918.939	14929
919.05	14788
919.161	14918
919.272	14644
919.383	14754
919.494	14982
919.604	15135
919.715	14914
919.826	14941
919.936	14845
920.047	14880
920.157	14868
920.267	14990
920.378	14792
920.488	14811
920.598	15001
920.708	15150
920.818	15005
920.928	15066
921.038	14998
921.148	15028
921.258	14819
921.368	14724
921.477	14613
921.587	14564
921.697	14575
921.806	14659
921.916	14469
922.025	14286
922.134	14180
922.244	14248
922.353	14263
922.462	14115
922.571	14119
922.68	13921
922.789	13871
922.898	13868
923.007	13799
923.116	13868
923.224	13909
923.333	13856
923.442	13776
923.55	13719
923.659	13734
923.767	13822
923.876	13696
923.984	13590
924.092	13533
924.201	13639
924.309	13674
924.417	13636
924.525	13533
924.633	13571
924.741	14484
924.849	13358
924.956	13422
925.064	13369
925.172	13304
925.279	13194
925.387	13289
925.494	13289
925.602	13381
925.709	13308
925.816	13156
925.924	13285
926.031	13312
926.138	13152
926.245	13221
926.352	13133
926.459	13221
926.566	13285
926.673	13118
926.779	13012
926.886	13012
926.993	12871
927.099	12909
927.206	12821
927.312	12726
927.419	12844
927.525	12844
927.631	12772
927.737	12650
927.843	12608
927.95	12608
928.056	12681
928.162	12597
928.267	12696
928.373	13362
928.479	12726
928.585	12407
928.69	12593
928.796	12730
928.901	12437
929.007	12323
929.112	12521
929.218	12528
929.323	12334
929.428	12369
929.533	12441
929.638	12300
929.743	12357
929.848	12281
929.953	12323
930.058	12228
930.163	12053
930.267	12060
930.372	12224
930.477	11980
930.581	12182
930.685	12007
930.79	11946
930.894	12007
930.998	11916
931.103	12083
931.207	11718
931.311	11558
931.415	11535
931.519	11337
931.623	11296
