Data from test_V78500241_2875.txt Node
Date: Fri Mar 25 15:29:52 CST 2022
User: usil
Spectrometer: V785-0024
Trigger mode: 0
Integration Time (sec): 4.000000E-1
Scans to average: 1
Nonlinearity correction enabled: false
Boxcar width: 0
Storing dark spectrum: false
XAxis mode: Wavelengths
Number of Pixels in Spectrum: 1024
>>>>>Begin Spectral Data<<<<<
801.071	27233
801.214	27123
801.356	26967
801.499	26765
801.641	26712
801.783	26686
801.926	26731
802.068	26750
802.211	26792
802.353	26629
802.496	26598
802.638	26434
802.78	26370
802.923	26294
803.065	26286
803.208	26336
803.35	26423
803.492	26492
803.635	26530
803.777	26465
803.919	26609
804.061	26769
804.204	26648
804.346	26511
804.488	26568
804.63	26419
804.773	26434
804.915	26606
805.057	26731
805.199	26492
805.341	26473
805.483	26530
805.626	26587
805.768	26651
805.91	26689
806.052	26644
806.194	26469
806.336	26739
806.478	26579
806.62	26609
806.762	26651
806.904	26906
807.046	27241
807.188	27009
807.33	27123
807.472	27009
807.614	27043
807.756	27100
807.898	26857
808.04	26910
808.182	26921
808.324	26979
808.465	27032
808.607	27070
808.749	27329
808.891	27397
809.033	27367
809.174	27344
809.316	27237
809.458	27317
809.6	27268
809.741	27378
809.883	27462
810.025	27515
810.166	27477
810.308	27420
810.45	27439
810.591	27469
810.733	27245
810.875	27108
811.016	27199
811.158	27211
811.299	27386
811.441	27561
811.582	27249
811.724	27176
811.865	27222
812.007	27260
812.148	27150
812.29	27325
812.431	27279
812.573	27610
812.714	27625
812.855	27774
812.997	27770
813.138	28032
813.279	27876
813.421	27846
813.562	27774
813.703	27363
813.845	27439
813.986	27157
814.127	26975
814.268	27009
814.41	26956
814.551	26899
814.692	27009
814.833	26891
814.974	26910
815.115	26925
815.256	26971
815.397	26724
815.539	26777
815.68	26705
815.821	26708
815.962	26697
816.103	26743
816.244	26636
816.385	26442
816.526	26339
816.666	26202
816.807	26191
816.948	26328
817.089	26153
817.23	26161
817.371	26153
817.512	26153
817.653	26180
817.793	25993
817.934	26168
818.075	26275
818.216	26115
818.356	25986
818.497	25970
818.638	26039
818.778	25936
818.919	25868
819.06	25856
819.2	26027
819.341	26138
819.481	26035
819.622	26320
819.762	26476
819.903	26332
820.043	26248
820.184	26248
820.324	26252
820.465	26324
820.605	26248
820.746	26161
820.886	26164
821.026	26149
821.167	26096
821.307	26263
821.447	26119
821.588	25989
821.728	25890
821.868	25788
822.008	25742
822.149	25487
822.289	25696
822.429	25369
822.569	25282
822.709	25304
822.849	25152
822.99	25061
823.13	25095
823.27	25099
823.41	24943
823.55	24916
823.69	24920
823.83	25008
823.97	24932
824.11	24871
824.25	24734
824.389	24642
824.529	24795
824.669	24806
824.809	24745
824.949	24848
825.089	24817
825.228	24848
825.368	24544
825.508	24593
825.648	24589
825.787	24544
825.927	24661
826.067	24597
826.206	24525
826.346	24753
826.485	24730
826.625	24555
826.765	24692
826.904	24665
827.044	24422
827.183	24418
827.323	24342
827.462	24418
827.601	24334
827.741	24311
827.88	24369
828.02	24330
828.159	24243
828.298	24384
828.437	24391
828.577	24235
828.716	24353
828.855	24182
828.994	23946
829.134	23996
829.273	24068
829.412	23969
829.551	23889
829.69	23927
829.829	23980
829.968	24030
830.107	24041
830.246	24045
830.385	23878
830.524	23992
830.663	23866
830.802	23775
830.941	23615
831.08	23547
831.219	23661
831.357	23722
831.496	23817
831.635	23680
831.774	23554
831.913	23581
832.051	23398
832.19	23398
832.329	23459
832.467	23364
832.606	23315
832.744	23193
832.883	23383
833.022	23235
833.16	23258
833.299	23330
833.437	23349
833.576	23448
833.714	23307
833.852	23261
833.991	23265
834.129	23520
834.267	23349
834.406	23341
834.544	23383
834.682	23463
834.821	23322
834.959	23444
835.097	23265
835.235	23395
835.373	23376
835.511	23284
835.65	23368
835.788	23220
835.926	23022
836.064	23018
836.202	22976
836.34	23170
836.478	23311
836.615	23010
836.753	23159
836.891	23239
837.029	23220
837.167	23113
837.305	22987
837.443	22927
837.58	23014
837.718	22999
837.856	22934
837.993	22820
838.131	23052
838.269	22702
838.406	22896
838.544	22790
838.681	22550
838.819	22584
838.956	22459
839.094	22599
839.231	22565
839.369	22687
839.506	22866
839.643	22793
839.781	22523
839.918	22519
840.055	22405
840.193	22432
840.33	22474
840.467	22478
840.604	22371
840.742	22687
840.879	22409
841.016	22367
841.153	22257
841.29	22569
841.427	22382
841.564	22565
841.701	22379
841.838	22287
841.975	22284
842.112	22489
842.249	22314
842.385	22166
842.522	22466
842.659	22314
842.796	22147
842.933	22284
843.069	22131
843.206	22074
843.343	22272
843.479	22074
843.616	22246
843.752	21960
843.889	21956
844.025	22090
844.162	22055
844.298	22090
844.435	22021
844.571	21873
844.708	21934
844.844	22055
844.98	22173
845.117	22074
845.253	21732
845.389	21838
845.525	21899
845.661	21770
845.798	21629
845.934	21637
846.07	21739
846.206	21656
846.342	21770
846.478	21595
846.614	21561
846.75	21389
846.886	21439
847.022	21545
847.158	21405
847.294	21447
847.429	21568
847.565	21386
847.701	21599
847.837	21207
847.972	21074
848.108	21233
848.244	21199
848.379	21085
848.515	20960
848.65	21009
848.786	21161
848.921	21100
849.057	21161
849.192	21119
849.328	20963
849.463	21013
849.598	20975
849.734	20910
849.869	20944
850.004	20788
850.14	20883
850.275	20830
850.41	20785
850.545	20743
850.68	20910
850.815	20826
850.95	20769
851.085	21039
851.22	20857
851.355	20876
851.49	20750
851.625	20876
851.76	20781
851.895	20659
852.03	20777
852.165	20830
852.299	20933
852.434	20746
852.569	20899
852.703	20800
852.838	20899
852.973	20914
853.107	20891
853.242	20682
853.376	20625
853.511	20495
853.645	20438
853.78	20602
853.914	20621
854.048	20568
854.183	20568
854.317	20644
854.451	20746
854.585	20686
854.72	20659
854.854	20708
854.988	20655
855.122	20579
855.256	20552
855.39	20549
855.524	20796
855.658	20674
855.792	20552
855.926	20724
856.06	20712
856.194	20659
856.327	20568
856.461	20587
856.595	20629
856.729	20720
856.862	20777
856.996	20575
857.13	20765
857.263	20640
857.397	20697
857.53	20613
857.664	20712
857.797	20727
857.931	20705
858.064	20682
858.197	20708
858.331	20636
858.464	20575
858.597	20541
858.731	20609
858.864	20511
858.997	20617
859.13	20575
859.263	20708
859.396	20545
859.529	20564
859.662	20594
859.795	20651
859.928	20583
860.061	20674
860.194	20769
860.327	20632
860.46	20648
860.592	20697
860.725	20739
860.858	20667
860.99	20682
861.123	20518
861.256	20507
861.388	20621
861.521	21355
861.653	20419
861.786	20381
861.918	20408
862.05	20457
862.183	20507
862.315	20598
862.447	20590
862.58	20530
862.712	20423
862.844	20164
862.976	20423
863.108	20374
863.24	20872
863.372	20347
863.504	20404
863.636	20218
863.768	20328
863.9	20271
864.032	20309
864.164	20275
864.296	20324
864.428	20339
864.559	20324
864.691	20412
864.823	20244
864.954	20187
865.086	20286
865.217	20229
865.349	20092
865.48	20301
865.612	20278
865.743	20210
865.875	20248
866.006	20275
866.137	20267
866.269	20134
866.4	20161
866.531	20103
866.662	20088
866.793	20161
866.924	20248
867.055	20210
867.186	20248
867.317	20100
867.448	20142
867.579	20176
867.71	19970
867.841	20096
867.972	20138
868.103	20130
868.233	20107
868.364	20168
868.495	20176
868.625	20389
868.756	20457
868.886	20309
869.017	20412
869.147	20476
869.278	20476
869.408	20351
869.539	20419
869.669	20602
869.799	20400
869.929	20492
870.06	20503
870.19	20678
870.32	20644
870.45	20613
870.58	20773
870.71	20861
870.84	21043
870.97	20727
871.1	20762
871.23	20956
871.36	21062
871.489	20895
871.619	20963
871.749	21036
871.879	21028
872.008	21062
872.138	20944
872.267	21001
872.397	20952
872.526	20769
872.656	20880
872.785	20868
872.915	20975
873.044	21074
873.173	21081
873.303	21062
873.432	21096
873.561	21116
873.69	21085
873.819	21017
873.948	21195
874.077	21051
874.206	20960
874.335	20929
874.464	21024
874.593	21249
874.722	21165
874.851	21249
874.979	21275
875.108	21256
875.237	21218
875.365	21359
875.494	21310
875.623	21336
875.751	21306
875.88	21370
876.008	21393
876.136	21389
876.265	21690
876.393	21831
876.521	21667
876.65	21816
876.778	21641
876.906	21694
877.034	21538
877.162	21610
877.29	21523
877.418	21663
877.546	21686
877.674	21603
877.802	21709
877.93	21637
878.058	21542
878.185	21526
878.313	21561
878.441	21553
878.568	21454
878.696	21530
878.824	21625
878.951	21507
879.079	21770
879.206	21770
879.333	21770
879.461	21652
879.588	21759
879.715	21819
879.842	21907
879.97	21644
880.097	21515
880.224	21515
880.351	21367
880.478	21454
880.605	21576
880.732	21401
880.859	21724
880.986	21424
881.112	21428
881.239	21408
881.366	21123
881.493	21157
881.619	20967
881.746	21081
881.872	20906
881.999	21096
882.125	20948
882.252	21142
882.378	21062
882.505	21100
882.631	20876
882.757	20750
882.883	20826
883.01	20857
883.136	20758
883.262	20629
883.388	20518
883.514	20746
883.64	20625
883.766	20705
883.892	20587
884.018	20625
884.143	20629
884.269	20777
884.395	20431
884.52	20366
884.646	20343
884.772	20267
884.897	20393
885.023	20366
885.148	20488
885.274	20568
885.399	20419
885.524	20396
885.65	20362
885.775	20431
885.9	20278
886.025	20461
886.15	20476
886.275	20355
886.4	20313
886.525	20336
886.65	20313
886.775	20301
886.9	20549
887.025	20579
887.149	20374
887.274	20259
887.399	20191
887.523	20122
887.648	20092
887.773	20103
887.897	20187
888.021	20214
888.146	20130
888.27	20187
888.395	20248
888.519	20168
888.643	20240
888.767	20149
888.891	20077
889.015	19890
889.139	19970
889.263	20027
889.387	20153
889.511	20180
889.635	20111
889.759	19986
889.883	20043
890.006	19932
890.13	20050
890.254	19906
890.377	19898
890.501	19765
890.624	19704
890.748	19784
890.871	19609
890.995	19597
891.118	19415
891.241	19563
891.364	19632
891.488	19601
891.611	19552
891.734	19677
891.857	19571
891.98	19563
892.103	19548
892.226	19616
892.349	19495
892.471	19373
892.594	19464
892.717	19514
892.839	19430
892.962	19483
893.085	19582
893.207	19559
893.33	19240
893.452	19396
893.575	19506
893.697	19422
893.819	19624
893.941	19635
894.064	19594
894.186	19415
894.308	19392
894.43	19537
894.552	19655
894.674	19495
894.796	19282
894.918	19411
895.04	19396
895.161	19460
895.283	19605
895.405	19411
895.526	19434
895.648	19388
895.769	19594
895.891	19544
896.012	19548
896.134	19529
896.255	19548
896.376	19422
896.498	19426
896.619	19510
896.74	19346
896.861	19559
896.982	19788
897.103	20039
897.224	19750
897.345	19841
897.466	19689
897.587	19655
897.708	19826
897.828	19704
897.949	19666
898.07	19483
898.19	19685
898.311	19750
898.431	19635
898.552	19693
898.672	19746
898.792	19852
898.913	19757
899.033	19552
899.153	19464
899.273	19415
899.393	19476
899.513	19533
899.633	19571
899.753	19491
899.873	19403
899.993	19533
900.113	19430
900.232	19582
900.352	19403
900.472	19392
900.591	19282
900.711	19316
900.83	19198
900.95	19354
901.069	19297
901.189	19103
901.308	18863
901.427	18863
901.546	18859
901.665	18856
901.784	18840
901.904	18715
902.023	18646
902.141	18433
902.26	18441
902.379	18467
902.498	18429
902.617	18346
902.735	18369
902.854	18308
902.973	18277
903.091	18201
903.21	18133
903.328	18095
903.446	17992
903.565	17912
903.683	17954
903.801	17798
903.919	17756
904.038	17805
904.156	17615
904.274	17684
904.392	17672
904.51	17619
904.627	17646
904.745	17691
904.863	17680
904.981	17512
905.098	17303
905.216	17242
905.334	17326
905.451	17349
905.569	17216
905.686	17322
905.803	17288
905.921	17045
906.038	17269
906.155	17067
906.272	17064
906.389	17060
906.506	16713
906.623	16980
906.74	16915
906.857	16820
906.974	16790
907.091	16858
907.208	17006
907.324	16866
907.441	16748
907.557	16538
907.674	16618
907.79	16508
907.907	16512
908.023	16717
908.139	16565
908.256	16500
908.372	16409
908.488	16481
908.604	16348
908.72	16424
908.836	16329
908.952	16306
909.068	16322
909.184	16375
909.3	16333
909.415	16432
909.531	16223
909.647	16128
909.762	15960
909.878	16036
909.993	15915
910.108	16017
910.224	16044
910.339	15972
910.454	15861
910.57	15876
910.685	15831
910.8	15930
910.915	15960
911.03	15800
911.145	15751
911.259	15625
911.374	15622
911.489	15477
911.604	15424
911.718	15443
911.833	15420
911.947	15298
912.062	15222
912.176	15336
912.291	15462
912.405	15401
912.519	15523
912.633	15481
912.748	15447
912.862	15374
912.976	15135
913.09	15062
913.204	15119
913.318	15180
913.431	15241
913.545	15184
913.659	15245
913.772	15161
913.886	15074
914	14952
914.113	15036
914.226	15085
914.34	14979
914.453	14815
914.566	14982
914.68	14956
914.793	14842
914.906	14670
915.019	14640
915.132	14552
915.245	14571
915.358	14655
915.47	14484
915.583	14568
915.696	14560
915.809	14750
915.921	14648
916.034	14579
916.146	14503
916.259	14606
916.371	14606
916.483	14469
916.595	14473
916.708	14492
916.82	14499
916.932	14465
917.044	14408
917.156	14404
917.268	14294
917.38	14427
917.491	14233
917.603	14355
917.715	14351
917.826	14362
917.938	14240
918.049	14275
918.161	14328
918.272	14339
918.384	14252
918.495	14183
918.606	14088
918.717	13993
918.828	14031
918.939	14050
919.05	13993
919.161	14081
919.272	13791
919.383	13883
919.494	13993
919.604	14313
919.715	13967
919.826	13978
919.936	14043
920.047	14088
920.157	14035
920.267	14195
920.378	14046
920.488	13890
920.598	14199
920.708	14393
920.818	14176
920.928	14123
921.038	14294
921.148	14256
921.258	13959
921.368	13925
921.477	13784
921.587	13708
921.697	13643
921.806	13784
921.916	13700
922.025	13529
922.134	13426
922.244	13381
922.353	13468
922.462	13335
922.571	13266
922.68	13179
922.789	13061
922.898	13065
923.007	13053
923.116	13099
923.224	13057
923.333	12996
923.442	12962
923.55	12894
923.659	12878
923.767	12894
923.876	12848
923.984	13046
924.092	12768
924.201	12825
924.309	12810
924.417	12779
924.525	12757
924.633	12806
924.741	13731
924.849	12521
924.956	12650
925.064	12616
925.172	12429
925.279	12437
925.387	12551
925.494	12471
925.602	12749
925.709	12502
925.816	12483
925.924	12414
926.031	12559
926.138	12471
926.245	12532
926.352	12441
926.459	12445
926.566	12563
926.673	12357
926.779	12216
926.886	12213
926.993	12159
927.099	12060
927.206	12072
927.312	12034
927.419	12106
927.525	12083
927.631	12102
927.737	12114
927.843	11977
927.95	11851
928.056	11859
928.162	11847
928.267	11988
928.373	12563
928.479	11927
928.585	11794
928.69	11893
928.796	11984
928.901	11741
929.007	11646
929.112	11786
929.218	11809
929.323	11688
929.428	11665
929.533	11813
929.638	11592
929.743	11566
929.848	11707
929.953	11623
930.058	11467
930.163	11326
930.267	11410
930.372	11524
930.477	11227
930.581	11577
930.685	11376
930.79	11178
930.894	11261
930.998	11254
931.103	11330
931.207	11102
931.311	10911
931.415	10782
931.519	10637
931.623	10672
