Data from test_V78500241_1530.txt Node
Date: Fri Mar 25 15:20:30 CST 2022
User: usil
Spectrometer: V785-0024
Trigger mode: 0
Integration Time (sec): 4.000000E-1
Scans to average: 1
Nonlinearity correction enabled: false
Boxcar width: 0
Storing dark spectrum: false
XAxis mode: Wavelengths
Number of Pixels in Spectrum: 1024
>>>>>Begin Spectral Data<<<<<
801.071	28055
801.214	28032
801.356	27762
801.499	27724
801.641	27500
801.783	27477
801.926	27553
802.068	27572
802.211	27576
802.353	27595
802.496	27287
802.638	27195
802.78	27275
802.923	27268
803.065	27104
803.208	27100
803.35	27237
803.492	27359
803.635	27416
803.777	27298
803.919	27416
804.061	27854
804.204	27511
804.346	27450
804.488	27386
804.63	27496
804.773	27332
804.915	27424
805.057	27492
805.199	27481
805.341	27591
805.483	27523
805.626	27492
805.768	27466
805.91	27534
806.052	27568
806.194	27450
806.336	27736
806.478	27656
806.62	27583
806.762	27701
806.904	27888
807.046	28150
807.188	27934
807.33	27880
807.472	28082
807.614	27899
807.756	27960
807.898	27831
808.04	27846
808.182	27736
808.324	27880
808.465	27827
808.607	27994
808.749	28128
808.891	28382
809.033	28253
809.174	28246
809.316	28253
809.458	28112
809.6	28238
809.741	28440
809.883	28398
810.025	28672
810.166	28561
810.308	28508
810.45	28462
810.591	28284
810.733	28333
810.875	28192
811.016	28059
811.158	28112
811.299	28261
811.441	28367
811.582	28352
811.724	28246
811.865	28204
812.007	28055
812.148	28268
812.29	28284
812.431	28451
812.573	28462
812.714	28733
812.855	28752
812.997	28873
813.138	29018
813.279	28972
813.421	28809
813.562	28725
813.703	28767
813.845	28516
813.986	28276
814.127	28101
814.268	27861
814.41	28017
814.551	27827
814.692	27884
814.833	27979
814.974	28090
815.115	27895
815.256	27732
815.397	27713
815.539	27850
815.68	27701
815.821	27694
815.962	27759
816.103	27663
816.244	27603
816.385	27416
816.526	27378
816.666	27412
816.807	27093
816.948	27283
817.089	27317
817.23	27214
817.371	27192
817.512	27112
817.653	27211
817.793	27112
817.934	27237
818.075	27249
818.216	27313
818.356	27176
818.497	27096
818.638	26880
818.778	26902
818.919	26979
819.06	27127
819.2	27001
819.341	27157
819.481	27100
819.622	27291
819.762	27526
819.903	27382
820.043	27302
820.184	27363
820.324	27272
820.465	27496
820.605	27348
820.746	27264
820.886	27230
821.026	27378
821.167	27214
821.307	27310
821.447	27214
821.588	26975
821.728	26853
821.868	26773
822.008	26708
822.149	26594
822.289	26587
822.429	26377
822.569	26396
822.709	26351
822.849	26073
822.99	26103
823.13	26092
823.27	26115
823.41	25894
823.55	25814
823.69	26020
823.83	26084
823.97	25951
824.11	25784
824.25	25677
824.389	25818
824.529	25864
824.669	25731
824.809	25845
824.949	25837
825.089	25940
825.228	25860
825.368	25765
825.508	25742
825.648	25616
825.787	25708
825.927	25738
826.067	25632
826.206	25727
826.346	25727
826.485	25651
826.625	25666
826.765	25677
826.904	25666
827.044	25415
827.183	25586
827.323	25419
827.462	25434
827.601	25468
827.741	25339
827.88	25316
828.02	25324
828.159	25324
828.298	25297
828.437	25396
828.577	25388
828.716	25453
828.855	25236
828.994	25088
829.134	25061
829.273	25126
829.412	24989
829.551	24954
829.69	24973
829.829	25095
829.968	25126
830.107	25148
830.246	25107
830.385	25019
830.524	25031
830.663	24772
830.802	24745
830.941	24787
831.08	24616
831.219	24783
831.357	24848
831.496	24859
831.635	24772
831.774	24540
831.913	24692
832.051	24566
832.19	24525
832.329	24566
832.467	24498
832.606	24327
832.744	24334
832.883	24441
833.022	24289
833.16	24490
833.299	24414
833.437	24372
833.576	24483
833.714	24448
833.852	24483
833.991	24498
834.129	24471
834.267	24582
834.406	24369
834.544	24407
834.682	24456
834.821	24460
834.959	24551
835.097	24395
835.235	24494
835.373	24540
835.511	24270
835.65	24319
835.788	24365
835.926	24224
836.064	24114
836.202	24121
836.34	24388
836.478	24315
836.615	24235
836.753	24273
836.891	24437
837.029	24315
837.167	24330
837.305	24289
837.443	24136
837.58	24117
837.718	24064
837.856	24247
837.993	23973
838.131	23980
838.269	23931
838.406	24060
838.544	23874
838.681	23828
838.819	23817
838.956	23463
839.094	23600
839.231	23528
839.369	23783
839.506	23950
839.643	23802
839.781	23535
839.918	23429
840.055	23524
840.193	23478
840.33	23497
840.467	23619
840.604	23539
840.742	23710
840.879	23406
841.016	23459
841.153	23364
841.29	23490
841.427	23497
841.564	23653
841.701	23459
841.838	23505
841.975	23330
842.112	23307
842.249	23269
842.385	23284
842.522	23463
842.659	23303
842.796	23185
842.933	23174
843.069	23178
843.206	23090
843.343	23322
843.479	23189
843.616	23239
843.752	23060
843.889	23060
844.025	23181
844.162	22999
844.298	23143
844.435	23010
844.571	23090
844.708	23029
844.844	23212
844.98	23090
845.117	23064
845.253	22987
845.389	22908
845.525	22797
845.661	22843
845.798	22729
845.934	22824
846.07	22763
846.206	22694
846.342	22847
846.478	22675
846.614	22546
846.75	22523
846.886	22459
847.022	22630
847.158	22504
847.294	22478
847.429	22538
847.565	22573
847.701	22702
847.837	22329
847.972	22177
848.108	22329
848.244	22325
848.379	22185
848.515	22147
848.65	22162
848.786	22029
848.921	22048
849.057	22135
849.192	22147
849.328	22048
849.463	22086
849.598	21956
849.734	21895
849.869	21850
850.004	21869
850.14	21880
850.275	21987
850.41	21793
850.545	21804
850.68	21660
850.815	21850
850.95	21857
851.085	21934
851.22	21934
851.355	21903
851.49	21827
851.625	21804
851.76	21804
851.895	21804
852.03	21797
852.165	21770
852.299	21846
852.434	21899
852.569	21819
852.703	21808
852.838	21903
852.973	21888
853.107	21880
853.242	21739
853.376	21488
853.511	21629
853.645	21629
853.78	21747
853.914	21660
854.048	21701
854.183	21568
854.317	21671
854.451	21804
854.585	21637
854.72	21629
854.854	21698
854.988	21644
855.122	21587
855.256	21431
855.39	21591
855.524	21778
855.658	21690
855.792	21637
855.926	21679
856.06	21747
856.194	21675
856.327	21656
856.461	21519
856.595	21477
856.729	21587
856.862	21739
856.996	21652
857.13	21701
857.263	21675
857.397	21675
857.53	21652
857.664	21709
857.797	21603
857.931	21751
858.064	21671
858.197	21739
858.331	21660
858.464	21610
858.597	21599
858.731	21656
858.864	21652
858.997	21526
859.13	21595
859.263	21671
859.396	21789
859.529	21675
859.662	21633
859.795	21625
859.928	21614
860.061	21736
860.194	21759
860.327	21724
860.46	21595
860.592	21713
860.725	21774
860.858	21755
860.99	21606
861.123	21416
861.256	21595
861.388	21561
861.521	22379
861.653	21511
861.786	21363
861.918	21496
862.05	21515
862.183	21679
862.315	21545
862.447	21625
862.58	21481
862.712	21370
862.844	21302
862.976	21386
863.108	21469
863.24	21778
863.372	21298
863.504	21492
863.636	21218
863.768	21401
863.9	21431
864.032	21363
864.164	21252
864.296	21336
864.428	21496
864.559	21492
864.691	21507
864.823	21332
864.954	21302
865.086	21306
865.217	21283
865.349	21047
865.48	21093
865.612	21283
865.743	21302
865.875	21245
866.006	21131
866.137	21275
866.269	21226
866.4	21332
866.531	21169
866.662	21173
866.793	21116
866.924	21070
867.055	21203
867.186	21116
867.317	21104
867.448	21142
867.579	21154
867.71	21039
867.841	21138
867.972	21142
868.103	21157
868.233	21146
868.364	21112
868.495	21230
868.625	21420
868.756	21515
868.886	21370
869.017	21344
869.147	21454
869.278	21545
869.408	21374
869.539	21408
869.669	21348
869.799	21424
869.929	21538
870.06	21462
870.19	21759
870.32	21778
870.45	21736
870.58	21690
870.71	21857
870.84	21861
870.97	21747
871.1	21907
871.23	21903
871.36	22006
871.489	21926
871.619	21960
871.749	22040
871.879	21930
872.008	22154
872.138	22048
872.267	21975
872.397	21861
872.526	21759
872.656	21922
872.785	21888
872.915	22055
873.044	22135
873.173	22048
873.303	22063
873.432	22032
873.561	21998
873.69	22002
873.819	22059
873.948	22109
874.077	21918
874.206	22044
874.335	22044
874.464	22036
874.593	22272
874.722	22105
874.851	22386
874.979	22344
875.108	22200
875.237	22154
875.365	22112
875.494	22253
875.623	22272
875.751	22185
875.88	22268
876.008	22261
876.136	22459
876.265	22523
876.393	22733
876.521	22793
876.65	22683
876.778	22641
876.906	22512
877.034	22538
877.162	22470
877.29	22382
877.418	22653
877.546	22592
877.674	22489
877.802	22649
877.93	22664
878.058	22637
878.185	22375
878.313	22443
878.441	22485
878.568	22413
878.696	22523
878.824	22599
878.951	22649
879.079	22740
879.206	22835
879.333	22698
879.461	22653
879.588	22675
879.715	22710
879.842	22953
879.97	22656
880.097	22421
880.224	22413
880.351	22440
880.478	22455
880.605	22318
880.732	22489
880.859	22516
880.986	22352
881.112	22413
881.239	22257
881.366	22177
881.493	22036
881.619	22070
881.746	21994
881.872	21956
881.999	21941
882.125	21838
882.252	21991
882.378	21998
882.505	22010
882.631	21838
882.757	21778
882.883	21679
883.01	21705
883.136	21663
883.262	21534
883.388	21439
883.514	21679
883.64	21637
883.766	21595
883.892	21374
884.018	21511
884.143	21557
884.269	21610
884.395	21412
884.52	21294
884.646	21313
884.772	21283
884.897	21161
885.023	21207
885.148	21496
885.274	21477
885.399	21424
885.524	21332
885.65	21306
885.775	21298
885.9	21306
886.025	21538
886.15	21306
886.275	21264
886.4	21272
886.525	21260
886.65	21161
886.775	21241
886.9	21355
887.025	21462
887.149	21313
887.274	21100
887.399	21161
887.523	21074
887.648	21017
887.773	21005
887.897	21081
888.021	20975
888.146	21013
888.27	21211
888.395	21062
888.519	21135
888.643	20998
888.767	21062
888.891	20944
889.015	20918
889.139	20952
889.263	20861
889.387	20952
889.511	20952
889.635	20925
889.759	20815
889.883	20830
890.006	20891
890.13	20910
890.254	20651
890.377	20834
890.501	20621
890.624	20549
890.748	20541
890.871	20461
890.995	20427
891.118	20381
891.241	20415
891.364	20427
891.488	20530
891.611	20419
891.734	20385
891.857	20484
891.98	20427
892.103	20450
892.226	20499
892.349	20385
892.471	20252
892.594	20324
892.717	20317
892.839	20317
892.962	20218
893.085	20454
893.207	20221
893.33	20126
893.452	20278
893.575	20298
893.697	20115
893.819	20492
893.941	20514
894.064	20480
894.186	20294
894.308	20259
894.43	20355
894.552	20423
894.674	20313
894.796	20218
894.918	20237
895.04	20180
895.161	20396
895.283	20332
895.405	20309
895.526	20351
895.648	20263
895.769	20377
895.891	20396
896.012	20343
896.134	20309
896.255	20381
896.376	20351
896.498	20218
896.619	20332
896.74	20351
896.861	20457
896.982	20632
897.103	20804
897.224	20495
897.345	20594
897.466	20419
897.587	20511
897.708	20663
897.828	20473
897.949	20495
898.07	20484
898.19	20492
898.311	20606
898.431	20507
898.552	20495
898.672	20518
898.792	20579
898.913	20587
899.033	20412
899.153	20347
899.273	20286
899.393	20389
899.513	20248
899.633	20271
899.753	20374
899.873	20233
899.993	20259
900.113	20149
900.232	20263
900.352	20206
900.472	20020
900.591	20012
900.711	20081
900.83	20001
900.95	20119
901.069	20176
901.189	19936
901.308	19700
901.427	19548
901.546	19620
901.665	19719
901.784	19628
901.904	19472
902.023	19396
902.141	19221
902.26	19179
902.379	19259
902.498	19217
902.617	19088
902.735	19190
902.854	19107
902.973	19038
903.091	18821
903.21	18772
903.328	18798
903.446	18639
903.565	18635
903.683	18521
903.801	18471
903.919	18616
904.038	18563
904.156	18513
904.274	18437
904.392	18422
904.51	18365
904.627	18266
904.745	18513
904.863	18361
904.981	18102
905.098	18049
905.216	18011
905.334	18095
905.451	18022
905.569	18117
905.686	18095
905.803	17912
905.921	17851
906.038	17836
906.155	17885
906.272	17710
906.389	17630
906.506	17516
906.623	17661
906.74	17497
906.857	17585
906.974	17547
907.091	17627
907.208	17627
907.324	17668
907.441	17471
907.557	17398
907.674	17303
907.79	17284
907.907	17277
908.023	17425
908.139	17231
908.256	17296
908.372	17193
908.488	17174
908.604	17064
908.72	16991
908.836	16995
908.952	16946
909.068	17014
909.184	17140
909.3	16911
909.415	17117
909.531	16991
909.647	16740
909.762	16862
909.878	16698
909.993	16748
910.108	16729
910.224	16729
910.339	16649
910.454	16535
910.57	16527
910.685	16519
910.8	16793
910.915	16691
911.03	16466
911.145	16287
911.259	16219
911.374	16249
911.489	16207
911.604	16147
911.718	16086
911.833	16120
911.947	15983
912.062	15755
912.176	16055
912.291	15983
912.405	16059
912.519	16158
912.633	16257
912.748	16105
912.862	15994
912.976	15934
913.09	15785
913.204	15812
913.318	15800
913.431	15911
913.545	15907
913.659	15975
913.772	15785
913.886	15599
914	15709
914.113	15701
914.226	15827
914.34	15663
914.453	15614
914.566	15720
914.68	15629
914.793	15496
914.906	15294
915.019	15302
915.132	15241
915.245	15214
915.358	15207
915.47	15283
915.583	15245
915.696	15340
915.809	15336
915.921	15317
916.034	15138
916.146	15100
916.259	15119
916.371	15249
916.483	15207
916.595	15131
916.708	15058
916.82	15074
916.932	14960
917.044	15047
917.156	15039
917.268	14804
917.38	14868
917.491	14883
917.603	14960
917.715	14918
917.826	15062
917.938	14883
918.049	14815
918.161	14948
918.272	14994
918.384	14948
918.495	14861
918.606	14613
918.717	14613
918.828	14758
918.939	14678
919.05	14590
919.161	14648
919.272	14457
919.383	14492
919.494	14678
919.604	14895
919.715	14701
919.826	14552
919.936	14606
920.047	14735
920.157	14571
920.267	14769
920.378	14663
920.488	14590
920.598	14853
920.708	14982
920.818	14739
920.928	14716
921.038	14845
921.148	14887
921.258	14697
921.368	14389
921.477	14351
921.587	14343
921.697	14221
921.806	14358
921.916	14229
922.025	13989
922.134	13909
922.244	14008
922.353	13928
922.462	13879
922.571	13845
922.68	13624
922.789	13681
922.898	13658
923.007	13632
923.116	13666
923.224	13658
923.333	13662
923.442	13510
923.55	13483
923.659	13544
923.767	13483
923.876	13453
923.984	13495
924.092	13362
924.201	13434
924.309	13316
924.417	13419
924.525	13308
924.633	13335
924.741	14054
924.849	13160
924.956	13198
925.064	13023
925.172	13069
925.279	13000
925.387	12954
925.494	13065
925.602	13107
925.709	13046
925.816	12993
925.924	13031
926.031	13012
926.138	12993
926.245	13004
926.352	12939
926.459	13103
926.566	13012
926.673	12897
926.779	12726
926.886	12795
926.993	12578
927.099	12601
927.206	12517
927.312	12498
927.419	12688
927.525	12604
927.631	12604
927.737	12604
927.843	12384
927.95	12361
928.056	12399
928.162	12433
928.267	12460
928.373	13031
928.479	12498
928.585	12232
928.69	12369
928.796	12418
928.901	12323
929.007	12232
929.112	12296
929.218	12304
929.323	12121
929.428	12201
929.533	12289
929.638	12076
929.743	12152
929.848	12182
929.953	12091
930.058	12060
930.163	11771
930.267	11885
930.372	11977
930.477	11771
930.581	12079
930.685	11927
930.79	11638
930.894	11897
930.998	11756
931.103	11889
931.207	11448
931.311	11406
931.415	11337
931.519	11014
931.623	11159
