Data from test_V78500241_2854.txt Node
Date: Fri Mar 25 15:29:44 CST 2022
User: usil
Spectrometer: V785-0024
Trigger mode: 0
Integration Time (sec): 4.000000E-1
Scans to average: 1
Nonlinearity correction enabled: false
Boxcar width: 0
Storing dark spectrum: false
XAxis mode: Wavelengths
Number of Pixels in Spectrum: 1024
>>>>>Begin Spectral Data<<<<<
801.071	27245
801.214	27047
801.356	27013
801.499	26956
801.641	26746
801.783	26845
801.926	26838
802.068	26857
802.211	26724
802.353	26716
802.496	26484
802.638	26484
802.78	26503
802.923	26336
803.065	26256
803.208	26377
803.35	26457
803.492	26545
803.635	26606
803.777	26465
803.919	26648
804.061	26811
804.204	26716
804.346	26492
804.488	26450
804.63	26571
804.773	26484
804.915	26583
805.057	26575
805.199	26579
805.341	26636
805.483	26758
805.626	26739
805.768	26598
805.91	26629
806.052	26815
806.194	26575
806.336	26845
806.478	26701
806.62	26617
806.762	26777
806.904	26963
807.046	27192
807.188	26986
807.33	27085
807.472	27241
807.614	27108
807.756	26929
807.898	26994
808.04	27005
808.182	27081
808.324	27074
808.465	27001
808.607	27192
808.749	27382
808.891	27393
809.033	27348
809.174	27378
809.316	27233
809.458	27496
809.6	27233
809.741	27405
809.883	27382
810.025	27534
810.166	27580
810.308	27679
810.45	27466
810.591	27504
810.733	27374
810.875	27272
811.016	27275
811.158	27237
811.299	27332
811.441	27523
811.582	27412
811.724	27211
811.865	27116
812.007	27241
812.148	27294
812.29	27386
812.431	27549
812.573	27641
812.714	27766
812.855	27838
812.997	27903
813.138	28097
813.279	27934
813.421	27808
813.562	27751
813.703	27625
813.845	27523
813.986	27279
814.127	27093
814.268	26944
814.41	26838
814.551	26872
814.692	27043
814.833	26857
814.974	26929
815.115	27081
815.256	26796
815.397	26864
815.539	26777
815.68	26716
815.821	26613
815.962	26758
816.103	26765
816.244	26686
816.385	26537
816.526	26533
816.666	26328
816.807	26138
816.948	26301
817.089	26221
817.23	26153
817.371	26214
817.512	26122
817.653	26183
817.793	26058
817.934	26332
818.075	26362
818.216	26248
818.356	26088
818.497	26138
818.638	26020
818.778	25974
818.919	26005
819.06	26024
819.2	26043
819.341	26275
819.481	26248
819.622	26381
819.762	26423
819.903	26377
820.043	26339
820.184	26320
820.324	26259
820.465	26347
820.605	26313
820.746	26199
820.886	26145
821.026	26199
821.167	26225
821.307	26396
821.447	26248
821.588	25986
821.728	26039
821.868	25788
822.008	25731
822.149	25670
822.289	25666
822.429	25422
822.569	25411
822.709	25354
822.849	25244
822.99	25103
823.13	25160
823.27	25133
823.41	25042
823.55	24886
823.69	24981
823.83	24894
823.97	25038
824.11	24757
824.25	24935
824.389	24798
824.529	24894
824.669	24726
824.809	24924
824.949	24901
825.089	24837
825.228	24776
825.368	24726
825.508	24776
825.648	24711
825.787	24696
825.927	24776
826.067	24684
826.206	24627
826.346	24779
826.485	24791
826.625	24692
826.765	24859
826.904	24635
827.044	24517
827.183	24517
827.323	24239
827.462	24505
827.601	24342
827.741	24376
827.88	24490
828.02	24277
828.159	24399
828.298	24376
828.437	24460
828.577	24315
828.716	24395
828.855	24266
828.994	24102
829.134	24045
829.273	24049
829.412	24072
829.551	23916
829.69	24110
829.829	24144
829.968	24152
830.107	24057
830.246	23988
830.385	24022
830.524	23958
830.663	23866
830.802	23859
830.941	23794
831.08	23703
831.219	23737
831.357	23722
831.496	23817
831.635	23737
831.774	23551
831.913	23649
832.051	23577
832.19	23417
832.329	23433
832.467	23406
832.606	23379
832.744	23345
832.883	23391
833.022	23364
833.16	23326
833.299	23326
833.437	23376
833.576	23326
833.714	23391
833.852	23512
833.991	23452
834.129	23433
834.267	23509
834.406	23368
834.544	23421
834.682	23444
834.821	23398
834.959	23672
835.097	23334
835.235	23448
835.373	23360
835.511	23292
835.65	23208
835.788	23421
835.926	23197
836.064	23090
836.202	23102
836.34	23284
836.478	23376
836.615	23273
836.753	23159
836.891	23345
837.029	23273
837.167	23200
837.305	23086
837.443	23060
837.58	22991
837.718	23227
837.856	23124
837.993	22938
838.131	23067
838.269	22942
838.406	23037
838.544	22889
838.681	22759
838.819	22672
838.956	22653
839.094	22550
839.231	22424
839.369	22759
839.506	23003
839.643	22759
839.781	22577
839.918	22561
840.055	22656
840.193	22466
840.33	22565
840.467	22478
840.604	22402
840.742	22729
840.879	22390
841.016	22382
841.153	22348
841.29	22531
841.427	22417
841.564	22592
841.701	22386
841.838	22523
841.975	22421
842.112	22405
842.249	22284
842.385	22417
842.522	22493
842.659	22219
842.796	22169
842.933	22325
843.069	22272
843.206	22226
843.343	22257
843.479	22299
843.616	22348
843.752	22040
843.889	22055
844.025	22226
844.162	21945
844.298	22139
844.435	21960
844.571	21968
844.708	21930
844.844	22124
844.98	22044
845.117	22120
845.253	21903
845.389	21838
845.525	21857
845.661	21994
845.798	21842
845.934	21800
846.07	21797
846.206	21736
846.342	21892
846.478	21682
846.614	21599
846.75	21477
846.886	21591
847.022	21496
847.158	21462
847.294	21447
847.429	21507
847.565	21458
847.701	21793
847.837	21249
847.972	21146
848.108	21298
848.244	21291
848.379	21043
848.515	21135
848.65	21062
848.786	21081
848.921	20967
849.057	21233
849.192	21226
849.328	21127
849.463	20979
849.598	21055
849.734	20975
849.869	20845
850.004	20792
850.14	20948
850.275	20933
850.41	20796
850.545	20857
850.68	20864
850.815	20880
850.95	20956
851.085	21036
851.22	21020
851.355	20918
851.49	20804
851.625	20937
851.76	20804
851.895	20800
852.03	20689
852.165	20823
852.299	20967
852.434	20895
852.569	20963
852.703	20792
852.838	20918
852.973	20834
853.107	20899
853.242	20845
853.376	20708
853.511	20549
853.645	20617
853.78	20807
853.914	20617
854.048	20625
854.183	20636
854.317	20712
854.451	20735
854.585	20659
854.72	20636
854.854	20781
854.988	20575
855.122	20712
855.256	20507
855.39	20632
855.524	20762
855.658	20693
855.792	20727
855.926	20708
856.06	20758
856.194	20743
856.327	20632
856.461	20629
856.595	20682
856.729	20564
856.862	20765
856.996	20701
857.13	20750
857.263	20830
857.397	20731
857.53	20556
857.664	20697
857.797	20644
857.931	20762
858.064	20716
858.197	20769
858.331	20583
858.464	20636
858.597	20640
858.731	20640
858.864	20606
858.997	20552
859.13	20670
859.263	20674
859.396	20697
859.529	20648
859.662	20651
859.795	20629
859.928	20754
860.061	20716
860.194	20899
860.327	20693
860.46	20636
860.592	20815
860.725	20735
860.858	20796
860.99	20712
861.123	20609
861.256	20598
861.388	20617
861.521	21336
861.653	20613
861.786	20575
861.918	20499
862.05	20598
862.183	20651
862.315	20663
862.447	20674
862.58	20431
862.712	20419
862.844	20355
862.976	20530
863.108	20503
863.24	20811
863.372	20419
863.504	20431
863.636	20408
863.768	20362
863.9	20362
864.032	20298
864.164	20355
864.296	20366
864.428	20457
864.559	20465
864.691	20457
864.823	20499
864.954	20336
865.086	20377
865.217	20248
865.349	20149
865.48	20343
865.612	20202
865.743	20404
865.875	20362
866.006	20259
866.137	20278
866.269	20309
866.4	20374
866.531	20225
866.662	20332
866.793	20256
866.924	20134
867.055	20286
867.186	20210
867.317	20153
867.448	20088
867.579	20153
867.71	20210
867.841	20172
867.972	20275
868.103	20240
868.233	20282
868.364	20225
868.495	20389
868.625	20408
868.756	20533
868.886	20427
869.017	20438
869.147	20526
869.278	20571
869.408	20446
869.539	20545
869.669	20473
869.799	20571
869.929	20598
870.06	20518
870.19	20807
870.32	20701
870.45	20830
870.58	20876
870.71	20944
870.84	20948
870.97	20849
871.1	20796
871.23	21055
871.36	21028
871.489	21001
871.619	21135
871.749	21036
871.879	21077
872.008	21146
872.138	21047
872.267	21157
872.397	20857
872.526	20929
872.656	20868
872.785	20838
872.915	21131
873.044	21077
873.173	20963
873.303	21096
873.432	21165
873.561	21154
873.69	21112
873.819	21081
873.948	21058
874.077	21108
874.206	20918
874.335	21017
874.464	21131
874.593	21317
874.722	21283
874.851	21283
874.979	21252
875.108	21321
875.237	21233
875.365	21237
875.494	21279
875.623	21336
875.751	21336
875.88	21420
876.008	21378
876.136	21542
876.265	21709
876.393	21778
876.521	21785
876.65	21846
876.778	21755
876.906	21660
877.034	21679
877.162	21633
877.29	21648
877.418	21762
877.546	21705
877.674	21781
877.802	21625
877.93	21823
878.058	21652
878.185	21523
878.313	21667
878.441	21614
878.568	21469
878.696	21515
878.824	21576
878.951	21709
879.079	21857
879.206	22006
879.333	21781
879.461	21629
879.588	21812
879.715	21785
879.842	21941
879.97	21781
880.097	21572
880.224	21637
880.351	21614
880.478	21420
880.605	21485
880.732	21469
880.859	21785
880.986	21488
881.112	21507
881.239	21386
881.366	21230
881.493	21176
881.619	21138
881.746	21188
881.872	21001
881.999	21119
882.125	20994
882.252	21222
882.378	21074
882.505	21192
882.631	20918
882.757	20902
882.883	20849
883.01	20845
883.136	20731
883.262	20708
883.388	20663
883.514	20708
883.64	20868
883.766	20705
883.892	20556
884.018	20834
884.143	20708
884.269	20823
884.395	20514
884.52	20461
884.646	20454
884.772	20454
884.897	20317
885.023	20476
885.148	20476
885.274	20602
885.399	20564
885.524	20412
885.65	20423
885.775	20419
885.9	20473
886.025	20594
886.15	20579
886.275	20419
886.4	20374
886.525	20469
886.65	20419
886.775	20461
886.9	20568
887.025	20606
887.149	20313
887.274	20240
887.399	20191
887.523	20267
887.648	20199
887.773	20119
887.897	20278
888.021	20191
888.146	20176
888.27	20263
888.395	20343
888.519	20180
888.643	20256
888.767	20309
888.891	20153
889.015	20050
889.139	20202
889.263	20027
889.387	20111
889.511	20187
889.635	20115
889.759	20005
889.883	19928
890.006	20046
890.13	20187
890.254	20050
890.377	19997
890.501	19791
890.624	19662
890.748	19734
890.871	19799
890.995	19624
891.118	19651
891.241	19662
891.364	19540
891.488	19734
891.611	19639
891.734	19677
891.857	19632
891.98	19563
892.103	19658
892.226	19575
892.349	19514
892.471	19343
892.594	19556
892.717	19476
892.839	19635
892.962	19590
893.085	19594
893.207	19544
893.33	19373
893.452	19468
893.575	19590
893.697	19537
893.819	19708
893.941	19746
894.064	19620
894.186	19358
894.308	19434
894.43	19624
894.552	19750
894.674	19571
894.796	19430
894.918	19472
895.04	19521
895.161	19586
895.283	19662
895.405	19460
895.526	19529
895.648	19556
895.769	19491
895.891	19499
896.012	19647
896.134	19533
896.255	19559
896.376	19472
896.498	19460
896.619	19506
896.74	19510
896.861	19578
896.982	19788
897.103	19959
897.224	19868
897.345	19837
897.466	19776
897.587	19693
897.708	19864
897.828	19818
897.949	19651
898.07	19518
898.19	19681
898.311	19780
898.431	19666
898.552	19727
898.672	19757
898.792	19799
898.913	19890
899.033	19681
899.153	19521
899.273	19518
899.393	19495
899.513	19460
899.633	19483
899.753	19563
899.873	19537
899.993	19613
900.113	19506
900.232	19502
900.352	19457
900.472	19320
900.591	19400
900.711	19236
900.83	19259
900.95	19419
901.069	19358
901.189	19190
901.308	19080
901.427	18924
901.546	19000
901.665	18981
901.784	19012
901.904	18745
902.023	18719
902.141	18525
902.26	18448
902.379	18506
902.498	18315
902.617	18441
902.735	18498
902.854	18323
902.973	18277
903.091	18083
903.21	18258
903.328	18072
903.446	18015
903.565	17942
903.683	17843
903.801	17817
903.919	17946
904.038	17912
904.156	17581
904.274	17764
904.392	17703
904.51	17680
904.627	17638
904.745	17630
904.863	17775
904.981	17478
905.098	17292
905.216	17284
905.334	17402
905.451	17360
905.569	17337
905.686	17311
905.803	17296
905.921	17128
906.038	17296
906.155	17159
906.272	17094
906.389	17071
906.506	16915
906.623	16877
906.74	16843
906.857	16752
906.974	16733
907.091	16946
907.208	17003
907.324	16957
907.441	16816
907.557	16634
907.674	16649
907.79	16519
907.907	16538
908.023	16618
908.139	16634
908.256	16588
908.372	16443
908.488	16424
908.604	16325
908.72	16360
908.836	16360
908.952	16303
909.068	16230
909.184	16280
909.3	16306
909.415	16447
909.531	16265
909.647	16048
909.762	16090
909.878	15937
909.993	16063
910.108	15998
910.224	15994
910.339	15911
910.454	15895
910.57	15819
910.685	15747
910.8	16059
910.915	15953
911.03	15759
911.145	15709
911.259	15671
911.374	15667
911.489	15549
911.604	15473
911.718	15481
911.833	15564
911.947	15370
912.062	15249
912.176	15496
912.291	15530
912.405	15431
912.519	15671
912.633	15553
912.748	15450
912.862	15439
912.976	15203
913.09	15112
913.204	15165
913.318	15157
913.431	15332
913.545	15272
913.659	15313
913.772	15233
913.886	14979
914	15009
914.113	15112
914.226	15192
914.34	15085
914.453	14830
914.566	15112
914.68	14838
914.793	14929
914.906	14731
915.019	14598
915.132	14530
915.245	14636
915.358	14606
915.47	14670
915.583	14712
915.696	14682
915.809	14807
915.921	14830
916.034	14644
916.146	14587
916.259	14564
916.371	14686
916.483	14667
916.595	14545
916.708	14461
916.82	14518
916.932	14473
917.044	14541
917.156	14438
917.268	14309
917.38	14332
917.491	14317
917.603	14355
917.715	14427
917.826	14290
917.938	14237
918.049	14214
918.161	14210
918.272	14385
918.384	14351
918.495	14339
918.606	14134
918.717	14081
918.828	14084
918.939	14100
919.05	13913
919.161	14046
919.272	13947
919.383	13925
919.494	14149
919.604	14275
919.715	14092
919.826	13868
919.936	13986
920.047	14115
920.157	14058
920.267	14233
920.378	14088
920.488	14092
920.598	14225
920.708	14377
920.818	14221
920.928	14157
921.038	14282
921.148	14370
921.258	14054
921.368	14054
921.477	13913
921.587	13799
921.697	13628
921.806	13830
921.916	13639
922.025	13544
922.134	13548
922.244	13476
922.353	13499
922.462	13365
922.571	13320
922.68	13042
922.789	13088
922.898	13194
923.007	12977
923.116	13137
923.224	13076
923.333	13168
923.442	12947
923.55	13015
923.659	12996
923.767	12970
923.876	12962
923.984	12939
924.092	12909
924.201	12894
924.309	12817
924.417	12863
924.525	12810
924.633	12806
924.741	13765
924.849	12540
924.956	12677
925.064	12604
925.172	12528
925.279	12456
925.387	12547
925.494	12521
925.602	12669
925.709	12528
925.816	12502
925.924	12467
926.031	12593
926.138	12559
926.245	12490
926.352	12471
926.459	12582
926.566	12540
926.673	12357
926.779	12243
926.886	12285
926.993	12216
927.099	12205
927.206	12121
927.312	12030
927.419	12140
927.525	12087
927.631	12125
927.737	11973
927.843	11942
927.95	11840
928.056	11973
928.162	11984
928.267	12019
928.373	12559
928.479	11946
928.585	11809
928.69	11958
928.796	12034
928.901	11882
929.007	11741
929.112	11741
929.218	11824
929.323	11642
929.428	11714
929.533	11767
929.638	11615
929.743	11676
929.848	11615
929.953	11649
930.058	11535
930.163	11421
930.267	11337
930.372	11501
930.477	11395
930.581	11592
930.685	11395
930.79	11360
930.894	11273
930.998	11349
931.103	11341
931.207	11052
931.311	10946
931.415	10885
931.519	10679
931.623	10721
