Data from test_V78500241_335.txt Node
Date: Fri Mar 25 15:12:11 CST 2022
User: usil
Spectrometer: V785-0024
Trigger mode: 0
Integration Time (sec): 4.000000E-1
Scans to average: 1
Nonlinearity correction enabled: false
Boxcar width: 0
Storing dark spectrum: false
XAxis mode: Wavelengths
Number of Pixels in Spectrum: 1024
>>>>>Begin Spectral Data<<<<<
801.071	27116
801.214	27051
801.356	26849
801.499	26785
801.641	26724
801.783	26663
801.926	26689
802.068	26632
802.211	26625
802.353	26507
802.496	26370
802.638	26248
802.78	26218
802.923	26221
803.065	26157
803.208	26183
803.35	26351
803.492	26453
803.635	26526
803.777	26324
803.919	26480
804.061	26598
804.204	26347
804.346	26336
804.488	26309
804.63	26374
804.773	26252
804.915	26355
805.057	26469
805.199	26294
805.341	26385
805.483	26339
805.626	26473
805.768	26404
805.91	26465
806.052	26423
806.194	26431
806.336	26629
806.478	26453
806.62	26415
806.762	26575
806.904	26724
807.046	26952
807.188	26861
807.33	26902
807.472	27020
807.614	26792
807.756	26819
807.898	26625
808.04	26625
808.182	26708
808.324	26788
808.465	26708
808.607	26876
808.749	26940
808.891	27241
809.033	27302
809.174	27013
809.316	27165
809.458	26986
809.6	27001
809.741	27135
809.883	27195
810.025	27268
810.166	27214
810.308	27348
810.45	27420
810.591	27321
810.733	27222
810.875	27032
811.016	27047
811.158	26967
811.299	27051
811.441	27203
811.582	27142
811.724	27077
811.865	27051
812.007	27100
812.148	27036
812.29	27089
812.431	27268
812.573	27336
812.714	27542
812.855	27656
812.997	27660
813.138	27774
813.279	27778
813.421	27629
813.562	27549
813.703	27412
813.845	27230
813.986	26906
814.127	26815
814.268	26735
814.41	26743
814.551	26674
814.692	26648
814.833	26670
814.974	26712
815.115	26716
815.256	26579
815.397	26526
815.539	26602
815.68	26556
815.821	26389
815.962	26560
816.103	26511
816.244	26495
816.385	26317
816.526	26138
816.666	26100
816.807	25974
816.948	25940
817.089	26084
817.23	25951
817.371	25928
817.512	25970
817.653	25982
817.793	26024
817.934	26035
818.075	25879
818.216	26073
818.356	25997
818.497	25921
818.638	25738
818.778	25727
818.919	25753
819.06	25799
819.2	25909
819.341	25833
819.481	25951
819.622	26039
819.762	26320
819.903	26161
820.043	26172
820.184	26126
820.324	25966
820.465	26237
820.605	26035
820.746	26031
820.886	25791
821.026	26077
821.167	26111
821.307	25959
821.447	26035
821.588	25860
821.728	25677
821.868	25670
822.008	25495
822.149	25449
822.289	25407
822.429	25198
822.569	25145
822.709	25175
822.849	24886
822.99	25057
823.13	25000
823.27	24890
823.41	24677
823.55	24688
823.69	24779
823.83	24658
823.97	24654
824.11	24509
824.25	24479
824.389	24483
824.529	24741
824.669	24627
824.809	24684
824.949	24681
825.089	24673
825.228	24559
825.368	24422
825.508	24380
825.648	24270
825.787	24452
825.927	24426
826.067	24414
826.206	24414
826.346	24296
826.485	24403
826.625	24456
826.765	24566
826.904	24350
827.044	24277
827.183	24129
827.323	24072
827.462	24247
827.601	24114
827.741	24068
827.88	24247
828.02	24098
828.159	24087
828.298	24064
828.437	24194
828.577	23999
828.716	24251
828.855	24091
828.994	23901
829.134	23897
829.273	23885
829.412	23786
829.551	23798
829.69	23878
829.829	23942
829.968	24015
830.107	24049
830.246	23878
830.385	23665
830.524	23840
830.663	23710
830.802	23653
830.941	23459
831.08	23376
831.219	23554
831.357	23547
831.496	23661
831.635	23493
831.774	23322
831.913	23318
832.051	23277
832.19	23250
832.329	23174
832.467	23140
832.606	23121
832.744	23155
832.883	23208
833.022	23094
833.16	23181
833.299	23178
833.437	23128
833.576	23185
833.714	23242
833.852	23280
833.991	23212
834.129	23372
834.267	23322
834.406	23303
834.544	23429
834.682	23261
834.821	23200
834.959	23402
835.097	23143
835.235	23387
835.373	23242
835.511	23170
835.65	23075
835.788	23166
835.926	22987
836.064	22858
836.202	22900
836.34	23041
836.478	23067
836.615	23132
836.753	23155
836.891	23162
837.029	23041
837.167	23006
837.305	23151
837.443	23048
837.58	22904
837.718	22949
837.856	22953
837.993	22843
838.131	22942
838.269	22839
838.406	22820
838.544	22812
838.681	22675
838.819	22527
838.956	22402
839.094	22409
839.231	22470
839.369	22569
839.506	22831
839.643	22687
839.781	22466
839.918	22413
840.055	22489
840.193	22352
840.33	22337
840.467	22398
840.604	22356
840.742	22592
840.879	22215
841.016	22196
841.153	22314
841.29	22421
841.427	22394
841.564	22371
841.701	22424
841.838	22303
841.975	22234
842.112	22329
842.249	22109
842.385	22090
842.522	22306
842.659	22063
842.796	22223
842.933	22109
843.069	22086
843.206	22093
843.343	22173
843.479	22272
843.616	22055
843.752	21987
843.889	22082
844.025	22002
844.162	21895
844.298	22002
844.435	21842
844.571	21804
844.708	21857
844.844	22169
844.98	21937
845.117	21979
845.253	21922
845.389	21781
845.525	21724
845.661	21660
845.798	21732
845.934	21629
846.07	21606
846.206	21644
846.342	21812
846.478	21633
846.614	21389
846.75	21321
846.886	21329
847.022	21428
847.158	21439
847.294	21268
847.429	21245
847.565	21256
847.701	21595
847.837	21119
847.972	21066
848.108	21154
848.244	21161
848.379	21024
848.515	20986
848.65	21036
848.786	21009
848.921	20933
849.057	21024
849.192	21116
849.328	20975
849.463	20921
849.598	20891
849.734	20819
849.869	20796
850.004	20720
850.14	20861
850.275	20792
850.41	20754
850.545	20689
850.68	20644
850.815	20613
850.95	20655
851.085	20868
851.22	20811
851.355	20762
851.49	20682
851.625	20617
851.76	20758
851.895	20587
852.03	20579
852.165	20575
852.299	20727
852.434	20754
852.569	20781
852.703	20682
852.838	20750
852.973	20948
853.107	20804
853.242	20712
853.376	20663
853.511	20431
853.645	20423
853.78	20511
853.914	20533
854.048	20423
854.183	20465
854.317	20590
854.451	20651
854.585	20568
854.72	20518
854.854	20648
854.988	20473
855.122	20526
855.256	20271
855.39	20503
855.524	20511
855.658	20465
855.792	20552
855.926	20686
856.06	20465
856.194	20693
856.327	20457
856.461	20571
856.595	20571
856.729	20465
856.862	20507
856.996	20465
857.13	20609
857.263	20720
857.397	20621
857.53	20621
857.664	20568
857.797	20579
857.931	20594
858.064	20579
858.197	20564
858.331	20689
858.464	20590
858.597	20457
858.731	20549
858.864	20495
858.997	20461
859.13	20629
859.263	20533
859.396	20564
859.529	20511
859.662	20473
859.795	20473
859.928	20530
860.061	20678
860.194	20834
860.327	20469
860.46	20431
860.592	20602
860.725	20651
860.858	20655
860.99	20480
861.123	20347
861.256	20469
861.388	20590
861.521	21138
861.653	20282
861.786	20343
861.918	20465
862.05	20450
862.183	20385
862.315	20431
862.447	20598
862.58	20469
862.712	20248
862.844	20244
862.976	20301
863.108	20191
863.24	20659
863.372	20218
863.504	20263
863.636	20225
863.768	20355
863.9	20271
864.032	20122
864.164	20252
864.296	20263
864.428	20381
864.559	20237
864.691	20309
864.823	20294
864.954	20229
865.086	20282
865.217	20119
865.349	20161
865.48	20100
865.612	20168
865.743	20374
865.875	20183
866.006	20221
866.137	20218
866.269	20157
866.4	20054
866.531	20065
866.662	20218
866.793	20043
866.924	20012
867.055	20183
867.186	20119
867.317	19993
867.448	20073
867.579	20058
867.71	20050
867.841	20088
867.972	20126
868.103	20081
868.233	20142
868.364	20168
868.495	20168
868.625	20320
868.756	20457
868.886	20286
869.017	20313
869.147	20423
869.278	20556
869.408	20431
869.539	20381
869.669	20465
869.799	20282
869.929	20503
870.06	20473
870.19	20651
870.32	20590
870.45	20629
870.58	20765
870.71	20746
870.84	20773
870.97	20792
871.1	20773
871.23	20925
871.36	20872
871.489	20811
871.619	20933
871.749	20902
871.879	21039
872.008	21047
872.138	20925
872.267	20986
872.397	20815
872.526	20716
872.656	20708
872.785	20788
872.915	20967
873.044	21104
873.173	20990
873.303	21020
873.432	21112
873.561	21017
873.69	21017
873.819	20971
873.948	21074
874.077	20963
874.206	20929
874.335	20899
874.464	21108
874.593	21165
874.722	21024
874.851	21272
874.979	21230
875.108	21256
875.237	21256
875.365	21100
875.494	21268
875.623	21199
875.751	21157
875.88	21169
876.008	21439
876.136	21389
876.265	21485
876.393	21694
876.521	21644
876.65	21606
876.778	21545
876.906	21583
877.034	21542
877.162	21599
877.29	21469
877.418	21614
877.546	21473
877.674	21473
877.802	21466
877.93	21477
878.058	21481
878.185	21450
878.313	21606
878.441	21515
878.568	21507
878.696	21488
878.824	21625
878.951	21622
879.079	21698
879.206	21838
879.333	21694
879.461	21561
879.588	21732
879.715	21701
879.842	21797
879.97	21671
880.097	21393
880.224	21275
880.351	21511
880.478	21386
880.605	21454
880.732	21401
880.859	21641
880.986	21279
881.112	21420
881.239	21351
881.366	21112
881.493	21039
881.619	20823
881.746	20929
881.872	20902
881.999	20902
882.125	20880
882.252	20971
882.378	20967
882.505	21146
882.631	20864
882.757	20739
882.883	20769
883.01	20670
883.136	20636
883.262	20670
883.388	20537
883.514	20602
883.64	20659
883.766	20663
883.892	20427
884.018	20431
884.143	20644
884.269	20739
884.395	20461
884.52	20351
884.646	20305
884.772	20294
884.897	20256
885.023	20434
885.148	20362
885.274	20412
885.399	20294
885.524	20259
885.65	20377
885.775	20377
885.9	20298
886.025	20438
886.15	20438
886.275	20267
886.4	20233
886.525	20206
886.65	20317
886.775	20164
886.9	20431
887.025	20434
887.149	20320
887.274	20195
887.399	20149
887.523	20107
887.648	20020
887.773	20008
887.897	20107
888.021	20062
888.146	20024
888.27	20210
888.395	20202
888.519	20134
888.643	20130
888.767	20168
888.891	19967
889.015	19833
889.139	20111
889.263	19864
889.387	20008
889.511	20138
889.635	20153
889.759	19898
889.883	19959
890.006	19982
890.13	20073
890.254	19734
890.377	19913
890.501	19666
890.624	19643
890.748	19879
890.871	19685
890.995	19556
891.118	19483
891.241	19559
891.364	19487
891.488	19651
891.611	19476
891.734	19563
891.857	19556
891.98	19499
892.103	19643
892.226	19635
892.349	19510
892.471	19430
892.594	19384
892.717	19457
892.839	19430
892.962	19453
893.085	19491
893.207	19419
893.33	19304
893.452	19468
893.575	19476
893.697	19373
893.819	19601
893.941	19632
894.064	19540
894.186	19365
894.308	19274
894.43	19464
894.552	19635
894.674	19434
894.796	19358
894.918	19339
895.04	19369
895.161	19590
895.283	19559
895.405	19335
895.526	19430
895.648	19403
895.769	19495
895.891	19556
896.012	19609
896.134	19544
896.255	19567
896.376	19350
896.498	19392
896.619	19582
896.74	19457
896.861	19647
896.982	19845
897.103	19902
897.224	19635
897.345	19719
897.466	19609
897.587	19693
897.708	19845
897.828	19556
897.949	19693
898.07	19552
898.19	19533
898.311	19811
898.431	19643
898.552	19590
898.672	19693
898.792	19727
898.913	19704
899.033	19544
899.153	19518
899.273	19407
899.393	19430
899.513	19495
899.633	19521
899.753	19445
899.873	19445
899.993	19453
900.113	19350
900.232	19362
900.352	19240
900.472	19320
900.591	19171
900.711	19350
900.83	19198
900.95	19453
901.069	19320
901.189	19042
901.308	18913
901.427	18753
901.546	18700
901.665	18859
901.784	18810
901.904	18654
902.023	18528
902.141	18433
902.26	18266
902.379	18448
902.498	18296
902.617	18388
902.735	18350
902.854	18323
902.973	18247
903.091	18068
903.21	18030
903.328	17885
903.446	17912
903.565	17874
903.683	17824
903.801	17859
903.919	17840
904.038	17687
904.156	17615
904.274	17729
904.392	17535
904.51	17566
904.627	17505
904.745	17611
904.863	17501
904.981	17543
905.098	17223
905.216	17254
905.334	17337
905.451	17322
905.569	17231
905.686	17280
905.803	17178
905.921	17067
906.038	17174
906.155	17041
906.272	16965
906.389	16995
906.506	16869
906.623	16805
906.74	16839
906.857	16725
906.974	16771
907.091	16896
907.208	16892
907.324	16866
907.441	16755
907.557	16637
907.674	16596
907.79	16481
907.907	16417
908.023	16577
908.139	16443
908.256	16493
908.372	16398
908.488	16466
908.604	16303
908.72	16192
908.836	16314
908.952	16192
909.068	16348
909.184	16363
909.3	16185
909.415	16257
909.531	16215
909.647	16013
909.762	16055
909.878	15911
909.993	15960
910.108	15930
910.224	15888
910.339	16078
910.454	15850
910.57	15800
910.685	15785
910.8	16071
910.915	16074
911.03	15808
911.145	15637
911.259	15557
911.374	15515
911.489	15511
911.604	15443
911.718	15370
911.833	15325
911.947	15287
912.062	15097
912.176	15264
912.291	15302
912.405	15203
912.519	15405
912.633	15447
912.748	15283
912.862	15401
912.976	15165
913.09	15085
913.204	15074
913.318	15165
913.431	15279
913.545	15241
913.659	15302
913.772	15077
913.886	14967
914	14910
914.113	15055
914.226	15047
914.34	14990
914.453	14925
914.566	15058
914.68	14826
914.793	14750
914.906	14667
915.019	14549
915.132	14518
915.245	14526
915.358	14678
915.47	14697
915.583	14602
915.696	14648
915.809	14708
915.921	14682
916.034	14621
916.146	14434
916.259	14522
916.371	14549
916.483	14598
916.595	14434
916.708	14434
916.82	14393
916.932	14317
917.044	14427
917.156	14381
917.268	14218
917.38	14317
917.491	14290
917.603	14199
917.715	14362
917.826	14324
917.938	14221
918.049	14092
918.161	14195
918.272	14347
918.384	14301
918.495	14199
918.606	14062
918.717	13947
918.828	14046
918.939	14046
919.05	13917
919.161	13928
919.272	13837
919.383	13856
919.494	14088
919.604	14218
919.715	13906
919.826	13875
919.936	13898
920.047	14096
920.157	14031
920.267	14298
920.378	14020
920.488	14069
920.598	14206
920.708	14256
920.818	14199
920.928	14142
921.038	14233
921.148	14313
921.258	13860
921.368	13868
921.477	13811
921.587	13628
921.697	13582
921.806	13822
921.916	13559
922.025	13472
922.134	13422
922.244	13301
922.353	13396
922.462	13301
922.571	13259
922.68	13027
922.789	13065
922.898	13015
923.007	12989
923.116	13149
923.224	13000
923.333	13107
923.442	12920
923.55	12943
923.659	12920
923.767	13027
923.876	12875
923.984	12951
924.092	12795
924.201	12802
924.309	12852
924.417	12833
924.525	12768
924.633	12719
924.741	13392
924.849	12509
924.956	12627
925.064	12536
925.172	12437
925.279	12410
925.387	12555
925.494	12494
925.602	12578
925.709	12532
925.816	12460
925.924	12433
926.031	12566
926.138	12369
926.245	12486
926.352	12304
926.459	12547
926.566	12506
926.673	12395
926.779	12224
926.886	12235
926.993	12144
927.099	12117
927.206	12072
927.312	12026
927.419	12057
927.525	12114
927.631	12117
927.737	12083
927.843	11946
927.95	11847
928.056	11824
928.162	11885
928.267	12007
928.373	12532
928.479	12041
928.585	11786
928.69	11904
928.796	11980
928.901	11771
929.007	11596
929.112	11756
929.218	11646
929.323	11619
929.428	11562
929.533	11775
929.638	11573
929.743	11493
929.848	11672
929.953	11623
930.058	11478
930.163	11349
930.267	11372
930.372	11471
930.477	11364
930.581	11596
930.685	11315
930.79	11288
930.894	11246
930.998	11246
931.103	11326
931.207	11048
931.311	10873
931.415	10797
931.519	10645
931.623	10592
