Data from test_V78500241_1960.txt Node
Date: Fri Mar 25 15:23:30 CST 2022
User: usil
Spectrometer: V785-0024
Trigger mode: 0
Integration Time (sec): 4.000000E-1
Scans to average: 1
Nonlinearity correction enabled: false
Boxcar width: 0
Storing dark spectrum: false
XAxis mode: Wavelengths
Number of Pixels in Spectrum: 1024
>>>>>Begin Spectral Data<<<<<
801.071	27679
801.214	27583
801.356	27439
801.499	27275
801.641	27131
801.783	27093
801.926	27287
802.068	27135
802.211	27207
802.353	27131
802.496	26910
802.638	26861
802.78	26819
802.923	26777
803.065	26613
803.208	26792
803.35	26762
803.492	26887
803.635	27104
803.777	26883
803.919	27062
804.061	27416
804.204	27112
804.346	27013
804.488	26792
804.63	27043
804.773	26918
804.915	27085
805.057	27112
805.199	26948
805.341	27127
805.483	27119
805.626	27252
805.768	27096
805.91	27226
806.052	27176
806.194	27188
806.336	27260
806.478	27157
806.62	27123
806.762	27298
806.904	27450
807.046	27523
807.188	27572
807.33	27675
807.472	27618
807.614	27511
807.756	27572
807.898	27378
808.04	27370
808.182	27439
808.324	27469
808.465	27477
808.607	27717
808.749	27831
808.891	27903
809.033	27914
809.174	27903
809.316	27694
809.458	27686
809.6	27724
809.741	28010
809.883	27953
810.025	28051
810.166	27960
810.308	28013
810.45	27956
810.591	27865
810.733	27728
810.875	27694
811.016	27717
811.158	27625
811.299	27846
811.441	27694
811.582	27960
811.724	27724
811.865	27759
812.007	27755
812.148	27603
812.29	27899
812.431	28013
812.573	28067
812.714	28249
812.855	28325
812.997	28314
813.138	28421
813.279	28447
813.421	28284
813.562	28131
813.703	28143
813.845	28017
813.986	27671
814.127	27564
814.268	27348
814.41	27412
814.551	27374
814.692	27481
814.833	27382
814.974	27553
815.115	27523
815.256	27443
815.397	27397
815.539	27348
815.68	27142
815.821	27176
815.962	27287
816.103	27230
816.244	27180
816.385	26998
816.526	26952
816.666	26807
816.807	26651
816.948	26815
817.089	26807
817.23	26727
817.371	26682
817.512	26663
817.653	26663
817.793	26549
817.934	26758
818.075	26697
818.216	26716
818.356	26640
818.497	26651
818.638	26438
818.778	26503
818.919	26503
819.06	26358
819.2	26606
819.341	26613
819.481	26746
819.622	26902
819.762	27017
819.903	26883
820.043	26910
820.184	26811
820.324	26788
820.465	26800
820.605	26788
820.746	26925
820.886	26769
821.026	26792
821.167	26781
821.307	26750
821.447	26663
821.588	26590
821.728	26377
821.868	26294
822.008	26347
822.149	26126
822.289	26115
822.429	25986
822.569	25887
822.709	25887
822.849	25696
822.99	25712
823.13	25704
823.27	25700
823.41	25487
823.55	25548
823.69	25491
823.83	25655
823.97	25426
824.11	25381
824.25	25388
824.389	25384
824.529	25403
824.669	25354
824.809	25476
824.949	25476
825.089	25552
825.228	25354
825.368	25247
825.508	25194
825.648	25198
825.787	25308
825.927	25244
826.067	25274
826.206	25095
826.346	25263
826.485	25217
826.625	25118
826.765	25194
826.904	25312
827.044	24985
827.183	25046
827.323	24996
827.462	24928
827.601	24905
827.741	24905
827.88	24939
828.02	24844
828.159	24844
828.298	25008
828.437	24932
828.577	24837
828.716	24939
828.855	24966
828.994	24608
829.134	24658
829.273	24692
829.412	24658
829.551	24563
829.69	24601
829.829	24772
829.968	24772
830.107	24673
830.246	24623
830.385	24608
830.524	24593
830.663	24578
830.802	24361
830.941	24209
831.08	24190
831.219	24334
831.357	24300
831.496	24486
831.635	24171
831.774	24273
831.913	24110
832.051	24072
832.19	23996
832.329	24022
832.467	23882
832.606	23980
832.744	23939
832.883	23916
833.022	23798
833.16	23942
833.299	23958
833.437	24038
833.576	24026
833.714	24049
833.852	24068
833.991	24057
834.129	24041
834.267	24129
834.406	23969
834.544	24110
834.682	24144
834.821	23908
834.959	24114
835.097	23958
835.235	24064
835.373	23980
835.511	23885
835.65	23836
835.788	23798
835.926	23745
836.064	23627
836.202	23680
836.34	23904
836.478	23923
836.615	23866
836.753	23821
836.891	23687
837.029	23889
837.167	23836
837.305	23752
837.443	23710
837.58	23668
837.718	23657
837.856	23676
837.993	23718
838.131	23543
838.269	23482
838.406	23657
838.544	23554
838.681	23334
838.819	23482
838.956	23204
839.094	23204
839.231	23220
839.369	23269
839.506	23570
839.643	23322
839.781	23189
839.918	23159
840.055	23159
840.193	23090
840.33	23121
840.467	23128
840.604	23136
840.742	23303
840.879	22995
841.016	23018
841.153	23044
841.29	23322
841.427	23044
841.564	23204
841.701	23090
841.838	23136
841.975	22889
842.112	23098
842.249	22847
842.385	22869
842.522	22965
842.659	22991
842.796	22873
842.933	22797
843.069	22786
843.206	22831
843.343	22949
843.479	22877
843.616	22809
843.752	22713
843.889	22664
844.025	22752
844.162	22615
844.298	22801
844.435	22645
844.571	22557
844.708	22694
844.844	22869
844.98	22866
845.117	22767
845.253	22702
845.389	22527
845.525	22554
845.661	22470
845.798	22280
845.934	22379
846.07	22356
846.206	22299
846.342	22447
846.478	22276
846.614	22158
846.75	22048
846.886	22188
847.022	22204
847.158	22234
847.294	22143
847.429	22299
847.565	22177
847.701	22337
847.837	21827
847.972	21846
848.108	21842
848.244	21869
848.379	21736
848.515	21652
848.65	21679
848.786	21766
848.921	21667
849.057	21850
849.192	21766
849.328	21778
849.463	21701
849.598	21690
849.734	21519
849.869	21519
850.004	21458
850.14	21538
850.275	21469
850.41	21466
850.545	21405
850.68	21412
850.815	21500
850.95	21435
851.085	21622
851.22	21515
851.355	21488
851.49	21428
851.625	21348
851.76	21561
851.895	21279
852.03	21351
852.165	21492
852.299	21439
852.434	21561
852.569	21492
852.703	21534
852.838	21454
852.973	21431
853.107	21637
853.242	21443
853.376	21226
853.511	21230
853.645	21317
853.78	21355
853.914	21176
854.048	21279
854.183	21218
854.317	21207
854.451	21500
854.585	21412
854.72	21222
854.854	21329
854.988	21096
855.122	21237
855.256	21192
855.39	21268
855.524	21378
855.658	21458
855.792	21211
855.926	21211
856.06	21321
856.194	21340
856.327	21233
856.461	21207
856.595	21237
856.729	21249
856.862	21313
856.996	21195
857.13	21401
857.263	21481
857.397	21473
857.53	21272
857.664	21389
857.797	21382
857.931	21370
858.064	21272
858.197	21393
858.331	21306
858.464	21306
858.597	21207
858.731	21272
858.864	21165
858.997	21272
859.13	21211
859.263	21268
859.396	21405
859.529	21214
859.662	21298
859.795	21264
859.928	21245
860.061	21515
860.194	21405
860.327	21336
860.46	21359
860.592	21431
860.725	21545
860.858	21336
860.99	21192
861.123	21245
861.256	21108
861.388	21359
861.521	21930
861.653	21104
861.786	21119
861.918	21173
862.05	21047
862.183	21230
862.315	21173
862.447	21317
862.58	21108
862.712	20990
862.844	21020
862.976	21047
863.108	21024
863.24	21443
863.372	20960
863.504	20986
863.636	20925
863.768	21058
863.9	21013
864.032	20921
864.164	20944
864.296	20933
864.428	21058
864.559	21066
864.691	21066
864.823	20986
864.954	20979
865.086	21104
865.217	20849
865.349	20815
865.48	20929
865.612	20876
865.743	20998
865.875	20792
866.006	20830
866.137	20944
866.269	20910
866.4	20819
866.531	20849
866.662	20765
866.793	20834
866.924	20861
867.055	20914
867.186	20883
867.317	20739
867.448	20731
867.579	20861
867.71	20804
867.841	20842
867.972	20819
868.103	20857
868.233	20788
868.364	20735
868.495	20925
868.625	21108
868.756	21123
868.886	20937
869.017	20990
869.147	21154
869.278	21146
869.408	21051
869.539	21169
869.669	21051
869.799	21077
869.929	21233
870.06	21112
870.19	21435
870.32	21249
870.45	21363
870.58	21382
870.71	21504
870.84	21469
870.97	21435
871.1	21340
871.23	21667
871.36	21557
871.489	21557
871.619	21576
871.749	21667
871.879	21701
872.008	21778
872.138	21583
872.267	21717
872.397	21523
872.526	21583
872.656	21538
872.785	21462
872.915	21618
873.044	21679
873.173	21739
873.303	21595
873.432	21831
873.561	21846
873.69	21675
873.819	21781
873.948	21717
874.077	21656
874.206	21610
874.335	21641
874.464	21778
874.593	21994
874.722	21838
874.851	22013
874.979	22021
875.108	21842
875.237	21846
875.365	21759
875.494	21968
875.623	21895
875.751	21876
875.88	21941
876.008	21960
876.136	22112
876.265	22322
876.393	22405
876.521	22405
876.65	22421
876.778	22318
876.906	22303
877.034	22253
877.162	22230
877.29	22181
877.418	22185
877.546	22204
877.674	22314
877.802	22150
877.93	22215
878.058	22158
878.185	22059
878.313	22299
878.441	22322
878.568	22154
878.696	22139
878.824	22215
878.951	22185
879.079	22360
879.206	22474
879.333	22421
879.461	22303
879.588	22344
879.715	22363
879.842	22470
879.97	22310
880.097	22048
880.224	22188
880.351	22116
880.478	22013
880.605	21998
880.732	22124
880.859	22363
880.986	22044
881.112	22139
881.239	21975
881.366	21808
881.493	21766
881.619	21724
881.746	21759
881.872	21599
881.999	21652
882.125	21553
882.252	21663
882.378	21667
882.505	21739
882.631	21492
882.757	21481
882.883	21424
883.01	21378
883.136	21279
883.262	21287
883.388	21241
883.514	21359
883.64	21401
883.766	21256
883.892	21077
884.018	21062
884.143	21321
884.269	21416
884.395	21195
884.52	20902
884.646	20967
884.772	20933
884.897	20880
885.023	20975
885.148	21157
885.274	21165
885.399	21051
885.524	20944
885.65	21081
885.775	21020
885.9	21017
886.025	21081
886.15	20952
886.275	21070
886.4	20883
886.525	20876
886.65	20925
886.775	20963
886.9	21123
887.025	21066
887.149	20979
887.274	20724
887.399	20705
887.523	20811
887.648	20708
887.773	20686
887.897	20895
888.021	20781
888.146	20682
888.27	20769
888.395	20754
888.519	20777
888.643	20845
888.767	20804
888.891	20640
889.015	20537
889.139	20587
889.263	20423
889.387	20609
889.511	20830
889.635	20682
889.759	20560
889.883	20530
890.006	20659
890.13	20716
890.254	20492
890.377	20412
890.501	20309
890.624	20385
890.748	20408
890.871	20271
890.995	20069
891.118	19997
891.241	20271
891.364	20103
891.488	20259
891.611	20164
891.734	20077
891.857	20111
891.98	20126
892.103	20233
892.226	20096
892.349	20035
892.471	19894
892.594	20084
892.717	20065
892.839	20024
892.962	20024
893.085	20130
893.207	20054
893.33	19906
893.452	19841
893.575	20103
893.697	20024
893.819	20210
893.941	20225
894.064	20172
894.186	20031
894.308	19868
894.43	20077
894.552	20138
894.674	20161
894.796	19875
894.918	20126
895.04	20073
895.161	20062
895.283	20100
895.405	20031
895.526	20001
895.648	20024
895.769	20035
895.891	20008
896.012	20138
896.134	20138
896.255	20153
896.376	19947
896.498	20012
896.619	20046
896.74	20046
896.861	19986
896.982	20313
897.103	20431
897.224	20320
897.345	20320
897.466	20240
897.587	20294
897.708	20385
897.828	20419
897.949	20271
898.07	20138
898.19	20244
898.311	20328
898.431	20271
898.552	20191
898.672	20286
898.792	20286
898.913	20221
899.033	20161
899.153	20062
899.273	19928
899.393	20035
899.513	19978
899.633	19963
899.753	19997
899.873	19890
899.993	20005
900.113	20001
900.232	19982
900.352	19837
900.472	19731
900.591	19738
900.711	19765
900.83	19765
900.95	19818
901.069	19883
901.189	19605
901.308	19514
901.427	19430
901.546	19369
901.665	19316
901.784	19308
901.904	19194
902.023	19160
902.141	19046
902.26	18916
902.379	18977
902.498	18886
902.617	18821
902.735	18932
902.854	18749
902.973	18897
903.091	18479
903.21	18464
903.328	18547
903.446	18441
903.565	18399
903.683	18410
903.801	18235
903.919	18296
904.038	18281
904.156	18136
904.274	18186
904.392	18091
904.51	18102
904.627	18133
904.745	18174
904.863	18152
904.981	17977
905.098	17870
905.216	17718
905.334	17843
905.451	17710
905.569	17699
905.686	17767
905.803	17741
905.921	17566
906.038	17779
906.155	17547
906.272	17512
906.389	17436
906.506	17368
906.623	17349
906.74	17364
906.857	17174
906.974	17174
907.091	17261
907.208	17406
907.324	17376
907.441	17193
907.557	17018
907.674	17018
907.79	17067
907.907	17048
908.023	17102
908.139	17029
908.256	17003
908.372	16976
908.488	16824
908.604	16828
908.72	16748
908.836	16797
908.952	16729
909.068	16656
909.184	16942
909.3	16717
909.415	16809
909.531	16767
909.647	16531
909.762	16424
909.878	16527
909.993	16504
910.108	16375
910.224	16360
910.339	16470
910.454	16508
910.57	16337
910.685	16284
910.8	16443
910.915	16386
911.03	16291
911.145	16074
911.259	16044
911.374	16078
911.489	15968
911.604	15991
911.718	15797
911.833	15785
911.947	15641
912.062	15568
912.176	15762
912.291	15812
912.405	15732
912.519	15922
912.633	15907
912.748	15876
912.862	15774
912.976	15679
913.09	15519
913.204	15625
913.318	15587
913.431	15660
913.545	15663
913.659	15736
913.772	15553
913.886	15466
914	15477
914.113	15523
914.226	15515
914.34	15515
914.453	15401
914.566	15507
914.68	15393
914.793	15233
914.906	15127
915.019	15093
915.132	14941
915.245	15024
915.358	15100
915.47	15058
915.583	14929
915.696	15009
915.809	15119
915.921	15233
916.034	14982
916.146	14891
916.259	14887
916.371	15108
916.483	14982
916.595	14891
916.708	14876
916.82	14838
916.932	14800
917.044	14842
917.156	14785
917.268	14735
917.38	14762
917.491	14716
917.603	14762
917.715	14739
917.826	14735
917.938	14575
918.049	14564
918.161	14583
918.272	14754
918.384	14613
918.495	14667
918.606	14461
918.717	14480
918.828	14385
918.939	14434
919.05	14434
919.161	14358
919.272	14263
919.383	14358
919.494	14454
919.604	14522
919.715	14492
919.826	14328
919.936	14377
920.047	14503
920.157	14400
920.267	14564
920.378	14484
920.488	14328
920.598	14526
920.708	14769
920.818	14492
920.928	14613
921.038	14720
921.148	14632
921.258	14301
921.368	14294
921.477	14092
921.587	14126
921.697	14073
921.806	14210
921.916	14054
922.025	13849
922.134	13818
922.244	13651
922.353	13799
922.462	13590
922.571	13655
922.68	13537
922.789	13476
922.898	13483
923.007	13483
923.116	13506
923.224	13525
923.333	13324
923.442	13263
923.55	13217
923.659	13266
923.767	13263
923.876	13266
923.984	13217
924.092	13088
924.201	13247
924.309	13110
924.417	13126
924.525	13137
924.633	13053
924.741	13944
924.849	12943
924.956	13126
925.064	12833
925.172	12958
925.279	12859
925.387	12882
925.494	12916
925.602	12989
925.709	12909
925.816	12753
925.924	12825
926.031	12916
926.138	12768
926.245	12859
926.352	12662
926.459	12844
926.566	12829
926.673	12776
926.779	12536
926.886	12700
926.993	12528
927.099	12486
927.206	12315
927.312	12330
927.419	12475
927.525	12342
927.631	12418
927.737	12281
927.843	12285
927.95	12186
928.056	12167
928.162	12300
928.267	12239
928.373	12711
928.479	12319
928.585	12190
928.69	12155
928.796	12251
928.901	12091
929.007	11931
929.112	12053
929.218	12060
929.323	11973
929.428	11893
929.533	12034
929.638	11935
929.743	11920
929.848	11912
929.953	11863
930.058	11870
930.163	11623
930.267	11707
930.372	11718
930.477	11623
930.581	11809
930.685	11756
930.79	11558
930.894	11604
930.998	11486
931.103	11627
931.207	11254
931.311	11273
931.415	11124
931.519	11018
931.623	10957
