Data from test_V78500241_2548.txt Node
Date: Fri Mar 25 15:27:36 CST 2022
User: usil
Spectrometer: V785-0024
Trigger mode: 0
Integration Time (sec): 4.000000E-1
Scans to average: 1
Nonlinearity correction enabled: false
Boxcar width: 0
Storing dark spectrum: false
XAxis mode: Wavelengths
Number of Pixels in Spectrum: 1024
>>>>>Begin Spectral Data<<<<<
801.071	27165
801.214	27264
801.356	26918
801.499	26944
801.641	26842
801.783	26701
801.926	26842
802.068	26762
802.211	26678
802.353	26530
802.496	26457
802.638	26221
802.78	26362
802.923	26267
803.065	26355
803.208	26290
803.35	26389
803.492	26537
803.635	26423
803.777	26499
803.919	26457
804.061	26750
804.204	26625
804.346	26575
804.488	26259
804.63	26571
804.773	26511
804.915	26522
805.057	26678
805.199	26408
805.341	26568
805.483	26758
805.626	26644
805.768	26659
805.91	26636
806.052	26606
806.194	26545
806.336	26678
806.478	26651
806.62	26674
806.762	26891
806.904	26864
807.046	27180
807.188	26940
807.33	27058
807.472	27157
807.614	26925
807.756	26921
807.898	26944
808.04	26804
808.182	26807
808.324	26781
808.465	26895
808.607	27173
808.749	27272
808.891	27336
809.033	27355
809.174	27275
809.316	27195
809.458	27340
809.6	27119
809.741	27291
809.883	27378
810.025	27618
810.166	27515
810.308	27378
810.45	27469
810.591	27405
810.733	27226
810.875	27051
811.016	27138
811.158	27089
811.299	27332
811.441	27401
811.582	27427
811.724	27256
811.865	27237
812.007	27119
812.148	27192
812.29	27195
812.431	27401
812.573	27622
812.714	27641
812.855	27660
812.997	27804
813.138	27816
813.279	27816
813.421	27545
813.562	27568
813.703	27523
813.845	27416
813.986	27104
814.127	26868
814.268	26842
814.41	26982
814.551	26940
814.692	26967
814.833	26891
814.974	26667
815.115	26842
815.256	26750
815.397	26686
815.539	26587
815.68	26663
815.821	26590
815.962	26617
816.103	26724
816.244	26533
816.385	26473
816.526	26309
816.666	26084
816.807	25993
816.948	26237
817.089	26244
817.23	26115
817.371	26157
817.512	26107
817.653	26206
817.793	26126
817.934	26100
818.075	26168
818.216	26221
818.356	26142
818.497	26126
818.638	26035
818.778	25879
818.919	25860
819.06	25898
819.2	25917
819.341	26142
819.481	26157
819.622	26309
819.762	26408
819.903	26514
820.043	26153
820.184	26187
820.324	26180
820.465	26244
820.605	26294
820.746	26225
820.886	26096
821.026	26161
821.167	26332
821.307	26282
821.447	26065
821.588	26039
821.728	25894
821.868	25883
822.008	25655
822.149	25571
822.289	25613
822.429	25358
822.569	25396
822.709	25445
822.849	25145
822.99	25069
823.13	25004
823.27	25012
823.41	24890
823.55	24757
823.69	24867
823.83	24932
823.97	24848
824.11	24738
824.25	24745
824.389	24802
824.529	24882
824.669	24719
824.809	24905
824.949	24859
825.089	24837
825.228	24791
825.368	24726
825.508	24582
825.648	24448
825.787	24730
825.927	24665
826.067	24475
826.206	24585
826.346	24692
826.485	24795
826.625	24642
826.765	24726
826.904	24521
827.044	24376
827.183	24460
827.323	24304
827.462	24334
827.601	24437
827.741	24232
827.88	24239
828.02	24239
828.159	24308
828.298	24243
828.437	24395
828.577	24315
828.716	24315
828.855	24197
828.994	24121
829.134	24098
829.273	24091
829.412	24022
829.551	24095
829.69	24136
829.829	24095
829.968	24041
830.107	24140
830.246	24030
830.385	23878
830.524	23954
830.663	23843
830.802	23851
830.941	23646
831.08	23604
831.219	23847
831.357	23775
831.496	23935
831.635	23649
831.774	23600
831.913	23657
832.051	23433
832.19	23539
832.329	23672
832.467	23433
832.606	23326
832.744	23322
832.883	23379
833.022	23239
833.16	23288
833.299	23573
833.437	23318
833.576	23345
833.714	23524
833.852	23402
833.991	23577
834.129	23429
834.267	23505
834.406	23478
834.544	23501
834.682	23509
834.821	23478
834.959	23509
835.097	23383
835.235	23395
835.373	23539
835.511	23372
835.65	23181
835.788	23322
835.926	23174
836.064	23185
836.202	23162
836.34	23292
836.478	23440
836.615	23326
836.753	23208
836.891	23334
837.029	23273
837.167	23315
837.305	23265
837.443	23212
837.58	23124
837.718	23174
837.856	23193
837.993	23147
838.131	23136
838.269	22968
838.406	23121
838.544	22999
838.681	22782
838.819	22824
838.956	22653
839.094	22615
839.231	22660
839.369	22809
839.506	23022
839.643	22927
839.781	22706
839.918	22580
840.055	22672
840.193	22603
840.33	22607
840.467	22561
840.604	22573
840.742	22927
840.879	22356
841.016	22459
841.153	22432
841.29	22672
841.427	22413
841.564	22660
841.701	22569
841.838	22462
841.975	22356
842.112	22440
842.249	22481
842.385	22428
842.522	22664
842.659	22402
842.796	22428
842.933	22398
843.069	22200
843.206	22196
843.343	22367
843.479	22375
843.616	22253
843.752	22226
843.889	22135
844.025	22246
844.162	22101
844.298	22173
844.435	22135
844.571	22162
844.708	22135
844.844	22295
844.98	22169
845.117	22207
845.253	22032
845.389	21930
845.525	21960
845.661	21899
845.798	21926
845.934	21800
846.07	21831
846.206	21876
846.342	21892
846.478	21743
846.614	21610
846.75	21507
846.886	21507
847.022	21743
847.158	21660
847.294	21622
847.429	21747
847.565	21519
847.701	21720
847.837	21447
847.972	21237
848.108	21412
848.244	21374
848.379	21192
848.515	21146
848.65	21150
848.786	21047
848.921	21169
849.057	21245
849.192	21321
849.328	21180
849.463	21135
849.598	21116
849.734	21096
849.869	21104
850.004	20963
850.14	21005
850.275	20872
850.41	20918
850.545	20887
850.68	20876
850.815	20986
850.95	20941
851.085	21138
851.22	21100
851.355	20914
851.49	21020
851.625	20868
851.76	20883
851.895	20975
852.03	20956
852.165	21013
852.299	20933
852.434	21058
852.569	20941
852.703	20994
852.838	20872
852.973	21104
853.107	21062
853.242	20899
853.376	20769
853.511	20617
853.645	20693
853.78	20796
853.914	20667
854.048	20720
854.183	20697
854.317	20762
854.451	20826
854.585	20758
854.72	20773
854.854	20834
854.988	20708
855.122	20689
855.256	20617
855.39	20720
855.524	20762
855.658	20853
855.792	20758
855.926	20834
856.06	20800
856.194	20796
856.327	20754
856.461	20655
856.595	20712
856.729	20678
856.862	20891
856.996	20773
857.13	20754
857.263	20769
857.397	20823
857.53	20720
857.664	20724
857.797	20739
857.931	20921
858.064	20788
858.197	20887
858.331	20697
858.464	20731
858.597	20590
858.731	20773
858.864	20655
858.997	20686
859.13	20735
859.263	20777
859.396	20811
859.529	20724
859.662	20697
859.795	20617
859.928	20777
860.061	20963
860.194	21001
860.327	20830
860.46	20705
860.592	20796
860.725	20845
860.858	20834
860.99	20651
861.123	20739
861.256	20689
861.388	20746
861.521	21488
861.653	20697
861.786	20537
861.918	20674
862.05	20530
862.183	20621
862.315	20602
862.447	20830
862.58	20678
862.712	20442
862.844	20404
862.976	20606
863.108	20514
863.24	20891
863.372	20461
863.504	20522
863.636	20454
863.768	20484
863.9	20442
864.032	20476
864.164	20503
864.296	20511
864.428	20682
864.559	20511
864.691	20469
864.823	20476
864.954	20419
865.086	20415
865.217	20476
865.349	20290
865.48	20385
865.612	20366
865.743	20541
865.875	20465
866.006	20332
866.137	20434
866.269	20396
866.4	20332
866.531	20282
866.662	20199
866.793	20195
866.924	20347
867.055	20454
867.186	20332
867.317	20248
867.448	20309
867.579	20252
867.71	20408
867.841	20271
867.972	20366
868.103	20278
868.233	20362
868.364	20320
868.495	20355
868.625	20556
868.756	20705
868.886	20412
869.017	20537
869.147	20644
869.278	20750
869.408	20640
869.539	20556
869.669	20655
869.799	20594
869.929	20754
870.06	20625
870.19	20902
870.32	20891
870.45	20895
870.58	20956
870.71	20994
870.84	21005
870.97	20941
871.1	21032
871.23	21165
871.36	21199
871.489	20944
871.619	21024
871.749	21154
871.879	21230
872.008	21268
872.138	21180
872.267	21127
872.397	21047
872.526	20952
872.656	20956
872.785	20921
872.915	21165
873.044	21279
873.173	21157
873.303	21188
873.432	21348
873.561	21237
873.69	21180
873.819	21127
873.948	21188
874.077	21070
874.206	21108
874.335	21104
874.464	21207
874.593	21340
874.722	21344
874.851	21412
874.979	21382
875.108	21492
875.237	21408
875.365	21359
875.494	21367
875.623	21416
875.751	21401
875.88	21386
876.008	21580
876.136	21564
876.265	21831
876.393	21865
876.521	21895
876.65	21850
876.778	21846
876.906	21797
877.034	21720
877.162	21797
877.29	21686
877.418	21869
877.546	21804
877.674	21800
877.802	21686
877.93	21800
878.058	21732
878.185	21618
878.313	21690
878.441	21766
878.568	21450
878.696	21778
878.824	21831
878.951	21686
879.079	22025
879.206	22090
879.333	22055
879.461	21823
879.588	21892
879.715	21979
879.842	22025
879.97	21778
880.097	21564
880.224	21572
880.351	21553
880.478	21679
880.605	21477
880.732	21530
880.859	21857
880.986	21549
881.112	21717
881.239	21485
881.366	21393
881.493	21260
881.619	21283
881.746	21173
881.872	21096
881.999	21180
882.125	21058
882.252	21252
882.378	21043
882.505	21302
882.631	21005
882.757	20773
882.883	20971
883.01	20990
883.136	20864
883.262	20773
883.388	20632
883.514	20845
883.64	20918
883.766	20754
883.892	20682
884.018	20697
884.143	20914
884.269	20998
884.395	20659
884.52	20522
884.646	20674
884.772	20552
884.897	20298
885.023	20606
885.148	20640
885.274	20743
885.399	20568
885.524	20575
885.65	20514
885.775	20537
885.9	20480
886.025	20625
886.15	20663
886.275	20499
886.4	20488
886.525	20469
886.65	20396
886.775	20473
886.9	20579
887.025	20838
887.149	20427
887.274	20271
887.399	20389
887.523	20317
887.648	20191
887.773	20187
887.897	20301
888.021	20317
888.146	20301
888.27	20393
888.395	20400
888.519	20431
888.643	20355
888.767	20366
888.891	20202
889.015	20168
889.139	20210
889.263	20046
889.387	20256
889.511	20313
889.635	20282
889.759	20092
889.883	20195
890.006	20054
890.13	20195
890.254	19917
890.377	20058
890.501	19887
890.624	19860
890.748	19856
890.871	19734
890.995	19658
891.118	19689
891.241	19818
891.364	19594
891.488	19761
891.611	19693
891.734	19723
891.857	19693
891.98	19575
892.103	19685
892.226	19696
892.349	19666
892.471	19529
892.594	19628
892.717	19674
892.839	19548
892.962	19689
893.085	19559
893.207	19708
893.33	19495
893.452	19540
893.575	19578
893.697	19510
893.819	19723
893.941	19765
894.064	19700
894.186	19575
894.308	19464
894.43	19655
894.552	19776
894.674	19727
894.796	19434
894.918	19430
895.04	19525
895.161	19719
895.283	19674
895.405	19521
895.526	19632
895.648	19571
895.769	19590
895.891	19635
896.012	19586
896.134	19601
896.255	19582
896.376	19590
896.498	19628
896.619	19632
896.74	19620
896.861	19689
896.982	19906
897.103	20088
897.224	19875
897.345	19803
897.466	19674
897.587	19849
897.708	19970
897.828	19845
897.949	19761
898.07	19563
898.19	19693
898.311	19894
898.431	19761
898.552	19830
898.672	19849
898.792	19856
898.913	20016
899.033	19727
899.153	19590
899.273	19529
899.393	19582
899.513	19575
899.633	19689
899.753	19613
899.873	19476
899.993	19578
900.113	19464
900.232	19575
900.352	19441
900.472	19457
900.591	19301
900.711	19316
900.83	19343
900.95	19434
901.069	19331
901.189	19289
901.308	19133
901.427	19053
901.546	18970
901.665	19027
901.784	18859
901.904	18833
902.023	18738
902.141	18574
902.26	18448
902.379	18601
902.498	18494
902.617	18471
902.735	18513
902.854	18498
902.973	18338
903.091	18190
903.21	18167
903.328	18167
903.446	18087
903.565	17984
903.683	17927
903.801	17855
903.919	17946
904.038	17973
904.156	17752
904.274	17843
904.392	17745
904.51	17680
904.627	17661
904.745	17771
904.863	17855
904.981	17577
905.098	17509
905.216	17372
905.334	17501
905.451	17490
905.569	17459
905.686	17501
905.803	17516
905.921	17212
906.038	17398
906.155	17254
906.272	17212
906.389	17132
906.506	16923
906.623	17025
906.74	17014
906.857	16904
906.974	16873
907.091	17014
907.208	17041
907.324	16984
907.441	16904
907.557	16672
907.674	16713
907.79	16615
907.907	16710
908.023	16774
908.139	16702
908.256	16683
908.372	16660
908.488	16596
908.604	16531
908.72	16413
908.836	16436
908.952	16382
909.068	16371
909.184	16535
909.3	16394
909.415	16417
909.531	16344
909.647	16219
909.762	16131
909.878	16150
909.993	16124
910.108	16090
910.224	16063
910.339	15994
910.454	16051
910.57	15975
910.685	15911
910.8	16139
910.915	16063
911.03	15926
911.145	15739
911.259	15694
911.374	15755
911.489	15648
911.604	15557
911.718	15416
911.833	15557
911.947	15443
912.062	15504
912.176	15534
912.291	15504
912.405	15542
912.519	15743
912.633	15625
912.748	15564
912.862	15519
912.976	15344
913.09	15199
913.204	15245
913.318	15279
913.431	15355
913.545	15408
913.659	15412
913.772	15245
913.886	15085
914	15093
914.113	15169
914.226	15260
914.34	15150
914.453	15032
914.566	15070
914.68	15062
914.793	14960
914.906	14857
915.019	14758
915.132	14731
915.245	14739
915.358	14765
915.47	14712
915.583	14659
915.696	14815
915.809	14910
915.921	14849
916.034	14670
916.146	14629
916.259	14655
916.371	14674
916.483	14678
916.595	14549
916.708	14522
916.82	14530
916.932	14495
917.044	14590
917.156	14632
917.268	14400
917.38	14412
917.491	14377
917.603	14446
917.715	14324
917.826	14431
917.938	14473
918.049	14244
918.161	14381
918.272	14476
918.384	14389
918.495	14317
918.606	14172
918.717	14187
918.828	14161
918.939	14298
919.05	13978
919.161	14218
919.272	13871
919.383	14020
919.494	14206
919.604	14343
919.715	14225
919.826	14073
919.936	14088
920.047	14176
920.157	14100
920.267	14286
920.378	14149
920.488	14130
920.598	14252
920.708	14366
920.818	14244
920.928	14237
921.038	14370
921.148	14461
921.258	14164
921.368	14107
921.477	13970
921.587	13879
921.697	13731
921.806	13902
921.916	13689
922.025	13552
922.134	13571
922.244	13483
922.353	13575
922.462	13407
922.571	13320
922.68	13217
922.789	13209
922.898	13190
923.007	13137
923.116	13247
923.224	13152
923.333	13160
923.442	12993
923.55	13027
923.659	13061
923.767	13027
923.876	13034
923.984	13004
924.092	12939
924.201	12973
924.309	12973
924.417	12901
924.525	12844
924.633	12840
924.741	13845
924.849	12681
924.956	12757
925.064	12700
925.172	12544
925.279	12574
925.387	12635
925.494	12597
925.602	12760
925.709	12635
925.816	12517
925.924	12669
926.031	12669
926.138	12525
926.245	12566
926.352	12521
926.459	12593
926.566	12627
926.673	12540
926.779	12399
926.886	12418
926.993	12266
927.099	12129
927.206	12194
927.312	12091
927.419	12258
927.525	12239
927.631	12163
927.737	12098
927.843	11980
927.95	11908
928.056	12038
928.162	11999
928.267	12098
928.373	12764
928.479	12148
928.585	11923
928.69	11954
928.796	12030
928.901	11939
929.007	11790
929.112	11863
929.218	11874
929.323	11824
929.428	11836
929.533	11783
929.638	11661
929.743	11752
929.848	11748
929.953	11680
930.058	11604
930.163	11520
930.267	11493
930.372	11528
930.477	11356
930.581	11615
930.685	11429
930.79	11284
930.894	11433
930.998	11231
931.103	11474
931.207	11140
931.311	11029
931.415	10980
931.519	10687
931.623	10763
