Data from test_V78500241_2912.txt Node
Date: Fri Mar 25 15:30:08 CST 2022
User: usil
Spectrometer: V785-0024
Trigger mode: 0
Integration Time (sec): 4.000000E-1
Scans to average: 1
Nonlinearity correction enabled: false
Boxcar width: 0
Storing dark spectrum: false
XAxis mode: Wavelengths
Number of Pixels in Spectrum: 1024
>>>>>Begin Spectral Data<<<<<
801.071	27340
801.214	27230
801.356	27077
801.499	27055
801.641	26925
801.783	26807
801.926	26777
802.068	26739
802.211	26724
802.353	26720
802.496	26701
802.638	26427
802.78	26438
802.923	26438
803.065	26389
803.208	26400
803.35	26370
803.492	26640
803.635	26659
803.777	26530
803.919	26545
804.061	26975
804.204	26750
804.346	26670
804.488	26545
804.63	26648
804.773	26533
804.915	26663
805.057	26689
805.199	26720
805.341	26636
805.483	26712
805.626	26697
805.768	26579
805.91	26556
806.052	26678
806.194	26716
806.336	26872
806.478	26594
806.62	26693
806.762	26876
806.904	26929
807.046	27367
807.188	27176
807.33	27096
807.472	27298
807.614	27062
807.756	27146
807.898	26967
808.04	26819
808.182	26815
808.324	26944
808.465	27066
808.607	27146
808.749	27226
808.891	27294
809.033	27393
809.174	27287
809.316	27260
809.458	27332
809.6	27302
809.741	27351
809.883	27310
810.025	27526
810.166	27553
810.308	27568
810.45	27511
810.591	27656
810.733	27298
810.875	27218
811.016	27389
811.158	27214
811.299	27500
811.441	27435
811.582	27599
811.724	27374
811.865	27332
812.007	27218
812.148	27260
812.29	27389
812.431	27553
812.573	27625
812.714	27770
812.855	27728
812.997	27918
813.138	27941
813.279	27983
813.421	27717
813.562	27812
813.703	27732
813.845	27496
813.986	27283
814.127	27142
814.268	26952
814.41	26849
814.551	26849
814.692	27081
814.833	26899
814.974	26910
815.115	27093
815.256	26864
815.397	26842
815.539	26902
815.68	26773
815.821	26697
815.962	26804
816.103	26720
816.244	26609
816.385	26556
816.526	26674
816.666	26404
816.807	26130
816.948	26393
817.089	26461
817.23	26358
817.371	26157
817.512	26111
817.653	26172
817.793	26180
817.934	26206
818.075	26069
818.216	26229
818.356	26183
818.497	26172
818.638	25898
818.778	25868
818.919	25989
819.06	26001
819.2	26020
819.341	26225
819.481	26240
819.622	26286
819.762	26503
819.903	26499
820.043	26374
820.184	26423
820.324	26248
820.465	26313
820.605	26419
820.746	26412
820.886	26183
821.026	26362
821.167	26225
821.307	26324
821.447	26225
821.588	26103
821.728	26157
821.868	25845
822.008	25662
822.149	25734
822.289	25674
822.429	25464
822.569	25407
822.709	25403
822.849	25187
822.99	25164
823.13	25232
823.27	25076
823.41	25053
823.55	24909
823.69	25012
823.83	24985
823.97	24840
824.11	24798
824.25	24715
824.389	24829
824.529	24856
824.669	24810
824.809	24886
824.949	24989
825.089	24882
825.228	24779
825.368	24707
825.508	24730
825.648	24528
825.787	24745
825.927	24783
826.067	24589
826.206	24570
826.346	24722
826.485	24719
826.625	24570
826.765	24825
826.904	24703
827.044	24403
827.183	24369
827.323	24361
827.462	24422
827.601	24414
827.741	24464
827.88	24426
828.02	24152
828.159	24372
828.298	24262
828.437	24433
828.577	24334
828.716	24395
828.855	24228
828.994	24213
829.134	24171
829.273	24102
829.412	23878
829.551	24026
829.69	24117
829.829	24117
829.968	24106
830.107	24159
830.246	24087
830.385	23870
830.524	23908
830.663	23756
830.802	23809
830.941	23627
831.08	23691
831.219	23813
831.357	23756
831.496	23847
831.635	23615
831.774	23562
831.913	23649
832.051	23531
832.19	23402
832.329	23425
832.467	23402
832.606	23250
832.744	23311
832.883	23436
833.022	23296
833.16	23452
833.299	23345
833.437	23337
833.576	23478
833.714	23379
833.852	23398
833.991	23406
834.129	23509
834.267	23391
834.406	23554
834.544	23452
834.682	23452
834.821	23417
834.959	23520
835.097	23261
835.235	23387
835.373	23318
835.511	23277
835.65	23250
835.788	23242
835.926	23025
836.064	23117
836.202	23056
836.34	23235
836.478	23337
836.615	23265
836.753	23254
836.891	23250
837.029	23181
837.167	23151
837.305	23261
837.443	23181
837.58	23037
837.718	23174
837.856	23204
837.993	22999
838.131	22942
838.269	22820
838.406	22980
838.544	22892
838.681	22637
838.819	22767
838.956	22569
839.094	22459
839.231	22577
839.369	22637
839.506	22927
839.643	22763
839.781	22603
839.918	22432
840.055	22489
840.193	22493
840.33	22409
840.467	22542
840.604	22478
840.742	22774
840.879	22421
841.016	22455
841.153	22333
841.29	22428
841.427	22382
841.564	22618
841.701	22443
841.838	22512
841.975	22352
842.112	22459
842.249	22284
842.385	22265
842.522	22462
842.659	22303
842.796	22291
842.933	22158
843.069	22276
843.206	22291
843.343	22284
843.479	22219
843.616	22116
843.752	22063
843.889	22021
844.025	22181
844.162	21937
844.298	22101
844.435	21991
844.571	21960
844.708	22063
844.844	22063
844.98	22196
845.117	22135
845.253	21945
845.389	21789
845.525	21857
845.661	21812
845.798	21800
845.934	21774
846.07	21717
846.206	21812
846.342	21895
846.478	21690
846.614	21755
846.75	21507
846.886	21500
847.022	21610
847.158	21500
847.294	21488
847.429	21485
847.565	21492
847.701	21671
847.837	21123
847.972	21233
848.108	21355
848.244	21332
848.379	21123
848.515	21081
848.65	21055
848.786	20967
848.921	21028
849.057	21268
849.192	21169
849.328	21119
849.463	21058
849.598	21108
849.734	21081
849.869	20933
850.004	20910
850.14	20864
850.275	20826
850.41	20746
850.545	20842
850.68	20819
850.815	20819
850.95	20887
851.085	20921
851.22	20948
851.355	20925
851.49	20838
851.625	20857
851.76	20804
851.895	20667
852.03	20853
852.165	20914
852.299	20963
852.434	20937
852.569	20853
852.703	20739
852.838	20975
852.973	20998
853.107	20861
853.242	20807
853.376	20663
853.511	20609
853.645	20552
853.78	20746
853.914	20651
854.048	20560
854.183	20575
854.317	20708
854.451	20887
854.585	20670
854.72	20659
854.854	20708
854.988	20644
855.122	20712
855.256	20583
855.39	20663
855.524	20705
855.658	20625
855.792	20708
855.926	20746
856.06	20697
856.194	20686
856.327	20636
856.461	20644
856.595	20568
856.729	20632
856.862	20712
856.996	20651
857.13	20705
857.263	20887
857.397	20674
857.53	20693
857.664	20640
857.797	20678
857.931	20788
858.064	20777
858.197	20708
858.331	20743
858.464	20602
858.597	20598
858.731	20640
858.864	20629
858.997	20636
859.13	20739
859.263	20648
859.396	20830
859.529	20545
859.662	20644
859.795	20587
859.928	20739
860.061	20864
860.194	20792
860.327	20689
860.46	20750
860.592	20788
860.725	20754
860.858	20758
860.99	20682
861.123	20571
861.256	20579
861.388	20651
861.521	21351
861.653	20507
861.786	20522
861.918	20480
862.05	20495
862.183	20537
862.315	20617
862.447	20773
862.58	20518
862.712	20381
862.844	20343
862.976	20415
863.108	20469
863.24	20914
863.372	20377
863.504	20267
863.636	20389
863.768	20358
863.9	20339
864.032	20377
864.164	20305
864.296	20419
864.428	20393
864.559	20507
864.691	20400
864.823	20412
864.954	20336
865.086	20298
865.217	20332
865.349	20145
865.48	20358
865.612	20343
865.743	20358
865.875	20244
866.006	20191
866.137	20290
866.269	20294
866.4	20218
866.531	20301
866.662	20183
866.793	20130
866.924	20229
867.055	20244
867.186	20324
867.317	20282
867.448	20054
867.579	20206
867.71	20191
867.841	20100
867.972	20282
868.103	20263
868.233	20229
868.364	20259
868.495	20347
868.625	20412
868.756	20575
868.886	20362
869.017	20438
869.147	20564
869.278	20606
869.408	20476
869.539	20389
869.669	20545
869.799	20518
869.929	20594
870.06	20655
870.19	20819
870.32	20800
870.45	20705
870.58	20735
870.71	21005
870.84	21116
870.97	20929
871.1	20895
871.23	21165
871.36	21043
871.489	21032
871.619	21024
871.749	21020
871.879	21116
872.008	21184
872.138	21036
872.267	21043
872.397	20823
872.526	20971
872.656	20895
872.785	20967
872.915	21131
873.044	21036
873.173	21116
873.303	21214
873.432	21116
873.561	21070
873.69	21135
873.819	21070
873.948	21184
874.077	21112
874.206	20986
874.335	21051
874.464	21070
874.593	21340
874.722	21207
874.851	21374
874.979	21199
875.108	21344
875.237	21291
875.365	21249
875.494	21332
875.623	21408
875.751	21367
875.88	21428
876.008	21519
876.136	21504
876.265	21732
876.393	21915
876.521	21667
876.65	21800
876.778	21667
876.906	21648
877.034	21595
877.162	21663
877.29	21682
877.418	21709
877.546	21614
877.674	21641
877.802	21625
877.93	21637
878.058	21614
878.185	21538
878.313	21622
878.441	21625
878.568	21450
878.696	21504
878.824	21743
878.951	21732
879.079	21781
879.206	21937
879.333	21869
879.461	21671
879.588	21812
879.715	21785
879.842	21964
879.97	21709
880.097	21557
880.224	21431
880.351	21553
880.478	21523
880.605	21351
880.732	21492
880.859	21743
880.986	21530
881.112	21515
881.239	21336
881.366	21241
881.493	21207
881.619	21138
881.746	21104
881.872	21176
881.999	21047
882.125	21043
882.252	21058
882.378	21013
882.505	21176
882.631	21017
882.757	20918
882.883	20895
883.01	20819
883.136	20826
883.262	20621
883.388	20587
883.514	20834
883.64	20674
883.766	20640
883.892	20530
884.018	20651
884.143	20724
884.269	20727
884.395	20552
884.52	20427
884.646	20442
884.772	20469
884.897	20377
885.023	20488
885.148	20473
885.274	20476
885.399	20526
885.524	20446
885.65	20454
885.775	20522
885.9	20484
886.025	20533
886.15	20396
886.275	20438
886.4	20343
886.525	20400
886.65	20275
886.775	20324
886.9	20503
887.025	20659
887.149	20412
887.274	20278
887.399	20358
887.523	20191
887.648	20221
887.773	20111
887.897	20320
888.021	20294
888.146	20122
888.27	20313
888.395	20180
888.519	20199
888.643	20180
888.767	20191
888.891	20233
889.015	20046
889.139	20020
889.263	19997
889.387	20275
889.511	20256
889.635	20145
889.759	19959
889.883	19993
890.006	19898
890.13	20008
890.254	19951
890.377	19879
890.501	19704
890.624	19765
890.748	19776
890.871	19609
890.995	19586
891.118	19567
891.241	19628
891.364	19582
891.488	19742
891.611	19567
891.734	19582
891.857	19605
891.98	19529
892.103	19658
892.226	19597
892.349	19540
892.471	19430
892.594	19506
892.717	19533
892.839	19529
892.962	19548
893.085	19601
893.207	19472
893.33	19441
893.452	19339
893.575	19567
893.697	19582
893.819	19624
893.941	19772
894.064	19578
894.186	19457
894.308	19415
894.43	19525
894.552	19548
894.674	19521
894.796	19403
894.918	19407
895.04	19438
895.161	19635
895.283	19537
895.405	19457
895.526	19567
895.648	19533
895.769	19495
895.891	19518
896.012	19601
896.134	19590
896.255	19567
896.376	19514
896.498	19491
896.619	19563
896.74	19499
896.861	19632
896.982	19894
897.103	19997
897.224	19856
897.345	19765
897.466	19582
897.587	19757
897.708	19795
897.828	19799
897.949	19734
898.07	19575
898.19	19776
898.311	19833
898.431	19689
898.552	19769
898.672	19795
898.792	19791
898.913	19799
899.033	19727
899.153	19518
899.273	19544
899.393	19495
899.513	19540
899.633	19597
899.753	19487
899.873	19430
899.993	19586
900.113	19495
900.232	19457
900.352	19388
900.472	19464
900.591	19278
900.711	19221
900.83	19365
900.95	19400
901.069	19297
901.189	19183
901.308	19053
901.427	18890
901.546	18928
901.665	18905
901.784	18886
901.904	18764
902.023	18734
902.141	18509
902.26	18456
902.379	18418
902.498	18414
902.617	18479
902.735	18422
902.854	18399
902.973	18319
903.091	18106
903.21	17977
903.328	18148
903.446	18072
903.565	17939
903.683	17927
903.801	17726
903.919	17889
904.038	17828
904.156	17707
904.274	17722
904.392	17642
904.51	17642
904.627	17649
904.745	17775
904.863	17745
904.981	17429
905.098	17395
905.216	17372
905.334	17364
905.451	17322
905.569	17242
905.686	17372
905.803	17372
905.921	17010
906.038	17178
906.155	17079
906.272	16961
906.389	17098
906.506	16809
906.623	16812
906.74	16820
906.857	16759
906.974	16790
907.091	16911
907.208	16957
907.324	16896
907.441	16759
907.557	16687
907.674	16656
907.79	16455
907.907	16527
908.023	16634
908.139	16622
908.256	16542
908.372	16546
908.488	16478
908.604	16428
908.72	16272
908.836	16314
908.952	16276
909.068	16417
909.184	16428
909.3	16318
909.415	16360
909.531	16322
909.647	16154
909.762	15979
909.878	16063
909.993	16006
910.108	16044
910.224	16097
910.339	15983
910.454	15922
910.57	15812
910.685	15838
910.8	16074
910.915	16032
911.03	15857
911.145	15663
911.259	15675
911.374	15656
911.489	15648
911.604	15576
911.718	15329
911.833	15450
911.947	15340
912.062	15249
912.176	15363
912.291	15310
912.405	15344
912.519	15614
912.633	15633
912.748	15496
912.862	15351
912.976	15252
913.09	15089
913.204	15176
913.318	15321
913.431	15279
913.545	15287
913.659	15302
913.772	15112
913.886	15017
914	14982
914.113	15222
914.226	15157
914.34	14956
914.453	14971
914.566	15036
914.68	14952
914.793	14937
914.906	14686
915.019	14613
915.132	14541
915.245	14667
915.358	14674
915.47	14651
915.583	14602
915.696	14693
915.809	14720
915.921	14811
916.034	14602
916.146	14621
916.259	14568
916.371	14610
916.483	14606
916.595	14526
916.708	14476
916.82	14415
916.932	14434
917.044	14400
917.156	14514
917.268	14183
917.38	14305
917.491	14267
917.603	14298
917.715	14374
917.826	14511
917.938	14214
918.049	14134
918.161	14244
918.272	14393
918.384	14370
918.495	14263
918.606	14138
918.717	13959
918.828	14073
918.939	14119
919.05	14073
919.161	14069
919.272	13925
919.383	13860
919.494	14027
919.604	14267
919.715	14058
919.826	14008
919.936	14043
920.047	14142
920.157	14111
920.267	14271
920.378	14012
920.488	13936
920.598	14229
920.708	14305
920.818	14134
920.928	14210
921.038	14271
921.148	14244
921.258	14043
921.368	13917
921.477	13917
921.587	13742
921.697	13696
921.806	13875
921.916	13681
922.025	13582
922.134	13472
922.244	13480
922.353	13464
922.462	13362
922.571	13308
922.68	13118
922.789	13221
922.898	13145
923.007	13110
923.116	13099
923.224	13088
923.333	13008
923.442	12993
923.55	12943
923.659	12962
923.767	13000
923.876	12882
923.984	12913
924.092	12863
924.201	12821
924.309	12875
924.417	12783
924.525	12802
924.633	12821
924.741	13734
924.849	12517
924.956	12658
925.064	12540
925.172	12506
925.279	12437
925.387	12593
925.494	12574
925.602	12650
925.709	12528
925.816	12422
925.924	12471
926.031	12650
926.138	12494
926.245	12658
926.352	12437
926.459	12585
926.566	12570
926.673	12414
926.779	12300
926.886	12292
926.993	12197
927.099	12144
927.206	12045
927.312	12026
927.419	12102
927.525	12182
927.631	12133
927.737	11912
927.843	11958
927.95	11916
928.056	11923
928.162	11984
928.267	11973
928.373	12563
928.479	12041
928.585	11745
928.69	11855
928.796	11927
928.901	11904
929.007	11634
929.112	11927
929.218	11790
929.323	11741
929.428	11608
929.533	11824
929.638	11600
929.743	11649
929.848	11668
929.953	11634
930.058	11623
930.163	11356
930.267	11402
930.372	11410
930.477	11334
930.581	11592
930.685	11471
930.79	11212
930.894	11258
930.998	11223
931.103	11406
931.207	11094
931.311	10949
931.415	10843
931.519	10672
931.623	10649
