Data from test_V78500241_3372.txt Node
Date: Fri Mar 25 15:33:20 CST 2022
User: usil
Spectrometer: V785-0024
Trigger mode: 0
Integration Time (sec): 4.000000E-1
Scans to average: 1
Nonlinearity correction enabled: false
Boxcar width: 0
Storing dark spectrum: false
XAxis mode: Wavelengths
Number of Pixels in Spectrum: 1024
>>>>>Begin Spectral Data<<<<<
801.071	27283
801.214	27249
801.356	26975
801.499	26929
801.641	26815
801.783	26773
801.926	26693
802.068	26720
802.211	26594
802.353	26594
802.496	26511
802.638	26526
802.78	26221
802.923	26195
803.065	26240
803.208	26195
803.35	26545
803.492	26629
803.635	26609
803.777	26465
803.919	26552
804.061	26826
804.204	26705
804.346	26442
804.488	26446
804.63	26583
804.773	26488
804.915	26579
805.057	26667
805.199	26453
805.341	26564
805.483	26613
805.626	26651
805.768	26556
805.91	26568
806.052	26655
806.194	26450
806.336	26758
806.478	26476
806.62	26587
806.762	26693
806.904	26906
807.046	27058
807.188	27028
807.33	27028
807.472	27108
807.614	26834
807.756	26975
807.898	26807
808.04	26758
808.182	26648
808.324	26925
808.465	26952
808.607	27020
808.749	27195
808.891	27283
809.033	27306
809.174	27245
809.316	27245
809.458	27306
809.6	27287
809.741	27233
809.883	27401
810.025	27519
810.166	27488
810.308	27534
810.45	27473
810.591	27412
810.733	27378
810.875	27245
811.016	27256
811.158	27150
811.299	27389
811.441	27401
811.582	27336
811.724	27233
811.865	27127
812.007	27093
812.148	27070
812.29	27169
812.431	27340
812.573	27511
812.714	27724
812.855	27694
812.997	27850
813.138	28025
813.279	27869
813.421	27823
813.562	27671
813.703	27667
813.845	27397
813.986	27157
814.127	26883
814.268	26769
814.41	27013
814.551	27032
814.692	26990
814.833	26819
814.974	26754
815.115	26842
815.256	26804
815.397	26868
815.539	26773
815.68	26758
815.821	26705
815.962	26743
816.103	26613
816.244	26640
816.385	26590
816.526	26374
816.666	26271
816.807	26176
816.948	26218
817.089	26309
817.23	26138
817.371	26126
817.512	26214
817.653	26290
817.793	26145
817.934	26233
818.075	26172
818.216	26252
818.356	26130
818.497	25970
818.638	25932
818.778	25963
818.919	25822
819.06	25932
819.2	26065
819.341	26092
819.481	26111
819.622	26240
819.762	26434
819.903	26347
820.043	26389
820.184	26218
820.324	26317
820.465	26225
820.605	26271
820.746	26145
820.886	26145
821.026	26202
821.167	26214
821.307	26256
821.447	26229
821.588	26016
821.728	26005
821.868	25860
822.008	25666
822.149	25616
822.289	25571
822.429	25312
822.569	25381
822.709	25339
822.849	25129
822.99	25392
823.13	25107
823.27	25046
823.41	24924
823.55	24837
823.69	24935
823.83	25072
823.97	25008
824.11	24734
824.25	24749
824.389	24863
824.529	24905
824.669	24738
824.809	24787
824.949	24875
825.089	24817
825.228	24776
825.368	24471
825.508	24696
825.648	24711
825.787	24722
825.927	24734
826.067	24597
826.206	24684
826.346	24753
826.485	24757
826.625	24570
826.765	24757
826.904	24566
827.044	24452
827.183	24254
827.323	24330
827.462	24441
827.601	24410
827.741	24346
827.88	24517
828.02	24270
828.159	24273
828.298	24372
828.437	24422
828.577	24292
828.716	24471
828.855	24205
828.994	24095
829.134	24144
829.273	24243
829.412	24136
829.551	23988
829.69	24007
829.829	24114
829.968	24121
830.107	24273
830.246	24114
830.385	23996
830.524	23935
830.663	23908
830.802	23779
830.941	23794
831.08	23687
831.219	23821
831.357	23805
831.496	24049
831.635	23676
831.774	23596
831.913	23596
832.051	23478
832.19	23368
832.329	23520
832.467	23448
832.606	23299
832.744	23311
832.883	23387
833.022	23334
833.16	23444
833.299	23387
833.437	23261
833.576	23471
833.714	23501
833.852	23551
833.991	23505
834.129	23547
834.267	23535
834.406	23474
834.544	23444
834.682	23493
834.821	23516
834.959	23589
835.097	23493
835.235	23520
835.373	23326
835.511	23467
835.65	23379
835.788	23448
835.926	23216
836.064	23086
836.202	23048
836.34	23497
836.478	23337
836.615	23231
836.753	23345
836.891	23326
837.029	23349
837.167	23204
837.305	23216
837.443	23212
837.58	23044
837.718	23265
837.856	23083
837.993	23193
838.131	23128
838.269	23044
838.406	23014
838.544	23025
838.681	22694
838.819	22729
838.956	22615
839.094	22653
839.231	22691
839.369	22725
839.506	23014
839.643	22938
839.781	22637
839.918	22618
840.055	22698
840.193	22592
840.33	22470
840.467	22599
840.604	22485
840.742	22866
840.879	22428
841.016	22516
841.153	22489
841.29	22577
841.427	22603
841.564	22691
841.701	22740
841.838	22508
841.975	22432
842.112	22557
842.249	22402
842.385	22421
842.522	22546
842.659	22459
842.796	22306
842.933	22265
843.069	22287
843.206	22379
843.343	22421
843.479	22398
843.616	22386
843.752	22101
843.889	22173
844.025	22257
844.162	22139
844.298	22230
844.435	22021
844.571	22082
844.708	22177
844.844	22291
844.98	22246
845.117	22181
845.253	22013
845.389	21934
845.525	22070
845.661	21854
845.798	21846
845.934	21945
846.07	21888
846.206	21797
846.342	22032
846.478	21797
846.614	21679
846.75	21492
846.886	21583
847.022	21641
847.158	21576
847.294	21614
847.429	21641
847.565	21587
847.701	21823
847.837	21447
847.972	21287
848.108	21374
848.244	21393
848.379	21249
848.515	21157
848.65	21074
848.786	21195
848.921	21192
849.057	21180
849.192	21291
849.328	21195
849.463	21119
849.598	21131
849.734	21062
849.869	20956
850.004	20986
850.14	20967
850.275	20937
850.41	20845
850.545	20948
850.68	20765
850.815	20887
850.95	20956
851.085	21154
851.22	20971
851.355	20963
851.49	20948
851.625	20864
851.76	20952
851.895	20883
852.03	20815
852.165	21013
852.299	20929
852.434	21024
852.569	21001
852.703	20963
852.838	21009
852.973	21089
853.107	21028
853.242	20762
853.376	20773
853.511	20617
853.645	20845
853.78	20933
853.914	20686
854.048	20727
854.183	20800
854.317	20750
854.451	20952
854.585	20769
854.72	20724
854.854	20864
854.988	20689
855.122	20796
855.256	20587
855.39	20800
855.524	20868
855.658	20952
855.792	20830
855.926	20914
856.06	20815
856.194	20830
856.327	20785
856.461	20769
856.595	20636
856.729	20720
856.862	20807
856.996	20777
857.13	20807
857.263	20853
857.397	20868
857.53	20663
857.664	20773
857.797	20849
857.931	20887
858.064	20777
858.197	20834
858.331	20788
858.464	20792
858.597	20625
858.731	20769
858.864	20731
858.997	20648
859.13	20712
859.263	20655
859.396	20807
859.529	20777
859.662	20792
859.795	20701
859.928	20792
860.061	20864
860.194	20933
860.327	20925
860.46	20746
860.592	20849
860.725	20910
860.858	20910
860.99	20769
861.123	20754
861.256	20590
861.388	20769
861.521	21435
861.653	20636
861.786	20568
861.918	20625
862.05	20674
862.183	20689
862.315	20613
862.447	20758
862.58	20552
862.712	20438
862.844	20492
862.976	20568
863.108	20609
863.24	20807
863.372	20355
863.504	20511
863.636	20450
863.768	20609
863.9	20400
864.032	20434
864.164	20537
864.296	20522
864.428	20640
864.559	20526
864.691	20579
864.823	20412
864.954	20549
865.086	20473
865.217	20358
865.349	20374
865.48	20370
865.612	20480
865.743	20552
865.875	20423
866.006	20309
866.137	20465
866.269	20396
866.4	20305
866.531	20336
866.662	20309
866.793	20358
866.924	20290
867.055	20298
867.186	20396
867.317	20351
867.448	20294
867.579	20252
867.71	20233
867.841	20225
867.972	20301
868.103	20336
868.233	20290
868.364	20229
868.495	20423
868.625	20465
868.756	20663
868.886	20575
869.017	20579
869.147	20708
869.278	20727
869.408	20590
869.539	20507
869.669	20613
869.799	20541
869.929	20670
870.06	20636
870.19	20906
870.32	20842
870.45	20921
870.58	21062
870.71	20986
870.84	21051
870.97	20880
871.1	20872
871.23	21062
871.36	21192
871.489	21135
871.619	21074
871.749	21161
871.879	21161
872.008	21291
872.138	21192
872.267	21119
872.397	21028
872.526	20975
872.656	21028
872.785	21032
872.915	21176
873.044	21302
873.173	21173
873.303	21214
873.432	21184
873.561	21218
873.69	21184
873.819	21211
873.948	21135
874.077	21127
874.206	21116
874.335	21116
874.464	21252
874.593	21435
874.722	21389
874.851	21378
874.979	21466
875.108	21511
875.237	21382
875.365	21313
875.494	21408
875.623	21424
875.751	21359
875.88	21458
876.008	21538
876.136	21667
876.265	21861
876.393	22055
876.521	21937
876.65	21903
876.778	21915
876.906	21762
877.034	21713
877.162	21755
877.29	21671
877.418	21778
877.546	21816
877.674	21835
877.802	21587
877.93	21732
878.058	21633
878.185	21622
878.313	21732
878.441	21705
878.568	21701
878.696	21644
878.824	21861
878.951	21747
879.079	21998
879.206	22093
879.333	21865
879.461	21816
879.588	21823
879.715	21899
879.842	22036
879.97	21789
880.097	21781
880.224	21542
880.351	21701
880.478	21625
880.605	21526
880.732	21625
880.859	21880
880.986	21656
881.112	21599
881.239	21382
881.366	21302
881.493	21310
881.619	21013
881.746	21245
881.872	21146
881.999	21081
882.125	21055
882.252	21237
882.378	21150
882.505	21169
882.631	21104
882.757	20967
882.883	21017
883.01	20941
883.136	20823
883.262	20746
883.388	20667
883.514	20941
883.64	20830
883.766	20864
883.892	20819
884.018	20606
884.143	20880
884.269	20891
884.395	20541
884.52	20579
884.646	20533
884.772	20522
884.897	20476
885.023	20412
885.148	20689
885.274	20621
885.399	20667
885.524	20499
885.65	20545
885.775	20541
885.9	20552
886.025	20571
886.15	20552
886.275	20530
886.4	20404
886.525	20545
886.65	20473
886.775	20431
886.9	20720
887.025	20815
887.149	20461
887.274	20317
887.399	20332
887.523	20313
887.648	20138
887.773	20339
887.897	20419
888.021	20374
888.146	20259
888.27	20324
888.395	20404
888.519	20347
888.643	20396
888.767	20423
888.891	20244
889.015	20145
889.139	20119
889.263	20092
889.387	20313
889.511	20309
889.635	20332
889.759	20107
889.883	20046
890.006	20111
890.13	20244
890.254	20039
890.377	20115
890.501	19830
890.624	19845
890.748	19894
890.871	19807
890.995	19578
891.118	19639
891.241	19658
891.364	19712
891.488	19769
891.611	19655
891.734	19696
891.857	19677
891.98	19814
892.103	19890
892.226	19738
892.349	19594
892.471	19525
892.594	19635
892.717	19677
892.839	19620
892.962	19632
893.085	19712
893.207	19708
893.33	19514
893.452	19632
893.575	19616
893.697	19548
893.819	19750
893.941	19818
894.064	19731
894.186	19609
894.308	19582
894.43	19696
894.552	19761
894.674	19712
894.796	19552
894.918	19628
895.04	19556
895.161	19677
895.283	19590
895.405	19563
895.526	19670
895.648	19677
895.769	19639
895.891	19750
896.012	19769
896.134	19601
896.255	19609
896.376	19540
896.498	19521
896.619	19590
896.74	19582
896.861	19662
896.982	19917
897.103	20058
897.224	19860
897.345	19982
897.466	19830
897.587	19803
897.708	20073
897.828	19852
897.949	19807
898.07	19662
898.19	19784
898.311	19974
898.431	19746
898.552	19902
898.672	19917
898.792	19906
898.913	19833
899.033	19708
899.153	19575
899.273	19552
899.393	19578
899.513	19734
899.633	19499
899.753	19499
899.873	19594
899.993	19696
900.113	19483
900.232	19495
900.352	19582
900.472	19480
900.591	19331
900.711	19407
900.83	19377
900.95	19502
901.069	19373
901.189	19331
901.308	18932
901.427	18935
901.546	18928
901.665	19008
901.784	19038
901.904	18909
902.023	18719
902.141	18506
902.26	18380
902.379	18578
902.498	18502
902.617	18448
902.735	18483
902.854	18441
902.973	18407
903.091	18296
903.21	18117
903.328	18304
903.446	18163
903.565	18034
903.683	18011
903.801	17920
903.919	17935
904.038	17904
904.156	17764
904.274	17988
904.392	17775
904.51	17779
904.627	17619
904.745	17832
904.863	17771
904.981	17619
905.098	17429
905.216	17414
905.334	17490
905.451	17452
905.569	17482
905.686	17528
905.803	17406
905.921	17193
906.038	17296
906.155	17113
906.272	17162
906.389	17174
906.506	17075
906.623	17056
906.74	17003
906.857	16873
906.974	16885
907.091	17166
907.208	17052
907.324	17018
907.441	16900
907.557	16668
907.674	16634
907.79	16588
907.907	16706
908.023	16713
908.139	16645
908.256	16599
908.372	16573
908.488	16573
908.604	16478
908.72	16455
908.836	16421
908.952	16375
909.068	16436
909.184	16538
909.3	16382
909.415	16451
909.531	16432
909.647	16147
909.762	16090
909.878	16063
909.993	16124
910.108	16010
910.224	16029
910.339	15998
910.454	15975
910.57	15918
910.685	15797
910.8	16166
910.915	16135
911.03	15861
911.145	15656
911.259	15671
911.374	15667
911.489	15671
911.604	15614
911.718	15481
911.833	15519
911.947	15355
912.062	15332
912.176	15481
912.291	15458
912.405	15370
912.519	15717
912.633	15781
912.748	15450
912.862	15481
912.976	15416
913.09	15226
913.204	15241
913.318	15336
913.431	15435
913.545	15317
913.659	15431
913.772	15313
913.886	15169
914	14944
914.113	15249
914.226	15161
914.34	15116
914.453	14925
914.566	15119
914.68	15085
914.793	14914
914.906	14731
915.019	14705
915.132	14788
915.245	14750
915.358	14773
915.47	14697
915.583	14731
915.696	14701
915.809	14796
915.921	14857
916.034	14743
916.146	14644
916.259	14613
916.371	14655
916.483	14617
916.595	14644
916.708	14602
916.82	14590
916.932	14541
917.044	14526
917.156	14469
917.268	14415
917.38	14454
917.491	14328
917.603	14412
917.715	14393
917.826	14480
917.938	14336
918.049	14267
918.161	14415
918.272	14465
918.384	14503
918.495	14320
918.606	14195
918.717	14107
918.828	14111
918.939	14126
919.05	14073
919.161	14111
919.272	13879
919.383	14024
919.494	14084
919.604	14332
919.715	14088
919.826	14149
919.936	14187
920.047	14195
920.157	14157
920.267	14332
920.378	14214
920.488	14008
920.598	14259
920.708	14336
920.818	14320
920.928	14286
921.038	14408
921.148	14393
921.258	14103
921.368	13986
921.477	13902
921.587	13879
921.697	13753
921.806	13963
921.916	13784
922.025	13620
922.134	13578
922.244	13468
922.353	13529
922.462	13506
922.571	13373
922.68	13194
922.789	13171
922.898	13175
923.007	13171
923.116	13190
923.224	13156
923.333	13179
923.442	13023
923.55	12973
923.659	12901
923.767	13122
923.876	12871
923.984	13057
924.092	12951
924.201	12977
924.309	12878
924.417	12928
924.525	12867
924.633	12772
924.741	13765
924.849	12673
924.956	12779
925.064	12700
925.172	12536
925.279	12597
925.387	12582
925.494	12665
925.602	12787
925.709	12650
925.816	12494
925.924	12635
926.031	12654
926.138	12585
926.245	12715
926.352	12475
926.459	12604
926.566	12612
926.673	12551
926.779	12422
926.886	12342
926.993	12205
927.099	12262
927.206	12136
927.312	12095
927.419	12178
927.525	12205
927.631	12129
927.737	12102
927.843	11946
927.95	11958
928.056	12015
928.162	11996
928.267	12060
928.373	12525
928.479	12114
928.585	11843
928.69	11988
928.796	11958
928.901	11874
929.007	11733
929.112	11908
929.218	11843
929.323	11794
929.428	11767
929.533	11897
929.638	11688
929.743	11707
929.848	11756
929.953	11661
930.058	11543
930.163	11436
930.267	11440
930.372	11604
930.477	11448
930.581	11611
930.685	11467
930.79	11254
930.894	11379
930.998	11345
931.103	11433
931.207	11143
931.311	10942
931.415	10908
931.519	10740
931.623	10626
