Data from test_V78500241_839.txt Node
Date: Fri Mar 25 15:15:41 CST 2022
User: usil
Spectrometer: V785-0024
Trigger mode: 0
Integration Time (sec): 4.000000E-1
Scans to average: 1
Nonlinearity correction enabled: false
Boxcar width: 0
Storing dark spectrum: false
XAxis mode: Wavelengths
Number of Pixels in Spectrum: 1024
>>>>>Begin Spectral Data<<<<<
801.071	28295
801.214	28223
801.356	27869
801.499	27880
801.641	27739
801.783	27633
801.926	27937
802.068	27857
802.211	27705
802.353	27660
802.496	27351
802.638	27439
802.78	27477
802.923	27427
803.065	27408
803.208	27351
803.35	27523
803.492	27526
803.635	27759
803.777	27477
803.919	27671
804.061	27880
804.204	27766
804.346	27576
804.488	27504
804.63	27618
804.773	27545
804.915	27587
805.057	27660
805.199	27580
805.341	27728
805.483	27873
805.626	27797
805.768	27538
805.91	27720
806.052	27873
806.194	27652
806.336	28017
806.478	27945
806.62	27914
806.762	27899
806.904	28093
807.046	28276
807.188	28268
807.33	28090
807.472	28348
807.614	28162
807.756	28215
807.898	28002
808.04	28116
808.182	28150
808.324	28207
808.465	28120
808.607	28538
808.749	28588
808.891	28519
809.033	28668
809.174	28603
809.316	28485
809.458	28508
809.6	28310
809.741	28675
809.883	28599
810.025	28774
810.166	28736
810.308	28725
810.45	28729
810.591	28675
810.733	28664
810.875	28409
811.016	28413
811.158	28470
811.299	28459
811.441	28786
811.582	28538
811.724	28500
811.865	28424
812.007	28451
812.148	28428
812.29	28561
812.431	28691
812.573	29071
812.714	29003
812.855	29037
812.997	29113
813.138	29212
813.279	29155
813.421	29143
813.562	28847
813.703	28839
813.845	28694
813.986	28276
814.127	28280
814.268	28238
814.41	28249
814.551	28139
814.692	28325
814.833	28295
814.974	28078
815.115	28109
815.256	28067
815.397	28025
815.539	28097
815.68	27964
815.821	28105
815.962	28162
816.103	28048
816.244	27941
816.385	27713
816.526	27781
816.666	27534
816.807	27583
816.948	27553
817.089	27614
817.23	27488
817.371	27633
817.512	27549
817.653	27492
817.793	27359
817.934	27477
818.075	27519
818.216	27572
818.356	27454
818.497	27443
818.638	27268
818.778	27275
818.919	27310
819.06	27382
819.2	27420
819.341	27549
819.481	27504
819.622	27530
819.762	27873
819.903	27785
820.043	27762
820.184	27633
820.324	27591
820.465	27576
820.605	27660
820.746	27667
820.886	27515
821.026	27743
821.167	27618
821.307	27751
821.447	27473
821.588	27424
821.728	27245
821.868	27233
822.008	26998
822.149	27055
822.289	26864
822.429	26644
822.569	26667
822.709	26678
822.849	26461
822.99	26511
823.13	26518
823.27	26537
823.41	26328
823.55	26267
823.69	26339
823.83	26305
823.97	26336
824.11	26214
824.25	26100
824.389	26240
824.529	26191
824.669	26225
824.809	26256
824.949	26282
825.089	26161
825.228	26187
825.368	25898
825.508	26054
825.648	26050
825.787	26100
825.927	26180
826.067	26035
826.206	26043
826.346	26043
826.485	26153
826.625	25932
826.765	26020
826.904	26138
827.044	25890
827.183	25814
827.323	25734
827.462	25734
827.601	25731
827.741	25727
827.88	25712
828.02	25601
828.159	25613
828.298	25830
828.437	25818
828.577	25750
828.716	25811
828.855	25712
828.994	25407
829.134	25358
829.273	25499
829.412	25434
829.551	25400
829.69	25278
829.829	25567
829.968	25613
830.107	25495
830.246	25445
830.385	25483
830.524	25354
830.663	25255
830.802	25095
830.941	25012
831.08	24966
831.219	25053
831.357	25095
831.496	25434
831.635	25164
831.774	25031
831.913	24935
832.051	24829
832.19	24939
832.329	24817
832.467	24833
832.606	24753
832.744	24658
832.883	24722
833.022	24772
833.16	24734
833.299	24909
833.437	24894
833.576	24863
833.714	24798
833.852	24882
833.991	24802
834.129	24916
834.267	24966
834.406	24791
834.544	24962
834.682	24772
834.821	24688
834.959	24954
835.097	24604
835.235	24837
835.373	24745
835.511	24738
835.65	24745
835.788	24566
835.926	24452
836.064	24376
836.202	24433
836.34	24627
836.478	24722
836.615	24608
836.753	24673
836.891	24726
837.029	24661
837.167	24509
837.305	24574
837.443	24521
837.58	24555
837.718	24650
837.856	24464
837.993	24429
838.131	24338
838.269	24342
838.406	24232
838.544	24239
838.681	24060
838.819	24068
838.956	23893
839.094	23931
839.231	23958
839.369	24178
839.506	24395
839.643	24083
839.781	23965
839.918	23809
840.055	23889
840.193	23912
840.33	23866
840.467	23851
840.604	23912
840.742	24167
840.879	23703
841.016	23729
841.153	23779
841.29	23958
841.427	23817
841.564	23870
841.701	23870
841.838	23809
841.975	23775
842.112	23703
842.249	23695
842.385	23592
842.522	23821
842.659	23661
842.796	23600
842.933	23630
843.069	23596
843.206	23543
843.343	23745
843.479	23520
843.616	23493
843.752	23349
843.889	23463
844.025	23509
844.162	23307
844.298	23478
844.435	23376
844.571	23444
844.708	23436
844.844	23531
844.98	23589
845.117	23467
845.253	23436
845.389	23250
845.525	23162
845.661	23121
845.798	23067
845.934	23117
846.07	22995
846.206	23109
846.342	23235
846.478	23079
846.614	22862
846.75	22957
846.886	22812
847.022	22892
847.158	22927
847.294	22858
847.429	22919
847.565	22824
847.701	23010
847.837	22641
847.972	22485
848.108	22763
848.244	22569
848.379	22584
848.515	22360
848.65	22394
848.786	22523
848.921	22440
849.057	22557
849.192	22516
849.328	22421
849.463	22428
849.598	22402
849.734	22489
849.869	22261
850.004	22242
850.14	22249
850.275	22238
850.41	22211
850.545	22120
850.68	22139
850.815	22234
850.95	22135
851.085	22428
851.22	22485
851.355	22192
851.49	22219
851.625	22074
851.76	22135
851.895	22051
852.03	22101
852.165	22093
852.299	22158
852.434	22325
852.569	22223
852.703	22306
852.838	22284
852.973	22257
853.107	22284
853.242	22226
853.376	22013
853.511	21945
853.645	22017
853.78	22188
853.914	22051
854.048	22044
854.183	22070
854.317	22086
854.451	22242
854.585	22021
854.72	22044
854.854	22162
854.988	21899
855.122	22074
855.256	21873
855.39	22010
855.524	21979
855.658	22044
855.792	22116
855.926	21945
856.06	22044
856.194	21949
856.327	21941
856.461	21960
856.595	21926
856.729	21953
856.862	22067
856.996	22090
857.13	22025
857.263	22124
857.397	22086
857.53	22070
857.664	22131
857.797	22173
857.931	22021
858.064	22044
858.197	22204
858.331	22074
858.464	22090
858.597	21941
858.731	22063
858.864	21915
858.997	21953
859.13	21998
859.263	22048
859.396	22051
859.529	22044
859.662	21960
859.795	21865
859.928	22021
860.061	22207
860.194	22162
860.327	22025
860.46	21991
860.592	22143
860.725	22150
860.858	22143
860.99	21869
861.123	21907
861.256	22036
861.388	21911
861.521	22774
861.653	21953
861.786	21728
861.918	21861
862.05	21960
862.183	22006
862.315	21975
862.447	21941
862.58	21941
862.712	21816
862.844	21701
862.976	21823
863.108	21755
863.24	22204
863.372	21622
863.504	21724
863.636	21637
863.768	21736
863.9	21759
864.032	21595
864.164	21675
864.296	21800
864.428	21816
864.559	21675
864.691	21789
864.823	21797
864.954	21804
865.086	21701
865.217	21713
865.349	21690
865.48	21682
865.612	21694
865.743	21857
865.875	21629
866.006	21629
866.137	21610
866.269	21660
866.4	21576
866.531	21561
866.662	21473
866.793	21591
866.924	21458
867.055	21538
867.186	21500
867.317	21595
867.448	21504
867.579	21481
867.71	21405
867.841	21515
867.972	21564
868.103	21553
868.233	21641
868.364	21549
868.495	21557
868.625	21701
868.756	21797
868.886	21660
869.017	21770
869.147	21915
869.278	21800
869.408	21713
869.539	21709
869.669	21774
869.799	21713
869.929	21998
870.06	21892
870.19	22177
870.32	21956
870.45	22139
870.58	22147
870.71	22234
870.84	22226
870.97	22234
871.1	22306
871.23	22375
871.36	22432
871.489	22272
871.619	22253
871.749	22337
871.879	22352
872.008	22413
872.138	22295
872.267	22462
872.397	22276
872.526	22177
872.656	22223
872.785	22219
872.915	22402
873.044	22375
873.173	22432
873.303	22356
873.432	22360
873.561	22489
873.69	22382
873.819	22447
873.948	22497
874.077	22459
874.206	22280
874.335	22348
874.464	22455
874.593	22615
874.722	22622
874.851	22588
874.979	22611
875.108	22622
875.237	22550
875.365	22489
875.494	22607
875.623	22668
875.751	22607
875.88	22588
876.008	22713
876.136	22675
876.265	23006
876.393	23044
876.521	23018
876.65	23071
876.778	22938
876.906	22965
877.034	22930
877.162	23006
877.29	22847
877.418	22858
877.546	22915
877.674	22869
877.802	22854
877.93	22862
878.058	22873
878.185	22790
878.313	22942
878.441	22850
878.568	22778
878.696	22984
878.824	22908
878.951	22999
879.079	23128
879.206	23254
879.333	23067
879.461	22946
879.588	23014
879.715	23136
879.842	23242
879.97	22957
880.097	22694
880.224	22797
880.351	22748
880.478	22748
880.605	22653
880.732	22755
880.859	22980
880.986	22653
881.112	22790
881.239	22607
881.366	22478
881.493	22367
881.619	22295
881.746	22440
881.872	22382
881.999	22344
882.125	22177
882.252	22398
882.378	22234
882.505	22440
882.631	22223
882.757	21953
882.883	22021
883.01	21941
883.136	22010
883.262	21880
883.388	21892
883.514	21987
883.64	22090
883.766	21774
883.892	21861
884.018	21846
884.143	21789
884.269	21949
884.395	21603
884.52	21561
884.646	21717
884.772	21523
884.897	21698
885.023	21629
885.148	21804
885.274	21876
885.399	21755
885.524	21500
885.65	21587
885.775	21492
885.9	21648
886.025	21762
886.15	21614
886.275	21538
886.4	21519
886.525	21568
886.65	21583
886.775	21587
886.9	21675
887.025	21793
887.149	21542
887.274	21466
887.399	21416
887.523	21462
887.648	21359
887.773	21439
887.897	21576
888.021	21519
888.146	21355
888.27	21488
888.395	21370
888.519	21447
888.643	21481
888.767	21416
888.891	21222
889.015	21161
889.139	21184
889.263	21226
889.387	21283
889.511	21473
889.635	21450
889.759	21104
889.883	21180
890.006	21173
890.13	21412
890.254	21184
890.377	21047
890.501	20979
890.624	20921
890.748	21032
890.871	20750
890.995	20746
891.118	20743
891.241	20796
891.364	20796
891.488	20948
891.611	20754
891.734	20678
891.857	20781
891.98	20781
892.103	20792
892.226	20678
892.349	20564
892.471	20629
892.594	20705
892.717	20697
892.839	20644
892.962	20613
893.085	20743
893.207	20712
893.33	20511
893.452	20689
893.575	20606
893.697	20674
893.819	20792
893.941	20906
894.064	20754
894.186	20651
894.308	20533
894.43	20735
894.552	20773
894.674	20781
894.796	20507
894.918	20609
895.04	20750
895.161	20632
895.283	20625
895.405	20587
895.526	20663
895.648	20697
895.769	20670
895.891	20746
896.012	20716
896.134	20575
896.255	20625
896.376	20678
896.498	20693
896.619	20659
896.74	20568
896.861	20724
896.982	20872
897.103	21070
897.224	20804
897.345	20937
897.466	20838
897.587	20823
897.708	20918
897.828	20765
897.949	20743
898.07	20651
898.19	20804
898.311	20883
898.431	20739
898.552	20872
898.672	20853
898.792	20918
898.913	20697
899.033	20739
899.153	20560
899.273	20560
899.393	20575
899.513	20594
899.633	20530
899.753	20564
899.873	20541
899.993	20552
900.113	20484
900.232	20480
900.352	20514
900.472	20419
900.591	20267
900.711	20431
900.83	20328
900.95	20442
901.069	20389
901.189	20138
901.308	20069
901.427	19913
901.546	19856
901.665	19944
901.784	19974
901.904	19712
902.023	19685
902.141	19502
902.26	19529
902.379	19533
902.498	19422
902.617	19422
902.735	19472
902.854	19282
902.973	19369
903.091	19110
903.21	19091
903.328	19145
903.446	19038
903.565	18977
903.683	18901
903.801	18749
903.919	18745
904.038	18859
904.156	18559
904.274	18791
904.392	18757
904.51	18646
904.627	18665
904.745	18669
904.863	18726
904.981	18483
905.098	18357
905.216	18292
905.334	18483
905.451	18357
905.569	18319
905.686	18292
905.803	18426
905.921	17984
906.038	18247
906.155	18152
906.272	18049
906.389	18064
906.506	17866
906.623	17764
906.74	17916
906.857	17775
906.974	17737
907.091	17946
907.208	17920
907.324	17828
907.441	17809
907.557	17577
907.674	17627
907.79	17505
907.907	17562
908.023	17668
908.139	17467
908.256	17497
908.372	17444
908.488	17395
908.604	17376
908.72	17254
908.836	17337
908.952	17220
909.068	17311
909.184	17368
909.3	17246
909.415	17406
909.531	17414
909.647	17086
909.762	16908
909.878	16934
909.993	16980
910.108	16965
910.224	16930
910.339	16942
910.454	16847
910.57	16759
910.685	16744
910.8	17045
910.915	16957
911.03	16816
911.145	16618
911.259	16603
911.374	16577
911.489	16558
911.604	16447
911.718	16276
911.833	16322
911.947	16253
912.062	16124
912.176	16280
912.291	16371
912.405	16329
912.519	16470
912.633	16580
912.748	16432
912.862	16253
912.976	16192
913.09	16120
913.204	16090
913.318	16116
913.431	16150
913.545	16154
913.659	16303
913.772	15915
913.886	15953
914	15983
914.113	16101
914.226	16044
914.34	16029
914.453	15850
914.566	15918
914.68	15876
914.793	15804
914.906	15572
915.019	15458
915.132	15424
915.245	15515
915.358	15545
915.47	15595
915.583	15507
915.696	15526
915.809	15610
915.921	15557
916.034	15405
916.146	15401
916.259	15439
916.371	15584
916.483	15572
916.595	15355
916.708	15405
916.82	15275
916.932	15287
917.044	15348
917.156	15150
917.268	15230
917.38	15176
917.491	15165
917.603	15161
917.715	15150
917.826	15321
917.938	15123
918.049	15024
918.161	15108
918.272	15180
918.384	15252
918.495	15039
918.606	14941
918.717	14853
918.828	14948
918.939	14963
919.05	14743
919.161	14876
919.272	14712
919.383	14712
919.494	14861
919.604	14990
919.715	14876
919.826	14830
919.936	14788
920.047	14910
920.157	14918
920.267	15001
920.378	14910
920.488	14830
920.598	15013
920.708	15039
920.818	14998
920.928	14967
921.038	15154
921.148	15089
921.258	14815
921.368	14693
921.477	14549
921.587	14610
921.697	14476
921.806	14575
921.916	14370
922.025	14278
922.134	14172
922.244	14123
922.353	14240
922.462	14107
922.571	14069
922.68	13928
922.789	13849
922.898	13761
923.007	13750
923.116	13837
923.224	13826
923.333	13727
923.442	13791
923.55	13658
923.659	13723
923.767	13723
923.876	13521
923.984	13704
924.092	13483
924.201	13521
924.309	13563
924.417	13632
924.525	13457
924.633	13506
924.741	14408
924.849	13339
924.956	13422
925.064	13430
925.172	13263
925.279	13206
925.387	13274
925.494	13316
925.602	13362
925.709	13304
925.816	13198
925.924	13278
926.031	13213
926.138	13213
926.245	13187
926.352	13084
926.459	13209
926.566	13198
926.673	13122
926.779	13019
926.886	12973
926.993	12905
927.099	12863
927.206	12684
927.312	12688
927.419	12825
927.525	12806
927.631	12863
927.737	12646
927.843	12696
927.95	12544
928.056	12741
928.162	12604
928.267	12684
928.373	13156
928.479	12635
928.585	12452
928.69	12620
928.796	12547
928.901	12521
929.007	12342
929.112	12471
929.218	12441
929.323	12361
929.428	12441
929.533	12410
929.638	12281
929.743	12270
929.848	12334
929.953	12251
930.058	12144
930.163	11988
930.267	12159
930.372	12220
930.477	11996
930.581	12148
930.685	12102
930.79	11916
930.894	11969
930.998	11882
931.103	12125
931.207	11684
931.311	11608
931.415	11448
931.519	11265
931.623	11330
