Data from test_V78500241_1083.txt Node
Date: Fri Mar 25 15:17:23 CST 2022
User: usil
Spectrometer: V785-0024
Trigger mode: 0
Integration Time (sec): 4.000000E-1
Scans to average: 1
Nonlinearity correction enabled: false
Boxcar width: 0
Storing dark spectrum: false
XAxis mode: Wavelengths
Number of Pixels in Spectrum: 1024
>>>>>Begin Spectral Data<<<<<
801.071	28238
801.214	28143
801.356	27953
801.499	27667
801.641	27739
801.783	27644
801.926	27675
802.068	27599
802.211	27469
802.353	27564
802.496	27348
802.638	27355
802.78	27256
802.923	27291
803.065	27161
803.208	27329
803.35	27359
803.492	27401
803.635	27450
803.777	27382
803.919	27488
804.061	27759
804.204	27633
804.346	27447
804.488	27401
804.63	27420
804.773	27317
804.915	27454
805.057	27736
805.199	27633
805.341	27504
805.483	27762
805.626	27568
805.768	27545
805.91	27595
806.052	27568
806.194	27515
806.336	27755
806.478	27698
806.62	27732
806.762	27827
806.904	27991
807.046	28120
807.188	28002
807.33	28051
807.472	28048
807.614	28090
807.756	28082
807.898	27956
808.04	27861
808.182	27854
808.324	27972
808.465	28032
808.607	28181
808.749	28394
808.891	28447
809.033	28474
809.174	28367
809.316	28261
809.458	28348
809.6	28390
809.741	28352
809.883	28500
810.025	28660
810.166	28649
810.308	28455
810.45	28443
810.591	28459
810.733	28462
810.875	28276
811.016	28150
811.158	28348
811.299	28386
811.441	28409
811.582	28352
811.724	28398
811.865	28272
812.007	28268
812.148	28242
812.29	28405
812.431	28588
812.573	28634
812.714	28774
812.855	28805
812.997	28908
813.138	29064
813.279	28991
813.421	28843
813.562	28820
813.703	28645
813.845	28478
813.986	28246
814.127	28082
814.268	28063
814.41	28036
814.551	28177
814.692	28147
814.833	28010
814.974	27914
815.115	28070
815.256	27926
815.397	27827
815.539	27941
815.68	27880
815.821	27652
815.962	27979
816.103	27854
816.244	27720
816.385	27686
816.526	27519
816.666	27348
816.807	27214
816.948	27363
817.089	27412
817.23	27378
817.371	27294
817.512	27405
817.653	27287
817.793	27252
817.934	27359
818.075	27363
818.216	27294
818.356	27317
818.497	27222
818.638	27135
818.778	27077
818.919	27043
819.06	27157
819.2	27207
819.341	27180
819.481	27329
819.622	27427
819.762	27675
819.903	27739
820.043	27526
820.184	27416
820.324	27389
820.465	27485
820.605	27469
820.746	27458
820.886	27370
821.026	27408
821.167	27523
821.307	27504
821.447	27412
821.588	27272
821.728	27199
821.868	26914
822.008	26864
822.149	26834
822.289	26636
822.429	26514
822.569	26518
822.709	26473
822.849	26157
822.99	26267
823.13	26370
823.27	26355
823.41	26256
823.55	26062
823.69	26058
823.83	26134
823.97	26096
824.11	25963
824.25	25902
824.389	25921
824.529	26069
824.669	25925
824.809	26161
824.949	26149
825.089	26218
825.228	26168
825.368	25902
825.508	25795
825.648	25894
825.787	26024
825.927	26046
826.067	25776
826.206	25780
826.346	25947
826.485	25928
826.625	25970
826.765	25959
826.904	25947
827.044	25605
827.183	25677
827.323	25392
827.462	25693
827.601	25476
827.741	25510
827.88	25647
828.02	25468
828.159	25449
828.298	25613
828.437	25628
828.577	25506
828.716	25624
828.855	25514
828.994	25384
829.134	25449
829.273	25369
829.412	25285
829.551	25285
829.69	25308
829.829	25297
829.968	25381
830.107	25403
830.246	25259
830.385	25263
830.524	25217
830.663	25050
830.802	25012
830.941	24867
831.08	24943
831.219	24924
831.357	25088
831.496	25240
831.635	25000
831.774	24844
831.913	24848
832.051	24681
832.19	24776
832.329	24768
832.467	24661
832.606	24646
832.744	24692
832.883	24582
833.022	24460
833.16	24498
833.299	24673
833.437	24532
833.576	24726
833.714	24665
833.852	24658
833.991	24730
834.129	24551
834.267	24757
834.406	24604
834.544	24726
834.682	24703
834.821	24658
834.959	24802
835.097	24684
835.235	24715
835.373	24650
835.511	24639
835.65	24456
835.788	24578
835.926	24407
836.064	24232
836.202	24388
836.34	24452
836.478	24631
836.615	24479
836.753	24502
836.891	24688
837.029	24669
837.167	24536
837.305	24407
837.443	24357
837.58	24277
837.718	24380
837.856	24372
837.993	24338
838.131	24254
838.269	24178
838.406	24296
838.544	24171
838.681	24079
838.819	23961
838.956	23764
839.094	23802
839.231	23942
839.369	23973
839.506	24174
839.643	24110
839.781	23733
839.918	23843
840.055	23741
840.193	23783
840.33	23699
840.467	23710
840.604	23752
840.742	23954
840.879	23661
841.016	23615
841.153	23668
841.29	23760
841.427	23756
841.564	23866
841.701	23737
841.838	23665
841.975	23619
842.112	23490
842.249	23512
842.385	23490
842.522	23668
842.659	23581
842.796	23512
842.933	23524
843.069	23353
843.206	23482
843.343	23448
843.479	23452
843.616	23337
843.752	23296
843.889	23311
844.025	23455
844.162	23269
844.298	23322
844.435	23292
844.571	23326
844.708	23307
844.844	23364
844.98	23421
845.117	23341
845.253	23162
845.389	23174
845.525	23117
845.661	23056
845.798	23124
845.934	23041
846.07	22942
846.206	23075
846.342	23109
846.478	22961
846.614	22797
846.75	22664
846.886	22790
847.022	22812
847.158	22656
847.294	22660
847.429	22782
847.565	22850
847.701	22965
847.837	22588
847.972	22413
848.108	22569
848.244	22561
848.379	22356
848.515	22295
848.65	22360
848.786	22287
848.921	22249
849.057	22440
849.192	22413
849.328	22455
849.463	22177
849.598	22379
849.734	22223
849.869	22242
850.004	22090
850.14	22207
850.275	22162
850.41	22017
850.545	22025
850.68	22131
850.815	22150
850.95	22055
851.085	22185
851.22	22124
851.355	22063
851.49	22131
851.625	22070
851.76	21972
851.895	22021
852.03	21991
852.165	22051
852.299	22166
852.434	22086
852.569	22063
852.703	22006
852.838	22116
852.973	22223
853.107	22166
853.242	22040
853.376	21869
853.511	21941
853.645	21800
853.78	22002
853.914	21937
854.048	21854
854.183	21838
854.317	21895
854.451	22086
854.585	21857
854.72	21823
854.854	21968
854.988	21945
855.122	21880
855.256	21812
855.39	21953
855.524	21922
855.658	21949
855.792	21949
855.926	21895
856.06	22044
856.194	22029
856.327	21869
856.461	21770
856.595	21907
856.729	21899
856.862	22010
856.996	21911
857.13	21899
857.263	21941
857.397	21968
857.53	21899
857.664	22101
857.797	22070
857.931	22025
858.064	21930
858.197	21850
858.331	21895
858.464	21804
858.597	21918
858.731	21876
858.864	21850
858.997	21816
859.13	21949
859.263	21831
859.396	21987
859.529	21949
859.662	21762
859.795	21964
859.928	21979
860.061	22097
860.194	22029
860.327	21926
860.46	21964
860.592	21907
860.725	22120
860.858	21991
860.99	21884
861.123	21766
861.256	21838
861.388	21953
861.521	22455
861.653	21603
861.786	21755
861.918	21747
862.05	21816
862.183	21701
862.315	21838
862.447	21884
862.58	21804
862.712	21671
862.844	21656
862.976	21686
863.108	21766
863.24	22150
863.372	21587
863.504	21713
863.636	21629
863.768	21648
863.9	21679
864.032	21603
864.164	21504
864.296	21755
864.428	21603
864.559	21701
864.691	21793
864.823	21694
864.954	21648
865.086	21625
865.217	21485
865.349	21329
865.48	21435
865.612	21458
865.743	21545
865.875	21439
866.006	21416
866.137	21473
866.269	21458
866.4	21492
866.531	21488
866.662	21443
866.793	21382
866.924	21332
867.055	21485
867.186	21500
867.317	21367
867.448	21351
867.579	21367
867.71	21382
867.841	21329
867.972	21462
868.103	21344
868.233	21504
868.364	21473
868.495	21603
868.625	21481
868.756	21656
868.886	21523
869.017	21564
869.147	21861
869.278	21823
869.408	21656
869.539	21690
869.669	21785
869.799	21675
869.929	21751
870.06	21869
870.19	21983
870.32	21907
870.45	22017
870.58	22112
870.71	22109
870.84	22188
870.97	22044
871.1	22067
871.23	22147
871.36	22265
871.489	22272
871.619	22177
871.749	22242
871.879	22295
872.008	22325
872.138	22352
872.267	22253
872.397	22124
872.526	22086
872.656	22131
872.785	22074
872.915	22295
873.044	22447
873.173	22287
873.303	22360
873.432	22196
873.561	22284
873.69	22356
873.819	22207
873.948	22352
874.077	22310
874.206	22257
874.335	22341
874.464	22363
874.593	22512
874.722	22516
874.851	22531
874.979	22596
875.108	22626
875.237	22382
875.365	22402
875.494	22436
875.623	22485
875.751	22447
875.88	22538
876.008	22740
876.136	22713
876.265	22843
876.393	22957
876.521	22896
876.65	22999
876.778	22877
876.906	22847
877.034	22835
877.162	22809
877.29	22752
877.418	22774
877.546	22900
877.674	22729
877.802	22748
877.93	22850
878.058	22733
878.185	22733
878.313	22797
878.441	22744
878.568	22660
878.696	22748
878.824	22782
878.951	22938
879.079	22995
879.206	23052
879.333	23056
879.461	22965
879.588	22877
879.715	23003
879.842	23044
879.97	22995
880.097	22622
880.224	22584
880.351	22660
880.478	22702
880.605	22489
880.732	22675
880.859	22812
880.986	22649
881.112	22615
881.239	22440
881.366	22440
881.493	22234
881.619	22246
881.746	22207
881.872	22257
881.999	22265
882.125	22166
882.252	22147
882.378	22169
882.505	22432
882.631	22120
882.757	21907
882.883	22006
883.01	21926
883.136	21850
883.262	21732
883.388	21781
883.514	21854
883.64	21850
883.766	21854
883.892	21671
884.018	21701
884.143	21926
884.269	21945
884.395	21671
884.52	21504
884.646	21401
884.772	21526
884.897	21534
885.023	21557
885.148	21648
885.274	21682
885.399	21713
885.524	21469
885.65	21545
885.775	21481
885.9	21496
886.025	21576
886.15	21557
886.275	21523
886.4	21485
886.525	21454
886.65	21473
886.775	21363
886.9	21557
887.025	21682
887.149	21530
887.274	21454
887.399	21203
887.523	21389
887.648	21329
887.773	21245
887.897	21428
888.021	21408
888.146	21127
888.27	21386
888.395	21473
888.519	21169
888.643	21332
888.767	21264
888.891	21211
889.015	21009
889.139	21184
889.263	21135
889.387	21241
889.511	21279
889.635	21272
889.759	21146
889.883	21089
890.006	21047
890.13	21275
890.254	21047
890.377	21024
890.501	20883
890.624	20834
890.748	20891
890.871	20918
890.995	20503
891.118	20617
891.241	20636
891.364	20750
891.488	20849
891.611	20689
891.734	20682
891.857	20750
891.98	20617
892.103	20625
892.226	20606
892.349	20602
892.471	20396
892.594	20674
892.717	20609
892.839	20617
892.962	20526
893.085	20648
893.207	20526
893.33	20560
893.452	20412
893.575	20602
893.697	20564
893.819	20651
893.941	20727
894.064	20701
894.186	20541
894.308	20473
894.43	20575
894.552	20743
894.674	20746
894.796	20385
894.918	20438
895.04	20465
895.161	20655
895.283	20552
895.405	20511
895.526	20701
895.648	20476
895.769	20514
895.891	20575
896.012	20564
896.134	20613
896.255	20469
896.376	20427
896.498	20606
896.619	20564
896.74	20640
896.861	20571
896.982	20883
897.103	20963
897.224	20830
897.345	20693
897.466	20705
897.587	20754
897.708	20796
897.828	20724
897.949	20686
898.07	20560
898.19	20739
898.311	20731
898.431	20731
898.552	20815
898.672	20826
898.792	20807
898.913	20754
899.033	20682
899.153	20507
899.273	20317
899.393	20511
899.513	20503
899.633	20480
899.753	20473
899.873	20389
899.993	20446
900.113	20476
900.232	20461
900.352	20377
900.472	20324
900.591	20233
900.711	20210
900.83	20259
900.95	20358
901.069	20381
901.189	20187
901.308	19921
901.427	19852
901.546	19860
901.665	19852
901.784	19738
901.904	19769
902.023	19586
902.141	19426
902.26	19228
902.379	19422
902.498	19388
902.617	19335
902.735	19434
902.854	19335
902.973	19152
903.091	18962
903.21	19107
903.328	18943
903.446	18852
903.565	18890
903.683	18821
903.801	18684
903.919	18741
904.038	18783
904.156	18677
904.274	18730
904.392	18601
904.51	18536
904.627	18589
904.745	18540
904.863	18661
904.981	18323
905.098	18201
905.216	18220
905.334	18292
905.451	18270
905.569	18300
905.686	18232
905.803	18171
905.921	18060
906.038	18106
906.155	18060
906.272	17908
906.389	17893
906.506	17893
906.623	17805
906.74	17817
906.857	17642
906.974	17729
907.091	17714
907.208	17954
907.324	17824
907.441	17710
907.557	17543
907.674	17611
907.79	17425
907.907	17467
908.023	17592
908.139	17589
908.256	17463
908.372	17474
908.488	17360
908.604	17258
908.72	17090
908.836	17231
908.952	17235
909.068	17246
909.184	17387
909.3	17269
909.415	17220
909.531	17231
909.647	16919
909.762	16820
909.878	16831
909.993	16873
910.108	16885
910.224	16873
910.339	16881
910.454	16767
910.57	16793
910.685	16713
910.8	16896
910.915	16847
911.03	16683
911.145	16550
911.259	16550
911.374	16523
911.489	16379
911.604	16295
911.718	16318
911.833	16192
911.947	16109
912.062	16131
912.176	16116
912.291	16246
912.405	16246
912.519	16371
912.633	16409
912.748	16257
912.862	16158
912.976	16120
913.09	16013
913.204	16082
913.318	16051
913.431	16154
913.545	16112
913.659	16150
913.772	16002
913.886	15873
914	15816
914.113	15884
914.226	16002
914.34	15892
914.453	15698
914.566	15869
914.68	15762
914.793	15610
914.906	15549
915.019	15523
915.132	15367
915.245	15477
915.358	15466
915.47	15389
915.583	15466
915.696	15454
915.809	15633
915.921	15564
916.034	15336
916.146	15424
916.259	15336
916.371	15378
916.483	15454
916.595	15256
916.708	15233
916.82	15298
916.932	15195
917.044	15161
917.156	15199
917.268	15077
917.38	15142
917.491	15119
917.603	15112
917.715	15127
917.826	15192
917.938	15062
918.049	15074
918.161	15097
918.272	15138
918.384	15116
918.495	14948
918.606	14895
918.717	14849
918.828	14853
918.939	14853
919.05	14792
919.161	14796
919.272	14598
919.383	14739
919.494	14880
919.604	14979
919.715	14834
919.826	14686
919.936	14891
920.047	14861
920.157	14857
920.267	14952
920.378	14716
920.488	14727
920.598	14967
920.708	15077
920.818	14876
920.928	14944
921.038	15100
921.148	14975
921.258	14762
921.368	14579
921.477	14598
921.587	14511
921.697	14423
921.806	14514
921.916	14461
922.025	14199
922.134	14172
922.244	14172
922.353	14225
922.462	14027
922.571	13913
922.68	13811
922.789	13860
922.898	13757
923.007	13704
923.116	13795
923.224	13803
923.333	13731
923.442	13681
923.55	13643
923.659	13685
923.767	13639
923.876	13552
923.984	13715
924.092	13495
924.201	13502
924.309	13464
924.417	13559
924.525	13491
924.633	13525
924.741	14408
924.849	13225
924.956	13426
925.064	13270
925.172	13175
925.279	13206
925.387	13202
925.494	13259
925.602	13343
925.709	13202
925.816	13050
925.924	13122
926.031	13251
926.138	13141
926.245	13118
926.352	13084
926.459	13236
926.566	13198
926.673	13057
926.779	13038
926.886	12943
926.993	12821
927.099	12738
927.206	12696
927.312	12677
927.419	12734
927.525	12772
927.631	12802
927.737	12696
927.843	12631
927.95	12589
928.056	12540
928.162	12597
928.267	12566
928.373	13266
928.479	12616
928.585	12395
928.69	12498
928.796	12513
928.901	12426
929.007	12346
929.112	12494
929.218	12353
929.323	12327
929.428	12346
929.533	12506
929.638	12258
929.743	12273
929.848	12315
929.953	12319
930.058	12133
930.163	11992
930.267	11996
930.372	12140
930.477	11901
930.581	12102
930.685	12098
930.79	11874
930.894	11920
930.998	11786
931.103	11946
931.207	11661
931.311	11539
931.415	11410
931.519	11273
931.623	11212
