Data from test_V78500241_2683.txt Node
Date: Fri Mar 25 15:28:32 CST 2022
User: usil
Spectrometer: V785-0024
Trigger mode: 0
Integration Time (sec): 4.000000E-1
Scans to average: 1
Nonlinearity correction enabled: false
Boxcar width: 0
Storing dark spectrum: false
XAxis mode: Wavelengths
Number of Pixels in Spectrum: 1024
>>>>>Begin Spectral Data<<<<<
801.071	27009
801.214	26956
801.356	26648
801.499	26796
801.641	26431
801.783	26526
801.926	26469
802.068	26461
802.211	26362
802.353	26393
802.496	26214
802.638	26221
802.78	26039
802.923	26119
803.065	26153
803.208	25986
803.35	26233
803.492	26172
803.635	26286
803.777	26122
803.919	26400
804.061	26606
804.204	26286
804.346	26309
804.488	26168
804.63	26233
804.773	26206
804.915	26301
805.057	26465
805.199	26237
805.341	26313
805.483	26419
805.626	26374
805.768	26423
805.91	26320
806.052	26511
806.194	26313
806.336	26629
806.478	26381
806.62	26336
806.762	26530
806.904	26663
807.046	26933
807.188	26914
807.33	26769
807.472	26933
807.614	26632
807.756	26571
807.898	26613
808.04	26617
808.182	26514
808.324	26667
808.465	26636
808.607	26842
808.749	26944
808.891	27058
809.033	27123
809.174	26986
809.316	26963
809.458	26982
809.6	26967
809.741	26921
809.883	27165
810.025	27119
810.166	27176
810.308	27412
810.45	27199
810.591	27116
810.733	26979
810.875	26990
811.016	26956
811.158	26906
811.299	27032
811.441	27051
811.582	27176
811.724	26994
811.865	27001
812.007	26880
812.148	26834
812.29	26910
812.431	27157
812.573	27275
812.714	27275
812.855	27443
812.997	27485
813.138	27652
813.279	27542
813.421	27435
813.562	27439
813.703	27291
813.845	27180
813.986	26773
814.127	26625
814.268	26568
814.41	26640
814.551	26579
814.692	26648
814.833	26552
814.974	26533
815.115	26655
815.256	26697
815.397	26465
815.539	26541
815.68	26571
815.821	26263
815.962	26488
816.103	26278
816.244	26252
816.385	26103
816.526	26183
816.666	25913
816.807	25894
816.948	25928
817.089	25902
817.23	25811
817.371	25894
817.512	25940
817.653	25868
817.793	25807
817.934	25784
818.075	25811
818.216	25807
818.356	25738
818.497	25689
818.638	25499
818.778	25506
818.919	25548
819.06	25597
819.2	25765
819.341	25826
819.481	25693
819.622	26084
819.762	26180
819.903	25917
820.043	25955
820.184	26043
820.324	25966
820.465	25974
820.605	25955
820.746	25932
820.886	25624
821.026	25925
821.167	25814
821.307	26073
821.447	25761
821.588	25784
821.728	25563
821.868	25502
822.008	25358
822.149	25384
822.289	25339
822.429	25000
822.569	25148
822.709	25015
822.849	24829
822.99	24909
823.13	24764
823.27	24696
823.41	24669
823.55	24677
823.69	24620
823.83	24566
823.97	24593
824.11	24437
824.25	24441
824.389	24342
824.529	24528
824.669	24456
824.809	24616
824.949	24483
825.089	24502
825.228	24467
825.368	24327
825.508	24304
825.648	24498
825.787	24346
825.927	24395
826.067	24338
826.206	24232
826.346	24376
826.485	24437
826.625	24380
826.765	24471
826.904	24395
827.044	24133
827.183	24144
827.323	24045
827.462	24083
827.601	23988
827.741	23923
827.88	24057
828.02	23931
828.159	24011
828.298	23973
828.437	24057
828.577	24011
828.716	24007
828.855	23984
828.994	23767
829.134	23665
829.273	23790
829.412	23638
829.551	23703
829.69	23684
829.829	23665
829.968	23710
830.107	23950
830.246	23710
830.385	23760
830.524	23562
830.663	23520
830.802	23436
830.941	23383
831.08	23311
831.219	23493
831.357	23353
831.496	23665
831.635	23322
831.774	23296
831.913	23212
832.051	23136
832.19	23105
832.329	23220
832.467	23067
832.606	23010
832.744	23033
832.883	23018
833.022	23117
833.16	23048
833.299	23231
833.437	23052
833.576	23064
833.714	23140
833.852	23117
833.991	23067
834.129	23189
834.267	23155
834.406	23094
834.544	23189
834.682	23052
834.821	23064
834.959	23166
835.097	23025
835.235	23003
835.373	23079
835.511	23094
835.65	22953
835.788	22972
835.926	22679
836.064	22694
836.202	22809
836.34	22946
836.478	22999
836.615	22847
836.753	22972
836.891	23083
837.029	23003
837.167	22877
837.305	22892
837.443	22786
837.58	22778
837.718	22793
837.856	22824
837.993	22702
838.131	22698
838.269	22603
838.406	22713
838.544	22683
838.681	22295
838.819	22478
838.956	22352
839.094	22188
839.231	22280
839.369	22386
839.506	22660
839.643	22531
839.781	22337
839.918	22223
840.055	22344
840.193	22238
840.33	22219
840.467	22314
840.604	22223
840.742	22557
840.879	22124
841.016	22135
841.153	22128
841.29	22489
841.427	22188
841.564	22169
841.701	22112
841.838	22040
841.975	22128
842.112	22097
842.249	22086
842.385	21953
842.522	22280
842.659	22017
842.796	22059
842.933	21907
843.069	22025
843.206	21846
843.343	22036
843.479	21987
843.616	21972
843.752	21728
843.889	21709
844.025	21819
844.162	21713
844.298	21854
844.435	21778
844.571	21652
844.708	21800
844.844	21911
844.98	21800
845.117	21846
845.253	21648
845.389	21580
845.525	21682
845.661	21614
845.798	21534
845.934	21443
846.07	21382
846.206	21515
846.342	21686
846.478	21439
846.614	21279
846.75	21154
846.886	21283
847.022	21378
847.158	21211
847.294	21279
847.429	21294
847.565	21081
847.701	21450
847.837	20994
847.972	20826
848.108	21036
848.244	21039
848.379	20815
848.515	20773
848.65	20899
848.786	20727
848.921	20876
849.057	20918
849.192	20941
849.328	20921
849.463	20864
849.598	20811
849.734	20739
849.869	20659
850.004	20571
850.14	20682
850.275	20499
850.41	20507
850.545	20621
850.68	20492
850.815	20720
850.95	20606
851.085	20796
851.22	20686
851.355	20708
851.49	20556
851.625	20602
851.76	20488
851.895	20541
852.03	20469
852.165	20640
852.299	20556
852.434	20587
852.569	20636
852.703	20602
852.838	20590
852.973	20689
853.107	20701
853.242	20625
853.376	20377
853.511	20366
853.645	20309
853.78	20518
853.914	20427
854.048	20381
854.183	20564
854.317	20377
854.451	20461
854.585	20461
854.72	20469
854.854	20495
854.988	20396
855.122	20286
855.256	20142
855.39	20400
855.524	20533
855.658	20393
855.792	20446
855.926	20434
856.06	20412
856.194	20404
856.327	20309
856.461	20370
856.595	20377
856.729	20343
856.862	20480
856.996	20370
857.13	20427
857.263	20541
857.397	20560
857.53	20358
857.664	20480
857.797	20457
857.931	20465
858.064	20358
858.197	20590
858.331	20320
858.464	20294
858.597	20320
858.731	20461
858.864	20396
858.997	20324
859.13	20355
859.263	20351
859.396	20358
859.529	20396
859.662	20301
859.795	20358
859.928	20438
860.061	20648
860.194	20663
860.327	20431
860.46	20476
860.592	20488
860.725	20518
860.858	20454
860.99	20476
861.123	20267
861.256	20328
861.388	20389
861.521	21135
861.653	20130
861.786	20229
861.918	20233
862.05	20294
862.183	20336
862.315	20389
862.447	20400
862.58	20324
862.712	20153
862.844	20180
862.976	20313
863.108	20077
863.24	20659
863.372	19951
863.504	20092
863.636	20103
863.768	20153
863.9	20138
864.032	20054
864.164	20077
864.296	20172
864.428	20210
864.559	20172
864.691	20244
864.823	20081
864.954	20050
865.086	20073
865.217	20069
865.349	19932
865.48	20107
865.612	20046
865.743	20115
865.875	20119
866.006	19890
866.137	20111
866.269	20012
866.4	19989
866.531	19993
866.662	19951
866.793	19997
866.924	19909
867.055	20088
867.186	19936
867.317	19902
867.448	19864
867.579	20062
867.71	19986
867.841	19986
867.972	20012
868.103	19989
868.233	20069
868.364	19845
868.495	20115
868.625	20267
868.756	20385
868.886	20149
869.017	20122
869.147	20278
869.278	20408
869.408	20336
869.539	20248
869.669	20324
869.799	20195
869.929	20362
870.06	20271
870.19	20541
870.32	20495
870.45	20575
870.58	20689
870.71	20746
870.84	20636
870.97	20522
871.1	20648
871.23	20826
871.36	20792
871.489	20716
871.619	20712
871.749	20868
871.879	20872
872.008	20861
872.138	20880
872.267	20743
872.397	20712
872.526	20686
872.656	20682
872.785	20594
872.915	20769
873.044	20937
873.173	20701
873.303	20864
873.432	20933
873.561	20880
873.69	20834
873.819	20765
873.948	20815
874.077	20929
874.206	20823
874.335	20811
874.464	20929
874.593	21066
874.722	20982
874.851	21074
874.979	21112
875.108	21150
875.237	21081
875.365	21100
875.494	21039
875.623	21142
875.751	21047
875.88	21131
876.008	21226
876.136	21310
876.265	21351
876.393	21724
876.521	21568
876.65	21587
876.778	21424
876.906	21428
877.034	21389
877.162	21401
877.29	21424
877.418	21458
877.546	21466
877.674	21450
877.802	21382
877.93	21367
878.058	21477
878.185	21294
878.313	21408
878.441	21378
878.568	21264
878.696	21317
878.824	21500
878.951	21572
879.079	21606
879.206	21679
879.333	21622
879.461	21458
879.588	21500
879.715	21561
879.842	21747
879.97	21469
880.097	21310
880.224	21218
880.351	21272
880.478	21279
880.605	21272
880.732	21150
880.859	21523
880.986	21275
881.112	21226
881.239	21138
881.366	21051
881.493	21127
881.619	20910
881.746	20853
881.872	20750
881.999	20720
882.125	20834
882.252	20880
882.378	20781
882.505	20910
882.631	20648
882.757	20575
882.883	20568
883.01	20667
883.136	20590
883.262	20431
883.388	20423
883.514	20545
883.64	20648
883.766	20541
883.892	20389
884.018	20336
884.143	20526
884.269	20602
884.395	20176
884.52	20191
884.646	20298
884.772	20005
884.897	20107
885.023	20172
885.148	20298
885.274	20427
885.399	20362
885.524	20195
885.65	20138
885.775	20183
885.9	20202
886.025	20351
886.15	20221
886.275	20214
886.4	20122
886.525	20248
886.65	20134
886.775	20024
886.9	20282
887.025	20393
887.149	20191
887.274	19989
887.399	19909
887.523	19978
887.648	19917
887.773	19955
887.897	19986
888.021	19955
888.146	19860
888.27	20176
888.395	20046
888.519	20058
888.643	20077
888.767	19944
888.891	19928
889.015	19761
889.139	19974
889.263	19807
889.387	19833
889.511	20046
889.635	19970
889.759	19795
889.883	19856
890.006	19807
890.13	19906
890.254	19624
890.377	19693
890.501	19499
890.624	19483
890.748	19559
890.871	19483
890.995	19422
891.118	19304
891.241	19312
891.364	19457
891.488	19495
891.611	19502
891.734	19472
891.857	19457
891.98	19293
892.103	19533
892.226	19396
892.349	19377
892.471	19187
892.594	19289
892.717	19369
892.839	19293
892.962	19301
893.085	19373
893.207	19320
893.33	19168
893.452	19270
893.575	19384
893.697	19331
893.819	19430
893.941	19472
894.064	19449
894.186	19255
894.308	19160
894.43	19335
894.552	19415
894.674	19449
894.796	19122
894.918	19297
895.04	19217
895.161	19343
895.283	19320
895.405	19255
895.526	19400
895.648	19263
895.769	19304
895.891	19274
896.012	19381
896.134	19457
896.255	19365
896.376	19301
896.498	19369
896.619	19400
896.74	19301
896.861	19365
896.982	19628
897.103	19761
897.224	19472
897.345	19411
897.466	19502
897.587	19495
897.708	19723
897.828	19506
897.949	19369
898.07	19381
898.19	19430
898.311	19643
898.431	19506
898.552	19518
898.672	19453
898.792	19575
898.913	19499
899.033	19464
899.153	19350
899.273	19251
899.393	19400
899.513	19278
899.633	19320
899.753	19213
899.873	19148
899.993	19377
900.113	19293
900.232	19365
900.352	19232
900.472	19171
900.591	19042
900.711	19091
900.83	19000
900.95	19103
901.069	19183
901.189	19057
901.308	18856
901.427	18741
901.546	18669
901.665	18783
901.784	18783
901.904	18597
902.023	18536
902.141	18239
902.26	18209
902.379	18273
902.498	18178
902.617	18171
902.735	18273
902.854	18205
902.973	18163
903.091	17897
903.21	17855
903.328	17999
903.446	17809
903.565	17832
903.683	17707
903.801	17684
903.919	17646
904.038	17703
904.156	17486
904.274	17570
904.392	17448
904.51	17421
904.627	17452
904.745	17509
904.863	17535
904.981	17254
905.098	17113
905.216	16987
905.334	17197
905.451	17216
905.569	17223
905.686	17094
905.803	17140
905.921	16873
906.038	17025
906.155	16995
906.272	16793
906.389	16896
906.506	16740
906.623	16645
906.74	16653
906.857	16675
906.974	16588
907.091	16748
907.208	16790
907.324	16755
907.441	16577
907.557	16466
907.674	16344
907.79	16405
907.907	16402
908.023	16493
908.139	16436
908.256	16405
908.372	16261
908.488	16200
908.604	16200
908.72	16021
908.836	16097
908.952	16090
909.068	16139
909.184	16284
909.3	16185
909.415	16124
909.531	16082
909.647	15827
909.762	15846
909.878	15781
909.993	15975
910.108	15842
910.224	15816
910.339	15861
910.454	15656
910.57	15644
910.685	15466
910.8	15968
910.915	15895
911.03	15728
911.145	15500
911.259	15481
911.374	15511
911.489	15443
911.604	15500
911.718	15233
911.833	15195
911.947	15237
912.062	15207
912.176	15203
912.291	15230
912.405	15146
912.519	15439
912.633	15447
912.748	15275
912.862	15313
912.976	15081
913.09	14902
913.204	15146
913.318	15093
913.431	15180
913.545	15089
913.659	15195
913.772	14982
913.886	14891
914	14811
914.113	14910
914.226	15028
914.34	14956
914.453	14762
914.566	14933
914.68	14746
914.793	14602
914.906	14514
915.019	14480
915.132	14400
915.245	14469
915.358	14469
915.47	14465
915.583	14465
915.696	14484
915.809	14590
915.921	14701
916.034	14465
916.146	14408
916.259	14256
916.371	14408
916.483	14328
916.595	14423
916.708	14377
916.82	14267
916.932	14328
917.044	14358
917.156	14248
917.268	14199
917.38	14161
917.491	14142
917.603	14130
917.715	14202
917.826	14191
917.938	14069
918.049	13921
918.161	14138
918.272	14275
918.384	14263
918.495	14065
918.606	13993
918.717	13833
918.828	13951
918.939	14001
919.05	13856
919.161	13898
919.272	13693
919.383	13731
919.494	13978
919.604	14096
919.715	13959
919.826	13753
919.936	13925
920.047	13989
920.157	13909
920.267	14096
920.378	13887
920.488	13852
920.598	14100
920.708	14202
920.818	13978
920.928	14001
921.038	14153
921.148	14096
921.258	13856
921.368	13731
921.477	13677
921.587	13643
921.697	13514
921.806	13620
921.916	13419
922.025	13331
922.134	13407
922.244	13251
922.353	13350
922.462	13175
922.571	13050
922.68	12989
922.789	12993
922.898	12958
923.007	12947
923.116	13012
923.224	12905
923.333	13004
923.442	12878
923.55	12757
923.659	12928
923.767	12802
923.876	12768
923.984	12810
924.092	12677
924.201	12738
924.309	12696
924.417	12642
924.525	12593
924.633	12681
924.741	13392
924.849	12422
924.956	12578
925.064	12418
925.172	12361
925.279	12467
925.387	12353
925.494	12475
925.602	12582
925.709	12475
925.816	12346
925.924	12334
926.031	12429
926.138	12376
926.245	12429
926.352	12262
926.459	12414
926.566	12483
926.673	12338
926.779	12197
926.886	12171
926.993	12053
927.099	12026
927.206	11973
927.312	11973
927.419	11946
927.525	11984
927.631	12098
927.737	11920
927.843	11813
927.95	11699
928.056	11843
928.162	11805
928.267	11832
928.373	12353
928.479	11847
928.585	11661
928.69	11813
928.796	11809
928.901	11771
929.007	11551
929.112	11779
929.218	11699
929.323	11551
929.428	11505
929.533	11608
929.638	11516
929.743	11452
929.848	11528
929.953	11486
930.058	11455
930.163	11250
930.267	11311
930.372	11425
930.477	11227
930.581	11410
930.685	11303
930.79	11140
930.894	11231
930.998	11151
931.103	11204
931.207	10976
931.311	10889
931.415	10725
931.519	10558
931.623	10580
