Data from test_V78500241_2475.txt Node
Date: Fri Mar 25 15:27:05 CST 2022
User: usil
Spectrometer: V785-0024
Trigger mode: 0
Integration Time (sec): 4.000000E-1
Scans to average: 1
Nonlinearity correction enabled: false
Boxcar width: 0
Storing dark spectrum: false
XAxis mode: Wavelengths
Number of Pixels in Spectrum: 1024
>>>>>Begin Spectral Data<<<<<
801.071	27085
801.214	27089
801.356	26880
801.499	26838
801.641	26708
801.783	26598
801.926	26697
802.068	26617
802.211	26648
802.353	26648
802.496	26400
802.638	26400
802.78	26313
802.923	26221
803.065	26142
803.208	26256
803.35	26351
803.492	26347
803.635	26423
803.777	26408
803.919	26541
804.061	26739
804.204	26590
804.346	26427
804.488	26461
804.63	26480
804.773	26317
804.915	26499
805.057	26480
805.199	26518
805.341	26434
805.483	26632
805.626	26587
805.768	26427
805.91	26598
806.052	26503
806.194	26587
806.336	26781
806.478	26663
806.62	26609
806.762	26716
806.904	26960
807.046	27032
807.188	26804
807.33	27119
807.472	26982
807.614	27036
807.756	26967
807.898	26800
808.04	26777
808.182	26876
808.324	26849
808.465	26982
808.607	26952
808.749	27116
808.891	27199
809.033	27226
809.174	27287
809.316	27192
809.458	27169
809.6	27199
809.741	27226
809.883	27283
810.025	27374
810.166	27386
810.308	27504
810.45	27325
810.591	27310
810.733	27093
810.875	27142
811.016	27032
811.158	27051
811.299	27256
811.441	27504
811.582	27298
811.724	27214
811.865	27214
812.007	27074
812.148	27119
812.29	27127
812.431	27283
812.573	27412
812.714	27496
812.855	27766
812.997	27835
813.138	27846
813.279	27724
813.421	27633
813.562	27698
813.703	27427
813.845	27378
813.986	27047
814.127	26800
814.268	26914
814.41	26815
814.551	26731
814.692	26857
814.833	26819
814.974	26682
815.115	26952
815.256	26636
815.397	26587
815.539	26716
815.68	26739
815.821	26549
815.962	26621
816.103	26533
816.244	26492
816.385	26423
816.526	26362
816.666	26206
816.807	26031
816.948	26024
817.089	26138
817.23	26111
817.371	25955
817.512	25917
817.653	26145
817.793	25932
817.934	26103
818.075	25993
818.216	26024
818.356	26039
818.497	25875
818.638	25639
818.778	25909
818.919	25833
819.06	25822
819.2	26012
819.341	26035
819.481	26046
819.622	26244
819.762	26294
819.903	26218
820.043	26294
820.184	26183
820.324	26210
820.465	26180
820.605	26233
820.746	26134
820.886	26043
821.026	26278
821.167	26039
821.307	26195
821.447	26168
821.588	25978
821.728	25894
821.868	25712
822.008	25533
822.149	25548
822.289	25430
822.429	25263
822.569	25137
822.709	25171
822.849	25053
822.99	25084
823.13	25072
823.27	24966
823.41	24798
823.55	24833
823.69	24932
823.83	24913
823.97	24806
824.11	24726
824.25	24646
824.389	24783
824.529	24833
824.669	24681
824.809	24749
824.949	24692
825.089	24749
825.228	24779
825.368	24369
825.508	24574
825.648	24407
825.787	24479
825.927	24760
826.067	24544
826.206	24631
826.346	24768
826.485	24525
826.625	24448
826.765	24639
826.904	24658
827.044	24350
827.183	24357
827.323	24220
827.462	24369
827.601	24350
827.741	24350
827.88	24254
828.02	24197
828.159	24201
828.298	24152
828.437	24323
828.577	24220
828.716	24376
828.855	24174
828.994	24022
829.134	23916
829.273	24117
829.412	23942
829.551	23866
829.69	23927
829.829	23923
829.968	23961
830.107	24045
830.246	23920
830.385	23965
830.524	23821
830.663	23802
830.802	23676
830.941	23581
831.08	23467
831.219	23619
831.357	23577
831.496	23771
831.635	23573
831.774	23615
831.913	23463
832.051	23345
832.19	23360
832.329	23490
832.467	23189
832.606	23147
832.744	23284
832.883	23292
833.022	23204
833.16	23273
833.299	23368
833.437	23280
833.576	23326
833.714	23356
833.852	23417
833.991	23455
834.129	23391
834.267	23512
834.406	23296
834.544	23292
834.682	23387
834.821	23360
834.959	23535
835.097	23147
835.235	23486
835.373	23318
835.511	23216
835.65	23223
835.788	23197
835.926	23083
836.064	22991
836.202	23079
836.34	23166
836.478	23212
836.615	23105
836.753	23197
836.891	23227
837.029	23204
837.167	23143
837.305	23140
837.443	23037
837.58	23037
837.718	23147
837.856	23185
837.993	22965
838.131	23056
838.269	22965
838.406	22961
838.544	22881
838.681	22733
838.819	22702
838.956	22382
839.094	22478
839.231	22508
839.369	22660
839.506	22923
839.643	22862
839.781	22519
839.918	22428
840.055	22451
840.193	22405
840.33	22447
840.467	22432
840.604	22637
840.742	22679
840.879	22360
841.016	22451
841.153	22344
841.29	22634
841.427	22466
841.564	22565
841.701	22538
841.838	22329
841.975	22344
842.112	22417
842.249	22417
842.385	22276
842.522	22440
842.659	22409
842.796	22287
842.933	22173
843.069	22257
843.206	22219
843.343	22284
843.479	22177
843.616	22234
843.752	21907
843.889	22025
844.025	22257
844.162	21987
844.298	22090
844.435	21964
844.571	21964
844.708	22074
844.844	22166
844.98	22048
845.117	22097
845.253	21960
845.389	21934
845.525	21884
845.661	21846
845.798	21614
845.934	21766
846.07	21572
846.206	21690
846.342	21743
846.478	21622
846.614	21614
846.75	21420
846.886	21370
847.022	21587
847.158	21454
847.294	21473
847.429	21397
847.565	21515
847.701	21705
847.837	21116
847.972	21142
848.108	21310
848.244	21298
848.379	21108
848.515	20982
848.65	20975
848.786	21188
848.921	21123
849.057	21116
849.192	21222
849.328	21112
849.463	21043
849.598	21043
849.734	21066
849.869	21039
850.004	20811
850.14	20872
850.275	20830
850.41	20804
850.545	20895
850.68	20754
850.815	20891
850.95	20769
851.085	21039
851.22	20830
851.355	20834
851.49	20777
851.625	20838
851.76	20769
851.895	20842
852.03	20830
852.165	20933
852.299	20902
852.434	20746
852.569	20819
852.703	20902
852.838	20883
852.973	20914
853.107	20963
853.242	20705
853.376	20659
853.511	20613
853.645	20541
853.78	20876
853.914	20670
854.048	20701
854.183	20663
854.317	20590
854.451	20933
854.585	20762
854.72	20644
854.854	20769
854.988	20602
855.122	20659
855.256	20461
855.39	20701
855.524	20663
855.658	20689
855.792	20701
855.926	20716
856.06	20621
856.194	20705
856.327	20514
856.461	20636
856.595	20571
856.729	20587
856.862	20815
856.996	20674
857.13	20754
857.263	20762
857.397	20800
857.53	20609
857.664	20670
857.797	20689
857.931	20724
858.064	20617
858.197	20735
858.331	20625
858.464	20526
858.597	20552
858.731	20625
858.864	20632
858.997	20560
859.13	20613
859.263	20758
859.396	20693
859.529	20632
859.662	20693
859.795	20594
859.928	20663
860.061	20887
860.194	20853
860.327	20693
860.46	20667
860.592	20693
860.725	20743
860.858	20800
860.99	20705
861.123	20609
861.256	20640
861.388	20629
861.521	21256
861.653	20473
861.786	20355
861.918	20454
862.05	20503
862.183	20621
862.315	20533
862.447	20651
862.58	20560
862.712	20377
862.844	20362
862.976	20511
863.108	20442
863.24	20948
863.372	20324
863.504	20374
863.636	20370
863.768	20423
863.9	20259
864.032	20305
864.164	20317
864.296	20385
864.428	20522
864.559	20473
864.691	20385
864.823	20412
864.954	20454
865.086	20381
865.217	20324
865.349	20202
865.48	20202
865.612	20202
865.743	20366
865.875	20248
866.006	20263
866.137	20252
866.269	20313
866.4	20134
866.531	20221
866.662	20191
866.793	20218
866.924	20202
867.055	20153
867.186	20214
867.317	20210
867.448	20077
867.579	20100
867.71	20100
867.841	20138
867.972	20248
868.103	20237
868.233	20187
868.364	20180
868.495	20396
868.625	20412
868.756	20499
868.886	20541
869.017	20393
869.147	20526
869.278	20556
869.408	20507
869.539	20533
869.669	20434
869.799	20583
869.929	20667
870.06	20602
870.19	20842
870.32	20689
870.45	20765
870.58	20842
870.71	20902
870.84	20849
870.97	20823
871.1	20720
871.23	20960
871.36	20937
871.489	20925
871.619	21058
871.749	21081
871.879	21142
872.008	21214
872.138	21066
872.267	20952
872.397	20937
872.526	20925
872.656	20861
872.785	20975
872.915	20986
873.044	21123
873.173	21127
873.303	21173
873.432	21077
873.561	21123
873.69	21017
873.819	21135
873.948	21032
874.077	21051
874.206	21036
874.335	21131
874.464	21272
874.593	21317
874.722	21287
874.851	21374
874.979	21325
875.108	21447
875.237	21218
875.365	21252
875.494	21279
875.623	21294
875.751	21245
875.88	21325
876.008	21515
876.136	21473
876.265	21724
876.393	21823
876.521	21660
876.65	21781
876.778	21652
876.906	21728
877.034	21660
877.162	21618
877.29	21637
877.418	21755
877.546	21656
877.674	21660
877.802	21599
877.93	21701
878.058	21690
878.185	21496
878.313	21648
878.441	21580
878.568	21580
878.696	21637
878.824	21762
878.951	21637
879.079	21842
879.206	21998
879.333	21850
879.461	21675
879.588	21770
879.715	21869
879.842	21907
879.97	21736
880.097	21549
880.224	21542
880.351	21553
880.478	21599
880.605	21462
880.732	21504
880.859	21739
880.986	21606
881.112	21435
881.239	21344
881.366	21317
881.493	21135
881.619	21077
881.746	21058
881.872	21127
881.999	20944
882.125	20982
882.252	21047
882.378	20998
882.505	21119
882.631	20887
882.757	20758
882.883	20880
883.01	20796
883.136	20785
883.262	20640
883.388	20587
883.514	20682
883.64	20937
883.766	20663
883.892	20526
884.018	20549
884.143	20697
884.269	20785
884.395	20549
884.52	20465
884.646	20393
884.772	20332
884.897	20377
885.023	20381
885.148	20644
885.274	20492
885.399	20442
885.524	20434
885.65	20374
885.775	20499
885.9	20294
886.025	20495
886.15	20526
886.275	20298
886.4	20431
886.525	20389
886.65	20434
886.775	20336
886.9	20511
887.025	20667
887.149	20400
887.274	20294
887.399	20252
887.523	20244
887.648	20164
887.773	20145
887.897	20336
888.021	20313
888.146	20142
888.27	20320
888.395	20248
888.519	20153
888.643	20180
888.767	20282
888.891	20138
889.015	20065
889.139	20054
889.263	19917
889.387	19940
889.511	20381
889.635	20096
889.759	19982
889.883	19989
890.006	19955
890.13	20058
890.254	19936
890.377	20016
890.501	19841
890.624	19807
890.748	19845
890.871	19715
890.995	19563
891.118	19502
891.241	19704
891.364	19700
891.488	19746
891.611	19616
891.734	19647
891.857	19655
891.98	19594
892.103	19613
892.226	19491
892.349	19575
892.471	19362
892.594	19575
892.717	19666
892.839	19548
892.962	19628
893.085	19384
893.207	19434
893.33	19331
893.452	19434
893.575	19533
893.697	19438
893.819	19712
893.941	19639
894.064	19567
894.186	19381
894.308	19518
894.43	19624
894.552	19719
894.674	19502
894.796	19438
894.918	19430
895.04	19518
895.161	19655
895.283	19609
895.405	19483
895.526	19624
895.648	19480
895.769	19510
895.891	19567
896.012	19647
896.134	19571
896.255	19548
896.376	19419
896.498	19533
896.619	19506
896.74	19525
896.861	19476
896.982	19856
897.103	19986
897.224	19715
897.345	19605
897.466	19723
897.587	19719
897.708	19826
897.828	19833
897.949	19605
898.07	19624
898.19	19601
898.311	19689
898.431	19662
898.552	19803
898.672	19845
898.792	19826
898.913	19750
899.033	19700
899.153	19514
899.273	19407
899.393	19430
899.513	19441
899.633	19597
899.753	19605
899.873	19540
899.993	19540
900.113	19384
900.232	19487
900.352	19388
900.472	19335
900.591	19255
900.711	19228
900.83	19270
900.95	19407
901.069	19350
901.189	19164
901.308	18852
901.427	18878
901.546	18730
901.665	18894
901.784	18916
901.904	18711
902.023	18616
902.141	18536
902.26	18479
902.379	18460
902.498	18422
902.617	18384
902.735	18483
902.854	18289
902.973	18296
903.091	18095
903.21	18038
903.328	18038
903.446	18057
903.565	17939
903.683	17965
903.801	17745
903.919	17756
904.038	17775
904.156	17642
904.274	17760
904.392	17608
904.51	17604
904.627	17642
904.745	17699
904.863	17726
904.981	17433
905.098	17307
905.216	17425
905.334	17360
905.451	17402
905.569	17284
905.686	17269
905.803	17345
905.921	17121
906.038	17261
906.155	17113
906.272	17098
906.389	16987
906.506	16885
906.623	16911
906.74	16862
906.857	16778
906.974	16805
907.091	16919
907.208	16946
907.324	16911
907.441	16854
907.557	16565
907.674	16584
907.79	16664
907.907	16382
908.023	16656
908.139	16599
908.256	16470
908.372	16584
908.488	16512
908.604	16348
908.72	16386
908.836	16367
908.952	16352
909.068	16432
909.184	16363
909.3	16291
909.415	16310
909.531	16204
909.647	16044
909.762	16036
909.878	16013
909.993	15972
910.108	15998
910.224	16021
910.339	16017
910.454	15842
910.57	15800
910.685	15789
910.8	16112
910.915	15907
911.03	15831
911.145	15709
911.259	15660
911.374	15622
911.489	15439
911.604	15477
911.718	15416
911.833	15367
911.947	15386
912.062	15420
912.176	15488
912.291	15523
912.405	15477
912.519	15644
912.633	15614
912.748	15500
912.862	15348
912.976	15268
913.09	15104
913.204	15104
913.318	15184
913.431	15332
913.545	15310
913.659	15306
913.772	15188
913.886	15176
914	15112
914.113	15123
914.226	15207
914.34	15066
914.453	14979
914.566	15032
914.68	14979
914.793	14925
914.906	14727
915.019	14663
915.132	14556
915.245	14716
915.358	14583
915.47	14587
915.583	14583
915.696	14750
915.809	14724
915.921	14777
916.034	14625
916.146	14499
916.259	14465
916.371	14629
916.483	14579
916.595	14549
916.708	14537
916.82	14415
916.932	14419
917.044	14389
917.156	14469
917.268	14355
917.38	14347
917.491	14278
917.603	14252
917.715	14366
917.826	14385
917.938	14180
918.049	14195
918.161	14294
918.272	14442
918.384	14389
918.495	14267
918.606	14149
918.717	14046
918.828	14100
918.939	14157
919.05	13913
919.161	14016
919.272	13898
919.383	13913
919.494	14039
919.604	14237
919.715	14054
919.826	13997
919.936	13955
920.047	14005
920.157	14092
920.267	14172
920.378	14069
920.488	13921
920.598	14294
920.708	14339
920.818	14191
920.928	14161
921.038	14427
921.148	14294
921.258	14031
921.368	13967
921.477	13830
921.587	13784
921.697	13655
921.806	13856
921.916	13662
922.025	13430
922.134	13502
922.244	13445
922.353	13552
922.462	13343
922.571	13297
922.68	13156
922.789	13095
922.898	13065
923.007	13012
923.116	13103
923.224	13023
923.333	13133
923.442	12985
923.55	12920
923.659	12943
923.767	13008
923.876	12890
923.984	12901
924.092	12821
924.201	12844
924.309	12909
924.417	12798
924.525	12814
924.633	12738
924.741	13746
924.849	12593
924.956	12684
925.064	12517
925.172	12513
925.279	12521
925.387	12509
925.494	12528
925.602	12623
925.709	12525
925.816	12369
925.924	12540
926.031	12681
926.138	12490
926.245	12513
926.352	12418
926.459	12494
926.566	12665
926.673	12414
926.779	12178
926.886	12308
926.993	12163
927.099	12152
927.206	12095
927.312	12060
927.419	12068
927.525	12068
927.631	12186
927.737	11969
927.843	11885
927.95	11836
928.056	11999
928.162	12015
928.267	11999
928.373	12646
928.479	12072
928.585	11821
928.69	11870
928.796	11870
928.901	11752
929.007	11684
929.112	11767
929.218	11756
929.323	11790
929.428	11642
929.533	11847
929.638	11604
929.743	11615
929.848	11680
929.953	11528
930.058	11505
930.163	11383
930.267	11402
930.372	11512
930.477	11303
930.581	11493
930.685	11455
930.79	11254
930.894	11387
930.998	11284
931.103	11395
931.207	11014
931.311	10904
931.415	10858
931.519	10599
931.623	10630
