Data from test_V78500241_2254.txt Node
Date: Fri Mar 25 15:25:33 CST 2022
User: usil
Spectrometer: V785-0024
Trigger mode: 0
Integration Time (sec): 4.000000E-1
Scans to average: 1
Nonlinearity correction enabled: false
Boxcar width: 0
Storing dark spectrum: false
XAxis mode: Wavelengths
Number of Pixels in Spectrum: 1024
>>>>>Begin Spectral Data<<<<<
801.071	27656
801.214	27511
801.356	27348
801.499	27363
801.641	27287
801.783	27317
801.926	27325
802.068	27291
802.211	27138
802.353	27020
802.496	26990
802.638	27001
802.78	26899
802.923	26842
803.065	26868
803.208	26921
803.35	26887
803.492	27081
803.635	26963
803.777	27039
803.919	27146
804.061	27386
804.204	27203
804.346	26967
804.488	26998
804.63	26990
804.773	26990
804.915	27157
805.057	27173
805.199	27108
805.341	27096
805.483	27256
805.626	27275
805.768	27287
805.91	27256
806.052	27310
806.194	27154
806.336	27386
806.478	27218
806.62	27310
806.762	27355
806.904	27500
807.046	27675
807.188	27736
807.33	27732
807.472	27648
807.614	27618
807.756	27603
807.898	27504
808.04	27549
808.182	27515
808.324	27530
808.465	27663
808.607	27751
808.749	27861
808.891	27941
809.033	27972
809.174	27979
809.316	27861
809.458	27869
809.6	27941
809.741	27983
809.883	27983
810.025	28234
810.166	28188
810.308	28207
810.45	28120
810.591	27964
810.733	27835
810.875	27679
811.016	27770
811.158	27663
811.299	27972
811.441	27956
811.582	27987
811.724	27865
811.865	27781
812.007	27937
812.148	27720
812.29	27861
812.431	28044
812.573	28200
812.714	28371
812.855	28516
812.997	28538
813.138	28470
813.279	28550
813.421	28287
813.562	28295
813.703	28207
813.845	28055
813.986	27899
814.127	27694
814.268	27572
814.41	27698
814.551	27644
814.692	27622
814.833	27447
814.974	27614
815.115	27644
815.256	27492
815.397	27336
815.539	27530
815.68	27332
815.821	27291
815.962	27416
816.103	27332
816.244	27146
816.385	27074
816.526	27039
816.666	27055
816.807	26781
816.948	26929
817.089	26910
817.23	26902
817.371	26785
817.512	26868
817.653	26826
817.793	26769
817.934	26800
818.075	26929
818.216	26758
818.356	26781
818.497	26636
818.638	26552
818.778	26640
818.919	26598
819.06	26511
819.2	26651
819.341	26823
819.481	26762
819.622	27051
819.762	27169
819.903	27043
820.043	27100
820.184	27009
820.324	26842
820.465	26963
820.605	26937
820.746	26979
820.886	26781
821.026	26982
821.167	26918
821.307	26948
821.447	26864
821.588	26746
821.728	26648
821.868	26511
822.008	26237
822.149	26305
822.289	26244
822.429	25982
822.569	25879
822.709	25970
822.849	25917
822.99	25921
823.13	25791
823.27	25609
823.41	25510
823.55	25491
823.69	25635
823.83	25533
823.97	25563
824.11	25362
824.25	25365
824.389	25460
824.529	25460
824.669	25479
824.809	25563
824.949	25464
825.089	25647
825.228	25476
825.368	25320
825.508	25206
825.648	25365
825.787	25346
825.927	25468
826.067	25308
826.206	25316
826.346	25316
826.485	25293
826.625	25419
826.765	25369
826.904	25365
827.044	25019
827.183	25065
827.323	25095
827.462	25038
827.601	25015
827.741	24848
827.88	25084
828.02	24787
828.159	25057
828.298	24981
828.437	25046
828.577	24897
828.716	25027
828.855	24825
828.994	24635
829.134	24814
829.273	24703
829.412	24681
829.551	24696
829.69	24604
829.829	24566
829.968	24764
830.107	24749
830.246	24738
830.385	24700
830.524	24669
830.663	24536
830.802	24388
830.941	24311
831.08	24323
831.219	24441
831.357	24399
831.496	24616
831.635	24350
831.774	24361
831.913	24140
832.051	24224
832.19	24091
832.329	24117
832.467	23912
832.606	23901
832.744	23935
832.883	23977
833.022	23999
833.16	23935
833.299	24041
833.437	23969
833.576	24015
833.714	24083
833.852	24064
833.991	24064
834.129	24087
834.267	24106
834.406	24045
834.544	23954
834.682	23999
834.821	23969
834.959	24163
835.097	24038
835.235	23992
835.373	24068
835.511	24018
835.65	23824
835.788	23897
835.926	23779
836.064	23661
836.202	23805
836.34	23771
836.478	23866
836.615	23927
836.753	23859
836.891	23958
837.029	23897
837.167	23752
837.305	23786
837.443	23726
837.58	23718
837.718	23786
837.856	23672
837.993	23589
838.131	23718
838.269	23619
838.406	23497
838.544	23539
838.681	23307
838.819	23269
838.956	23296
839.094	23235
839.231	23227
839.369	23277
839.506	23528
839.643	23448
839.781	23220
839.918	23174
840.055	23124
840.193	23105
840.33	23022
840.467	23029
840.604	23147
840.742	23410
840.879	22911
841.016	23022
841.153	22919
841.29	23216
841.427	23067
841.564	23014
841.701	23170
841.838	23018
841.975	22942
842.112	23010
842.249	22793
842.385	22858
842.522	22980
842.659	22915
842.796	22831
842.933	22927
843.069	22847
843.206	22740
843.343	22930
843.479	22740
843.616	22831
843.752	22702
843.889	22702
844.025	22710
844.162	22550
844.298	22672
844.435	22592
844.571	22668
844.708	22713
844.844	22740
844.98	22755
845.117	22641
845.253	22607
845.389	22561
845.525	22535
845.661	22443
845.798	22363
845.934	22287
846.07	22352
846.206	22306
846.342	22394
846.478	22390
846.614	22150
846.75	22017
846.886	22116
847.022	22051
847.158	22082
847.294	22150
847.429	22131
847.565	22025
847.701	22337
847.837	21793
847.972	21739
848.108	21918
848.244	21953
848.379	21728
848.515	21606
848.65	21671
848.786	21576
848.921	21732
849.057	21583
849.192	21610
849.328	21667
849.463	21709
849.598	21572
849.734	21629
849.869	21485
850.004	21511
850.14	21511
850.275	21325
850.41	21321
850.545	21386
850.68	21469
850.815	21466
850.95	21469
851.085	21675
851.22	21641
851.355	21447
851.49	21363
851.625	21355
851.76	21576
851.895	21420
852.03	21344
852.165	21488
852.299	21447
852.434	21500
852.569	21435
852.703	21294
852.838	21466
852.973	21542
853.107	21439
853.242	21447
853.376	21211
853.511	21047
853.645	21176
853.78	21488
853.914	21294
854.048	21203
854.183	21325
854.317	21245
854.451	21466
854.585	21226
854.72	21165
854.854	21241
854.988	21252
855.122	21249
855.256	21226
855.39	21291
855.524	21298
855.658	21408
855.792	21256
855.926	21169
856.06	21287
856.194	21458
856.327	21275
856.461	21150
856.595	21176
856.729	21207
856.862	21340
856.996	21260
857.13	21180
857.263	21344
857.397	21321
857.53	21268
857.664	21306
857.797	21230
857.931	21389
858.064	21287
858.197	21302
858.331	21256
858.464	21230
858.597	21062
858.731	21199
858.864	21188
858.997	21138
859.13	21367
859.263	21351
859.396	21279
859.529	21268
859.662	21272
859.795	21203
859.928	21245
860.061	21359
860.194	21481
860.327	21355
860.46	21355
860.592	21386
860.725	21241
860.858	21378
860.99	21332
861.123	21116
861.256	21222
861.388	21233
861.521	21998
861.653	21036
861.786	21024
861.918	21017
862.05	21112
862.183	21195
862.315	21226
862.447	21291
862.58	21226
862.712	20963
862.844	20849
862.976	21074
863.108	20971
863.24	21329
863.372	20891
863.504	20986
863.636	20952
863.768	20944
863.9	20902
864.032	20887
864.164	20921
864.296	20971
864.428	21146
864.559	20960
864.691	21017
864.823	20967
864.954	21005
865.086	20910
865.217	20929
865.349	20807
865.48	20842
865.612	20762
865.743	20937
865.875	20872
866.006	20849
866.137	20944
866.269	20769
866.4	20792
866.531	20731
866.662	20765
866.793	20754
866.924	20826
867.055	20891
867.186	20834
867.317	20845
867.448	20655
867.579	20758
867.71	20705
867.841	20640
867.972	20754
868.103	20819
868.233	20849
868.364	20746
868.495	20819
868.625	21032
868.756	21070
868.886	20929
869.017	20982
869.147	21138
869.278	21230
869.408	21039
869.539	21024
869.669	21055
869.799	21085
869.929	21180
870.06	21192
870.19	21192
870.32	21336
870.45	21325
870.58	21412
870.71	21428
870.84	21515
870.97	21336
871.1	21431
871.23	21629
871.36	21663
871.489	21622
871.619	21667
871.749	21728
871.879	21625
872.008	21603
872.138	21618
872.267	21561
872.397	21679
872.526	21363
872.656	21511
872.785	21435
872.915	21682
873.044	21549
873.173	21648
873.303	21705
873.432	21671
873.561	21694
873.69	21618
873.819	21530
873.948	21686
874.077	21625
874.206	21572
874.335	21694
874.464	21842
874.593	21785
874.722	21797
874.851	21812
874.979	21880
875.108	21930
875.237	21781
875.365	21762
875.494	21793
875.623	21956
875.751	21797
875.88	21880
876.008	21983
876.136	22093
876.265	22325
876.393	22455
876.521	22306
876.65	22329
876.778	22325
876.906	22154
877.034	22204
877.162	22295
877.29	22173
877.418	22185
877.546	22200
877.674	22101
877.802	22234
877.93	22116
878.058	22211
878.185	22097
878.313	22063
878.441	22139
878.568	22032
878.696	22215
878.824	22322
878.951	22363
879.079	22322
879.206	22542
879.333	22253
879.461	22223
879.588	22325
879.715	22421
879.842	22577
879.97	22299
880.097	21953
880.224	22055
880.351	22139
880.478	22055
880.605	21987
880.732	22086
880.859	22226
880.986	21998
881.112	22025
881.239	21915
881.366	21762
881.493	21755
881.619	21660
881.746	21709
881.872	21622
881.999	21682
882.125	21572
882.252	21644
882.378	21523
882.505	21724
882.631	21431
882.757	21268
882.883	21435
883.01	21313
883.136	21291
883.262	21214
883.388	21131
883.514	21332
883.64	21252
883.766	21317
883.892	21074
884.018	21062
884.143	21336
884.269	21340
884.395	21047
884.52	20941
884.646	20944
884.772	20918
884.897	20948
885.023	20910
885.148	21070
885.274	21085
885.399	21146
885.524	20914
885.65	21043
885.775	20963
885.9	20948
886.025	21020
886.15	21028
886.275	20899
886.4	20754
886.525	20834
886.65	20994
886.775	20937
886.9	20975
887.025	21252
887.149	20796
887.274	20781
887.399	20739
887.523	20648
887.648	20552
887.773	20579
887.897	20868
888.021	20731
888.146	20644
888.27	20804
888.395	20842
888.519	20720
888.643	20758
888.767	20750
888.891	20754
889.015	20590
889.139	20587
889.263	20511
889.387	20686
889.511	20724
889.635	20644
889.759	20575
889.883	20602
890.006	20549
890.13	20564
890.254	20503
890.377	20465
890.501	20309
890.624	20225
890.748	20324
890.871	20278
890.995	20062
891.118	19970
891.241	20115
891.364	20062
891.488	20221
891.611	20111
891.734	20073
891.857	20130
891.98	20031
892.103	20115
892.226	20191
892.349	20016
892.471	19944
892.594	20016
892.717	20107
892.839	19978
892.962	19989
893.085	20020
893.207	20054
893.33	19879
893.452	19932
893.575	20024
893.697	19928
893.819	20054
893.941	20092
894.064	20161
894.186	19936
894.308	19928
894.43	20054
894.552	20100
894.674	20084
894.796	19928
894.918	19940
895.04	19940
895.161	20039
895.283	20054
895.405	19928
895.526	19963
895.648	19932
895.769	20035
895.891	19909
896.012	20031
896.134	20001
896.255	19963
896.376	20039
896.498	20027
896.619	20043
896.74	19989
896.861	20130
896.982	20278
897.103	20602
897.224	20271
897.345	20153
897.466	20016
897.587	20172
897.708	20309
897.828	20320
897.949	20138
898.07	19997
898.19	20100
898.311	20278
898.431	20100
898.552	20187
898.672	20214
898.792	20320
898.913	20244
899.033	20164
899.153	20096
899.273	20111
899.393	19974
899.513	19833
899.633	20024
899.753	19970
899.873	19936
899.993	20054
900.113	19898
900.232	19902
900.352	19841
900.472	19776
900.591	19597
900.711	19818
900.83	19708
900.95	19791
901.069	19860
901.189	19601
901.308	19396
901.427	19384
901.546	19327
901.665	19228
901.784	19324
901.904	19171
902.023	19099
902.141	19019
902.26	18810
902.379	19034
902.498	18829
902.617	18943
902.735	18764
902.854	18745
902.973	18684
903.091	18448
903.21	18471
903.328	18475
903.446	18464
903.565	18292
903.683	18315
903.801	18262
903.919	18304
904.038	18258
904.156	18251
904.274	18136
904.392	18064
904.51	18019
904.627	18087
904.745	18049
904.863	18148
904.981	17923
905.098	17786
905.216	17756
905.334	17813
905.451	17790
905.569	17714
905.686	17863
905.803	17802
905.921	17535
906.038	17676
906.155	17516
906.272	17471
906.389	17539
906.506	17318
906.623	17159
906.74	17273
906.857	17231
906.974	17288
907.091	17349
907.208	17368
907.324	17421
907.441	17132
907.557	16972
907.674	17014
907.79	17006
907.907	16991
908.023	17018
908.139	17140
908.256	16934
908.372	16824
908.488	16919
908.604	16752
908.72	16774
908.836	16733
908.952	16782
909.068	16782
909.184	16782
909.3	16752
909.415	16793
909.531	16721
909.647	16523
909.762	16432
909.878	16447
909.993	16500
910.108	16341
910.224	16375
910.339	16421
910.454	16337
910.57	16253
910.685	16116
910.8	16413
910.915	16409
911.03	16249
911.145	16074
911.259	15922
911.374	16124
911.489	15937
911.604	15941
911.718	15846
911.833	15819
911.947	15774
912.062	15690
912.176	15838
912.291	15781
912.405	15823
912.519	16021
912.633	15907
912.748	15800
912.862	15751
912.976	15622
913.09	15462
913.204	15549
913.318	15637
913.431	15682
913.545	15728
913.659	15724
913.772	15663
913.886	15473
914	15382
914.113	15488
914.226	15496
914.34	15500
914.453	15378
914.566	15351
914.68	15283
914.793	15336
914.906	15138
915.019	15062
915.132	14956
915.245	15043
915.358	15009
915.47	15055
915.583	15097
915.696	15127
915.809	15135
915.921	15138
916.034	14891
916.146	14925
916.259	14883
916.371	14857
916.483	14921
916.595	14804
916.708	14910
916.82	14845
916.932	14796
917.044	14769
917.156	14773
917.268	14648
917.38	14598
917.491	14712
917.603	14651
917.715	14834
917.826	14716
917.938	14518
918.049	14564
918.161	14617
918.272	14773
918.384	14762
918.495	14629
918.606	14514
918.717	14332
918.828	14530
918.939	14469
919.05	14423
919.161	14389
919.272	14180
919.383	14362
919.494	14415
919.604	14655
919.715	14415
919.826	14412
919.936	14351
920.047	14461
920.157	14298
920.267	14473
920.378	14457
920.488	14351
920.598	14507
920.708	14781
920.818	14549
920.928	14438
921.038	14686
921.148	14568
921.258	14393
921.368	14278
921.477	14153
921.587	14157
921.697	13974
921.806	14172
921.916	13986
922.025	13830
922.134	13734
922.244	13696
922.353	13814
922.462	13590
922.571	13601
922.68	13464
922.789	13426
922.898	13487
923.007	13350
923.116	13464
923.224	13411
923.333	13316
923.442	13320
923.55	13278
923.659	13236
923.767	13316
923.876	13225
923.984	13266
924.092	13206
924.201	13285
924.309	13247
924.417	13168
924.525	13160
924.633	13061
924.741	13864
924.849	12951
924.956	13072
925.064	12829
925.172	12859
925.279	12787
925.387	12798
925.494	12787
925.602	13038
925.709	12894
925.816	12703
925.924	12646
926.031	12943
926.138	12791
926.245	12825
926.352	12696
926.459	12928
926.566	12863
926.673	12692
926.779	12673
926.886	12563
926.993	12452
927.099	12498
927.206	12532
927.312	12334
927.419	12460
927.525	12357
927.631	12490
927.737	12319
927.843	12235
927.95	12129
928.056	12258
928.162	12228
928.267	12319
928.373	12958
928.479	12308
928.585	12041
928.69	12140
928.796	12148
928.901	12178
929.007	11958
929.112	12129
929.218	12064
929.323	12022
929.428	11996
929.533	12087
929.638	11939
929.743	11855
929.848	12011
929.953	11866
930.058	11741
930.163	11680
930.267	11649
930.372	11714
930.477	11581
930.581	11874
930.685	11619
930.79	11570
930.894	11608
930.998	11554
931.103	11676
931.207	11159
931.311	11269
931.415	11151
931.519	10984
931.623	10919
