Data from test_V78500241_2028.txt Node
Date: Fri Mar 25 15:23:58 CST 2022
User: usil
Spectrometer: V785-0024
Trigger mode: 0
Integration Time (sec): 4.000000E-1
Scans to average: 1
Nonlinearity correction enabled: false
Boxcar width: 0
Storing dark spectrum: false
XAxis mode: Wavelengths
Number of Pixels in Spectrum: 1024
>>>>>Begin Spectral Data<<<<<
801.071	27968
801.214	27759
801.356	27713
801.499	27564
801.641	27504
801.783	27492
801.926	27447
802.068	27488
802.211	27348
802.353	27370
802.496	27123
802.638	27093
802.78	27089
802.923	27039
803.065	26986
803.208	26823
803.35	27085
803.492	27218
803.635	27291
803.777	27051
803.919	27199
804.061	27698
804.204	27382
804.346	27131
804.488	27241
804.63	27310
804.773	27131
804.915	27260
805.057	27568
805.199	27340
805.341	27291
805.483	27401
805.626	27329
805.768	27325
805.91	27435
806.052	27454
806.194	27291
806.336	27549
806.478	27427
806.62	27154
806.762	27542
806.904	27698
807.046	27869
807.188	27724
807.33	27876
807.472	27766
807.614	27770
807.756	27911
807.898	27720
808.04	27538
808.182	27583
808.324	27667
808.465	27587
808.607	27930
808.749	28029
808.891	28090
809.033	28162
809.174	28128
809.316	28021
809.458	27998
809.6	28063
809.741	28120
809.883	28306
810.025	28337
810.166	28363
810.308	28466
810.45	28253
810.591	28280
810.733	28116
810.875	28048
811.016	27865
811.158	27926
811.299	28013
811.441	28284
811.582	28143
811.724	28090
811.865	28040
812.007	27968
812.148	28074
812.29	28055
812.431	28234
812.573	28409
812.714	28443
812.855	28512
812.997	28725
813.138	28797
813.279	28702
813.421	28523
813.562	28443
813.703	28440
813.845	28169
813.986	28055
814.127	27941
814.268	27739
814.41	27717
814.551	27667
814.692	27827
814.833	27728
814.974	27682
815.115	27755
815.256	27618
815.397	27618
815.539	27576
815.68	27412
815.821	27504
815.962	27496
816.103	27561
816.244	27500
816.385	27389
816.526	27222
816.666	27138
816.807	26990
816.948	27131
817.089	27112
817.23	27066
817.371	27001
817.512	26975
817.653	27066
817.793	27028
817.934	26876
818.075	26887
818.216	27024
818.356	26918
818.497	26880
818.638	26693
818.778	26670
818.919	26796
819.06	26845
819.2	26990
819.341	26990
819.481	26849
819.622	27272
819.762	27279
819.903	27154
820.043	27283
820.184	26975
820.324	27085
820.465	27070
820.605	27157
820.746	27058
820.886	26982
821.026	27024
821.167	26956
821.307	27127
821.447	26998
821.588	26937
821.728	26777
821.868	26556
822.008	26362
822.149	26442
822.289	26556
822.429	26164
822.569	26126
822.709	26202
822.849	26016
822.99	26145
823.13	25966
823.27	25936
823.41	25879
823.55	25704
823.69	25830
823.83	25887
823.97	25723
824.11	25491
824.25	25632
824.389	25826
824.529	25712
824.669	25472
824.809	25757
824.949	25670
825.089	25681
825.228	25540
825.368	25506
825.508	25434
825.648	25441
825.787	25502
825.927	25533
826.067	25487
826.206	25426
826.346	25499
826.485	25495
826.625	25567
826.765	25643
826.904	25468
827.044	25282
827.183	25327
827.323	25244
827.462	25240
827.601	25308
827.741	25080
827.88	25179
828.02	25023
828.159	25179
828.298	25213
828.437	25282
828.577	25133
828.716	25190
828.855	25122
828.994	24951
829.134	24833
829.273	24935
829.412	24825
829.551	24741
829.69	24966
829.829	24909
829.968	25015
830.107	24973
830.246	25023
830.385	24935
830.524	24886
830.663	24810
830.802	24642
830.941	24536
831.08	24479
831.219	24582
831.357	24593
831.496	24848
831.635	24532
831.774	24456
831.913	24361
832.051	24437
832.19	24251
832.329	24277
832.467	24262
832.606	24144
832.744	24079
832.883	24125
833.022	24213
833.16	24220
833.299	24197
833.437	24209
833.576	24266
833.714	24262
833.852	24251
833.991	24190
834.129	24338
834.267	24254
834.406	24273
834.544	24258
834.682	24205
834.821	24300
834.959	24505
835.097	24174
835.235	24258
835.373	24133
835.511	24220
835.65	24087
835.788	24034
835.926	23984
836.064	23920
836.202	23939
836.34	24045
836.478	24095
836.615	24076
836.753	24220
836.891	24068
837.029	24057
837.167	24144
837.305	23901
837.443	24015
837.58	23939
837.718	23813
837.856	24018
837.993	23908
838.131	23843
838.269	23798
838.406	23809
838.544	23775
838.681	23501
838.819	23486
838.956	23436
839.094	23318
839.231	23471
839.369	23573
839.506	23828
839.643	23691
839.781	23417
839.918	23307
840.055	23471
840.193	23372
840.33	23254
840.467	23410
840.604	23406
840.742	23547
840.879	23143
841.016	23147
841.153	23189
841.29	23459
841.427	23265
841.564	23258
841.701	23273
841.838	23261
841.975	23181
842.112	23250
842.249	23124
842.385	23025
842.522	23189
842.659	23128
842.796	23048
842.933	22991
843.069	23044
843.206	23010
843.343	23094
843.479	23155
843.616	23033
843.752	22877
843.889	22805
844.025	23064
844.162	22835
844.298	22930
844.435	22721
844.571	22717
844.708	22744
844.844	23044
844.98	22980
845.117	22968
845.253	22744
845.389	22755
845.525	22725
845.661	22748
845.798	22516
845.934	22611
846.07	22459
846.206	22607
846.342	22713
846.478	22554
846.614	22344
846.75	22204
846.886	22360
847.022	22440
847.158	22238
847.294	22265
847.429	22390
847.565	22192
847.701	22512
847.837	22063
847.972	22124
848.108	22067
848.244	21991
848.379	21975
848.515	21888
848.65	21922
848.786	21934
848.921	21876
849.057	22059
849.192	21930
849.328	21869
849.463	21926
849.598	21759
849.734	21694
849.869	21766
850.004	21587
850.14	21831
850.275	21679
850.41	21545
850.545	21606
850.68	21629
850.815	21705
850.95	21709
851.085	21747
851.22	21743
851.355	21759
851.49	21671
851.625	21759
851.76	21713
851.895	21614
852.03	21595
852.165	21682
852.299	21667
852.434	21671
852.569	21637
852.703	21671
852.838	21599
852.973	21667
853.107	21663
853.242	21641
853.376	21561
853.511	21431
853.645	21511
853.78	21633
853.914	21599
854.048	21401
854.183	21481
854.317	21504
854.451	21549
854.585	21428
854.72	21481
854.854	21519
854.988	21454
855.122	21416
855.256	21428
855.39	21458
855.524	21523
855.658	21580
855.792	21557
855.926	21481
856.06	21523
856.194	21401
856.327	21439
856.461	21348
856.595	21481
856.729	21397
856.862	21622
856.996	21507
857.13	21496
857.263	21378
857.397	21603
857.53	21336
857.664	21523
857.797	21485
857.931	21485
858.064	21408
858.197	21542
858.331	21340
858.464	21367
858.597	21336
858.731	21329
858.864	21344
858.997	21553
859.13	21435
859.263	21500
859.396	21481
859.529	21481
859.662	21416
859.795	21424
859.928	21477
860.061	21488
860.194	21568
860.327	21618
860.46	21492
860.592	21538
860.725	21603
860.858	21629
860.99	21523
861.123	21435
861.256	21435
861.388	21500
861.521	22139
861.653	21340
861.786	21207
861.918	21272
862.05	21454
862.183	21462
862.315	21519
862.447	21420
862.58	21378
862.712	21192
862.844	21058
862.976	21226
863.108	21321
863.24	21629
863.372	21058
863.504	21161
863.636	21074
863.768	21165
863.9	21154
864.032	21009
864.164	21135
864.296	21138
864.428	21291
864.559	21207
864.691	21211
864.823	21184
864.954	21062
865.086	21150
865.217	20990
865.349	21005
865.48	21127
865.612	21009
865.743	21260
865.875	21070
866.006	21047
866.137	21058
866.269	21077
866.4	20971
866.531	20914
866.662	21013
866.793	21093
866.924	20971
867.055	20971
867.186	20986
867.317	20929
867.448	20891
867.579	20994
867.71	21009
867.841	20823
867.972	20880
868.103	21047
868.233	21043
868.364	20986
868.495	21081
868.625	21256
868.756	21302
868.886	21275
869.017	21249
869.147	21355
869.278	21374
869.408	21287
869.539	21355
869.669	21416
869.799	21344
869.929	21359
870.06	21310
870.19	21530
870.32	21656
870.45	21553
870.58	21561
870.71	21641
870.84	21819
870.97	21648
871.1	21595
871.23	21728
871.36	21876
871.489	21622
871.619	21633
871.749	21895
871.879	21728
872.008	22002
872.138	21903
872.267	21709
872.397	21778
872.526	21637
872.656	21713
872.785	21641
872.915	21941
873.044	21903
873.173	21835
873.303	21812
873.432	21869
873.561	21816
873.69	21789
873.819	21876
873.948	21956
874.077	21751
874.206	21816
874.335	21804
874.464	21857
874.593	22101
874.722	21941
874.851	22147
874.979	21972
875.108	22067
875.237	22002
875.365	22006
875.494	21949
875.623	22131
875.751	22112
875.88	22128
876.008	22246
876.136	22325
876.265	22554
876.393	22489
876.521	22500
876.65	22443
876.778	22523
876.906	22405
877.034	22470
877.162	22344
877.29	22398
877.418	22405
877.546	22413
877.674	22413
877.802	22470
877.93	22421
878.058	22402
878.185	22272
878.313	22402
878.441	22314
878.568	22356
878.696	22348
878.824	22371
878.951	22550
879.079	22626
879.206	22748
879.333	22607
879.461	22516
879.588	22607
879.715	22694
879.842	22744
879.97	22466
880.097	22200
880.224	22287
880.351	22348
880.478	22230
880.605	22246
880.732	22322
880.859	22440
880.986	22322
881.112	22207
881.239	22090
881.366	21937
881.493	21903
881.619	21808
881.746	21922
881.872	21831
881.999	21736
882.125	21675
882.252	21869
882.378	21804
882.505	21812
882.631	21614
882.757	21523
882.883	21526
883.01	21690
883.136	21542
883.262	21439
883.388	21332
883.514	21473
883.64	21507
883.766	21401
883.892	21226
884.018	21226
884.143	21523
884.269	21530
884.395	21294
884.52	21070
884.646	21070
884.772	21104
884.897	21039
885.023	21020
885.148	21264
885.274	21211
885.399	21245
885.524	21020
885.65	21146
885.775	21199
885.9	21199
886.025	21241
886.15	21268
886.275	21119
886.4	21005
886.525	21123
886.65	21096
886.775	21001
886.9	21146
887.025	21412
887.149	21062
887.274	20864
887.399	20914
887.523	20788
887.648	20895
887.773	20864
887.897	21116
888.021	20971
888.146	20933
888.27	20975
888.395	21055
888.519	20883
888.643	20975
888.767	20937
888.891	20788
889.015	20693
889.139	20724
889.263	20834
889.387	20899
889.511	20902
889.635	20944
889.759	20667
889.883	20594
890.006	20826
890.13	20834
890.254	20617
890.377	20651
890.501	20484
890.624	20480
890.748	20488
890.871	20343
890.995	20252
891.118	20400
891.241	20328
891.364	20256
891.488	20275
891.611	20339
891.734	20336
891.857	20355
891.98	20233
892.103	20343
892.226	20259
892.349	20298
892.471	20126
892.594	20191
892.717	20199
892.839	20183
892.962	20153
893.085	20248
893.207	20267
893.33	20115
893.452	20092
893.575	20210
893.697	20218
893.819	20248
893.941	20351
894.064	20267
894.186	20126
894.308	20062
894.43	20240
894.552	20221
894.674	20218
894.796	20100
894.918	20225
895.04	20248
895.161	20309
895.283	20267
895.405	20126
895.526	20290
895.648	20111
895.769	20199
895.891	20157
896.012	20210
896.134	20237
896.255	20187
896.376	20161
896.498	20065
896.619	20145
896.74	20336
896.861	20244
896.982	20492
897.103	20579
897.224	20522
897.345	20446
897.466	20271
897.587	20457
897.708	20427
897.828	20473
897.949	20343
898.07	20336
898.19	20233
898.311	20415
898.431	20381
898.552	20396
898.672	20381
898.792	20469
898.913	20427
899.033	20176
899.153	20233
899.273	20069
899.393	20115
899.513	20142
899.633	20145
899.753	20202
899.873	20100
899.993	20199
900.113	20138
900.232	20145
900.352	20027
900.472	19898
900.591	19894
900.711	19993
900.83	19875
900.95	20130
901.069	19989
901.189	19860
901.308	19639
901.427	19449
901.546	19445
901.665	19483
901.784	19426
901.904	19316
902.023	19282
902.141	19160
902.26	19118
902.379	19023
902.498	19015
902.617	18970
902.735	19012
902.854	19042
902.973	18977
903.091	18730
903.21	18726
903.328	18688
903.446	18631
903.565	18460
903.683	18589
903.801	18429
903.919	18464
904.038	18361
904.156	18273
904.274	18270
904.392	18228
904.51	18205
904.627	18350
904.745	18308
904.863	18292
904.981	18152
905.098	17889
905.216	18015
905.334	17999
905.451	17923
905.569	17866
905.686	17920
905.803	17912
905.921	17684
906.038	17771
906.155	17756
906.272	17551
906.389	17630
906.506	17566
906.623	17395
906.74	17421
906.857	17391
906.974	17395
907.091	17482
907.208	17520
907.324	17414
907.441	17376
907.557	17223
907.674	17178
907.79	17018
907.907	17083
908.023	17239
908.139	17098
908.256	17060
908.372	17045
908.488	16980
908.604	16869
908.72	16946
908.836	16877
908.952	16858
909.068	16957
909.184	17014
909.3	16858
909.415	16942
909.531	16862
909.647	16634
909.762	16637
909.878	16516
909.993	16588
910.108	16584
910.224	16512
910.339	16603
910.454	16485
910.57	16413
910.685	16390
910.8	16622
910.915	16615
911.03	16325
911.145	16211
911.259	16204
911.374	16234
911.489	16147
911.604	16090
911.718	15884
911.833	15991
911.947	15835
912.062	15751
912.176	15812
912.291	15915
912.405	15945
912.519	16158
912.633	16071
912.748	16036
912.862	15876
912.976	15736
913.09	15625
913.204	15766
913.318	15701
913.431	15835
913.545	15808
913.659	15842
913.772	15781
913.886	15530
914	15580
914.113	15606
914.226	15523
914.34	15648
914.453	15477
914.566	15603
914.68	15428
914.793	15424
914.906	15233
915.019	15108
915.132	15020
915.245	15161
915.358	15214
915.47	15135
915.583	15184
915.696	15112
915.809	15329
915.921	15237
916.034	15032
916.146	15017
916.259	15074
916.371	15146
916.483	15180
916.595	15039
916.708	14998
916.82	14998
916.932	14941
917.044	14956
917.156	14880
917.268	14765
917.38	14857
917.491	14807
917.603	14819
917.715	14876
917.826	14823
917.938	14796
918.049	14571
918.161	14838
918.272	14777
918.384	14891
918.495	14701
918.606	14629
918.717	14473
918.828	14587
918.939	14549
919.05	14461
919.161	14602
919.272	14377
919.383	14526
919.494	14571
919.604	14781
919.715	14495
919.826	14492
919.936	14560
920.047	14518
920.157	14514
920.267	14640
920.378	14507
920.488	14442
920.598	14667
920.708	14826
920.818	14724
920.928	14701
921.038	14823
921.148	14743
921.258	14480
921.368	14408
921.477	14294
921.587	14294
921.697	14149
921.806	14263
921.916	14180
922.025	13902
922.134	13864
922.244	13849
922.353	14020
922.462	13696
922.571	13738
922.68	13552
922.789	13434
922.898	13651
923.007	13525
923.116	13544
923.224	13605
923.333	13457
923.442	13422
923.55	13365
923.659	13388
923.767	13422
923.876	13339
923.984	13335
924.092	13160
924.201	13422
924.309	13285
924.417	13316
924.525	13190
924.633	13217
924.741	14008
924.849	12958
924.956	13202
925.064	12993
925.172	12985
925.279	13038
925.387	12935
925.494	12985
925.602	13069
925.709	12996
925.816	12939
925.924	12966
926.031	12924
926.138	12878
926.245	12909
926.352	12867
926.459	12985
926.566	12954
926.673	12829
926.779	12665
926.886	12673
926.993	12582
927.099	12517
927.206	12433
927.312	12506
927.419	12597
927.525	12612
927.631	12532
927.737	12418
927.843	12486
927.95	12270
928.056	12376
928.162	12422
928.267	12376
928.373	13004
928.479	12388
928.585	12190
928.69	12365
928.796	12338
928.901	12228
929.007	12091
929.112	12270
929.218	12114
929.323	12129
929.428	12136
929.533	12216
929.638	11996
929.743	12041
929.848	12076
929.953	11988
930.058	11980
930.163	11767
930.267	11821
930.372	11901
930.477	11688
930.581	11935
930.685	11729
930.79	11615
930.894	11707
930.998	11661
931.103	11764
931.207	11391
931.311	11288
931.415	11288
931.519	11113
931.623	11083
