Data from test_V78500241_3214.txt Node
Date: Fri Mar 25 15:32:14 CST 2022
User: usil
Spectrometer: V785-0024
Trigger mode: 0
Integration Time (sec): 4.000000E-1
Scans to average: 1
Nonlinearity correction enabled: false
Boxcar width: 0
Storing dark spectrum: false
XAxis mode: Wavelengths
Number of Pixels in Spectrum: 1024
>>>>>Begin Spectral Data<<<<<
801.071	26982
801.214	27176
801.356	26940
801.499	26769
801.641	26651
801.783	26609
801.926	26636
802.068	26636
802.211	26625
802.353	26442
802.496	26183
802.638	26305
802.78	26164
802.923	26305
803.065	26103
803.208	26206
803.35	26355
803.492	26385
803.635	26473
803.777	26259
803.919	26324
804.061	26758
804.204	26587
804.346	26396
804.488	26332
804.63	26320
804.773	26336
804.915	26541
805.057	26518
805.199	26301
805.341	26537
805.483	26568
805.626	26552
805.768	26453
805.91	26575
806.052	26522
806.194	26366
806.336	26644
806.478	26484
806.62	26431
806.762	26655
806.904	26735
807.046	27081
807.188	26929
807.33	26921
807.472	26971
807.614	26861
807.756	26929
807.898	26781
808.04	26670
808.182	26689
808.324	26800
808.465	26811
808.607	26876
808.749	27055
808.891	27237
809.033	27283
809.174	27127
809.316	27108
809.458	27066
809.6	27024
809.741	27195
809.883	27230
810.025	27351
810.166	27389
810.308	27443
810.45	27268
810.591	27272
810.733	27237
810.875	27135
811.016	27013
811.158	27028
811.299	27249
811.441	27230
811.582	27283
811.724	27127
811.865	27020
812.007	27036
812.148	26952
812.29	27154
812.431	27214
812.573	27287
812.714	27557
812.855	27405
812.997	27720
813.138	27774
813.279	27652
813.421	27671
813.562	27515
813.703	27435
813.845	27195
813.986	27032
814.127	26758
814.268	26815
814.41	26895
814.551	26727
814.692	26796
814.833	26743
814.974	26785
815.115	26800
815.256	26453
815.397	26659
815.539	26659
815.68	26564
815.821	26434
815.962	26571
816.103	26377
816.244	26374
816.385	26374
816.526	26237
816.666	26058
816.807	25951
816.948	25982
817.089	26119
817.23	26107
817.371	26050
817.512	26016
817.653	25879
817.793	25936
817.934	25963
818.075	25997
818.216	26100
818.356	25951
818.497	25856
818.638	25769
818.778	25639
818.919	25643
819.06	25814
819.2	25947
819.341	26035
819.481	26107
819.622	26134
819.762	26214
819.903	26248
820.043	26275
820.184	26031
820.324	25947
820.465	26191
820.605	26073
820.746	26157
820.886	25936
821.026	25963
821.167	26096
821.307	26138
821.447	26050
821.588	25936
821.728	25761
821.868	25571
822.008	25586
822.149	25499
822.289	25483
822.429	25358
822.569	25118
822.709	25190
822.849	24996
822.99	25019
823.13	24947
823.27	24901
823.41	24905
823.55	24570
823.69	24703
823.83	24783
823.97	24734
824.11	24540
824.25	24597
824.389	24642
824.529	24692
824.669	24513
824.809	24601
824.949	24745
825.089	24627
825.228	24639
825.368	24410
825.508	24441
825.648	24441
825.787	24509
825.927	24505
826.067	24437
826.206	24479
826.346	24467
826.485	24460
826.625	24467
826.765	24555
826.904	24471
827.044	24296
827.183	24201
827.323	24136
827.462	24270
827.601	24190
827.741	24152
827.88	24239
828.02	24011
828.159	24296
828.298	24136
828.437	24285
828.577	24091
828.716	24266
828.855	24076
828.994	23840
829.134	23870
829.273	23885
829.412	23923
829.551	23954
829.69	23771
829.829	23939
829.968	23897
830.107	23950
830.246	23977
830.385	23889
830.524	23847
830.663	23840
830.802	23718
830.941	23562
831.08	23627
831.219	23539
831.357	23570
831.496	23619
831.635	23395
831.774	23337
831.913	23349
832.051	23277
832.19	23273
832.329	23322
832.467	23261
832.606	23132
832.744	23178
832.883	23220
833.022	23220
833.16	23109
833.299	23216
833.437	23242
833.576	23288
833.714	23284
833.852	23288
833.991	23334
834.129	23356
834.267	23326
834.406	23360
834.544	23280
834.682	23322
834.821	23254
834.959	23490
835.097	23246
835.235	23265
835.373	23280
835.511	23242
835.65	23151
835.788	23193
835.926	22923
836.064	22987
836.202	22934
836.34	23132
836.478	23178
836.615	23048
836.753	23079
836.891	23250
837.029	23170
837.167	23056
837.305	23014
837.443	22923
837.58	22999
837.718	22927
837.856	22991
837.993	22968
838.131	22976
838.269	22850
838.406	22767
838.544	22831
838.681	22637
838.819	22656
838.956	22497
839.094	22508
839.231	22603
839.369	22641
839.506	22774
839.643	22622
839.781	22352
839.918	22318
840.055	22508
840.193	22489
840.33	22314
840.467	22322
840.604	22500
840.742	22805
840.879	22230
841.016	22363
841.153	22196
841.29	22356
841.427	22287
841.564	22409
841.701	22299
841.838	22329
841.975	22246
842.112	22440
842.249	22234
842.385	22230
842.522	22371
842.659	22325
842.796	22109
842.933	22204
843.069	22139
843.206	22154
843.343	22086
843.479	22192
843.616	22147
843.752	21888
843.889	21991
844.025	22059
844.162	21892
844.298	22013
844.435	21930
844.571	21918
844.708	21895
844.844	22223
844.98	22059
845.117	22029
845.253	21888
845.389	21770
845.525	21705
845.661	21854
845.798	21553
845.934	21808
846.07	21728
846.206	21599
846.342	21679
846.478	21679
846.614	21450
846.75	21420
846.886	21431
847.022	21439
847.158	21401
847.294	21348
847.429	21447
847.565	21488
847.701	21698
847.837	21104
847.972	21150
848.108	21188
848.244	21252
848.379	20918
848.515	20975
848.65	20918
848.786	20899
848.921	20937
849.057	21169
849.192	21062
849.328	21096
849.463	20986
849.598	20914
849.734	20857
849.869	20925
850.004	20823
850.14	20876
850.275	20765
850.41	20708
850.545	20552
850.68	20777
850.815	20788
850.95	20746
851.085	21013
851.22	20773
851.355	20773
851.49	20762
851.625	20693
851.76	20750
851.895	20686
852.03	20667
852.165	20788
852.299	20921
852.434	20765
852.569	20735
852.703	20689
852.838	20781
852.973	20857
853.107	20876
853.242	20743
853.376	20511
853.511	20511
853.645	20663
853.78	20720
853.914	20507
854.048	20488
854.183	20446
854.317	20530
854.451	20746
854.585	20613
854.72	20522
854.854	20648
854.988	20537
855.122	20667
855.256	20461
855.39	20541
855.524	20724
855.658	20636
855.792	20571
855.926	20636
856.06	20583
856.194	20762
856.327	20613
856.461	20530
856.595	20488
856.729	20434
856.862	20674
856.996	20492
857.13	20609
857.263	20689
857.397	20705
857.53	20518
857.664	20480
857.797	20613
857.931	20678
858.064	20625
858.197	20632
858.331	20663
858.464	20552
858.597	20336
858.731	20514
858.864	20415
858.997	20450
859.13	20568
859.263	20568
859.396	20663
859.529	20457
859.662	20499
859.795	20537
859.928	20670
860.061	20750
860.194	20739
860.327	20705
860.46	20575
860.592	20697
860.725	20689
860.858	20758
860.99	20587
861.123	20469
861.256	20503
861.388	20724
861.521	21108
861.653	20412
861.786	20290
861.918	20484
862.05	20408
862.183	20514
862.315	20476
862.447	20526
862.58	20457
862.712	20256
862.844	20221
862.976	20408
863.108	20355
863.24	20720
863.372	20347
863.504	20218
863.636	20271
863.768	20233
863.9	20248
864.032	20290
864.164	20164
864.296	20339
864.428	20370
864.559	20290
864.691	20355
864.823	20446
864.954	20252
865.086	20393
865.217	20229
865.349	20016
865.48	20263
865.612	20054
865.743	20328
865.875	20183
866.006	20195
866.137	20214
866.269	20142
866.4	20214
866.531	20073
866.662	20043
866.793	20164
866.924	20161
867.055	20115
867.186	20206
867.317	20157
867.448	20111
867.579	20088
867.71	20092
867.841	20008
867.972	20199
868.103	20024
868.233	20134
868.364	20145
868.495	20347
868.625	20400
868.756	20526
868.886	20252
869.017	20374
869.147	20317
869.278	20484
869.408	20370
869.539	20343
869.669	20370
869.799	20522
869.929	20469
870.06	20457
870.19	20792
870.32	20545
870.45	20655
870.58	20708
870.71	20853
870.84	20815
870.97	20712
871.1	20708
871.23	20933
871.36	21058
871.489	20845
871.619	20941
871.749	21005
871.879	20906
872.008	21051
872.138	20971
872.267	21066
872.397	20929
872.526	20750
872.656	20823
872.785	20781
872.915	21032
873.044	21066
873.173	20982
873.303	21081
873.432	20971
873.561	21051
873.69	21020
873.819	21047
873.948	21135
874.077	21013
874.206	20895
874.335	21047
874.464	21081
874.593	21218
874.722	21275
874.851	21195
874.979	21336
875.108	21321
875.237	21157
875.365	21180
875.494	21180
875.623	21294
875.751	21051
875.88	21336
876.008	21367
876.136	21389
876.265	21660
876.393	21713
876.521	21705
876.65	21686
876.778	21644
876.906	21561
877.034	21614
877.162	21561
877.29	21583
877.418	21606
877.546	21511
877.674	21648
877.802	21504
877.93	21625
878.058	21564
878.185	21504
878.313	21420
878.441	21591
878.568	21485
878.696	21481
878.824	21667
878.951	21545
879.079	21751
879.206	21865
879.333	21717
879.461	21580
879.588	21720
879.715	21667
879.842	21922
879.97	21656
880.097	21454
880.224	21416
880.351	21587
880.478	21428
880.605	21408
880.732	21359
880.859	21671
880.986	21294
881.112	21469
881.239	21211
881.366	21237
881.493	21089
881.619	20979
881.746	21028
881.872	20971
881.999	20952
882.125	20895
882.252	20971
882.378	20986
882.505	21157
882.631	20956
882.757	20686
882.883	20678
883.01	20811
883.136	20564
883.262	20613
883.388	20632
883.514	20762
883.64	20735
883.766	20583
883.892	20393
884.018	20530
884.143	20640
884.269	20853
884.395	20377
884.52	20366
884.646	20404
884.772	20275
884.897	20301
885.023	20271
885.148	20499
885.274	20552
885.399	20492
885.524	20393
885.65	20290
885.775	20404
885.9	20290
886.025	20499
886.15	20412
886.275	20263
886.4	20298
886.525	20374
886.65	20317
886.775	20248
886.9	20503
887.025	20507
887.149	20317
887.274	20084
887.399	20024
887.523	20138
887.648	20050
887.773	20043
887.897	20286
888.021	20088
888.146	19997
888.27	20229
888.395	20282
888.519	20225
888.643	20187
888.767	20191
888.891	20092
889.015	19932
889.139	19928
889.263	19925
889.387	20050
889.511	20195
889.635	20111
889.759	19818
889.883	19875
890.006	19830
890.13	20001
890.254	20001
890.377	19811
890.501	19662
890.624	19734
890.748	19772
890.871	19689
890.995	19567
891.118	19506
891.241	19594
891.364	19514
891.488	19616
891.611	19616
891.734	19559
891.857	19537
891.98	19468
892.103	19537
892.226	19529
892.349	19400
892.471	19365
892.594	19449
892.717	19419
892.839	19365
892.962	19445
893.085	19487
893.207	19468
893.33	19324
893.452	19343
893.575	19594
893.697	19339
893.819	19533
893.941	19742
894.064	19624
894.186	19388
894.308	19346
894.43	19544
894.552	19567
894.674	19480
894.796	19445
894.918	19449
895.04	19453
895.161	19571
895.283	19537
895.405	19419
895.526	19358
895.648	19460
895.769	19548
895.891	19491
896.012	19499
896.134	19438
896.255	19430
896.376	19449
896.498	19362
896.619	19495
896.74	19502
896.861	19510
896.982	19723
897.103	19963
897.224	19757
897.345	19677
897.466	19529
897.587	19586
897.708	19734
897.828	19788
897.949	19632
898.07	19480
898.19	19548
898.311	19788
898.431	19571
898.552	19708
898.672	19776
898.792	19795
898.913	19784
899.033	19586
899.153	19480
899.273	19396
899.393	19388
899.513	19567
899.633	19457
899.753	19441
899.873	19308
899.993	19502
900.113	19377
900.232	19346
900.352	19392
900.472	19270
900.591	19221
900.711	19202
900.83	19183
900.95	19339
901.069	19362
901.189	19171
901.308	18886
901.427	18760
901.546	18802
901.665	18859
901.784	18779
901.904	18707
902.023	18684
902.141	18418
902.26	18361
902.379	18369
902.498	18407
902.617	18277
902.735	18418
902.854	18194
902.973	18281
903.091	18041
903.21	18079
903.328	18114
903.446	17984
903.565	17767
903.683	17783
903.801	17783
903.919	17737
904.038	17657
904.156	17630
904.274	17630
904.392	17577
904.51	17570
904.627	17604
904.745	17657
904.863	17581
904.981	17436
905.098	17307
905.216	17250
905.334	17356
905.451	17326
905.569	17277
905.686	17379
905.803	17277
905.921	17094
906.038	17197
906.155	17033
906.272	16923
906.389	17052
906.506	16847
906.623	16812
906.74	16850
906.857	16683
906.974	16679
907.091	16866
907.208	16911
907.324	16896
907.441	16774
907.557	16523
907.674	16573
907.79	16489
907.907	16500
908.023	16615
908.139	16535
908.256	16489
908.372	16375
908.488	16440
908.604	16314
908.72	16143
908.836	16314
908.952	16303
909.068	16268
909.184	16398
909.3	16226
909.415	16284
909.531	16246
909.647	15949
909.762	15979
909.878	16112
909.993	15972
910.108	15937
910.224	15956
910.339	16017
910.454	15850
910.57	15854
910.685	15717
910.8	15983
910.915	15949
911.03	15838
911.145	15584
911.259	15614
911.374	15591
911.489	15572
911.604	15496
911.718	15344
911.833	15321
911.947	15302
912.062	15112
912.176	15458
912.291	15264
912.405	15291
912.519	15477
912.633	15542
912.748	15317
912.862	15291
912.976	15089
913.09	14963
913.204	15108
913.318	15138
913.431	15138
913.545	15294
913.659	15218
913.772	15089
913.886	14914
914	14979
914.113	15112
914.226	15074
914.34	15039
914.453	14906
914.566	14986
914.68	14853
914.793	14834
914.906	14701
915.019	14587
915.132	14507
915.245	14492
915.358	14594
915.47	14541
915.583	14590
915.696	14594
915.809	14670
915.921	14724
916.034	14602
916.146	14469
916.259	14522
916.371	14602
916.483	14492
916.595	14408
916.708	14499
916.82	14427
916.932	14301
917.044	14271
917.156	14336
917.268	14309
917.38	14332
917.491	14248
917.603	14183
917.715	14332
917.826	14366
917.938	14187
918.049	14107
918.161	14210
918.272	14301
918.384	14381
918.495	14168
918.606	14103
918.717	14039
918.828	14035
918.939	14039
919.05	13925
919.161	14035
919.272	13784
919.383	13951
919.494	14084
919.604	14237
919.715	14130
919.826	13967
919.936	13963
920.047	14077
920.157	14001
920.267	14263
920.378	13940
920.488	13974
920.598	14138
920.708	14347
920.818	14176
920.928	14206
921.038	14259
921.148	14248
921.258	13993
921.368	13833
921.477	13727
921.587	13814
921.697	13666
921.806	13788
921.916	13632
922.025	13521
922.134	13464
922.244	13358
922.353	13430
922.462	13312
922.571	13232
922.68	13069
922.789	13080
922.898	13133
923.007	12977
923.116	13065
923.224	13084
923.333	12977
923.442	12897
923.55	12844
923.659	12920
923.767	12947
923.876	12783
923.984	12924
924.092	12753
924.201	12806
924.309	12798
924.417	12837
924.525	12711
924.633	12787
924.741	13685
924.849	12513
924.956	12681
925.064	12578
925.172	12388
925.279	12471
925.387	12471
925.494	12437
925.602	12555
925.709	12471
925.816	12410
925.924	12441
926.031	12513
926.138	12426
926.245	12490
926.352	12285
926.459	12494
926.566	12479
926.673	12407
926.779	12361
926.886	12228
926.993	12163
927.099	12003
927.206	12015
927.312	12007
927.419	12125
927.525	12030
927.631	12068
927.737	11961
927.843	11874
927.95	11760
928.056	11939
928.162	11821
928.267	11958
928.373	12578
928.479	12038
928.585	11798
928.69	11824
928.796	11859
928.901	11760
929.007	11577
929.112	11767
929.218	11691
929.323	11699
929.428	11665
929.533	11707
929.638	11573
929.743	11589
929.848	11699
929.953	11615
930.058	11547
930.163	11341
930.267	11296
930.372	11440
930.477	11318
930.581	11433
930.685	11353
930.79	11151
930.894	11299
930.998	11185
931.103	11349
931.207	10919
931.311	10858
931.415	10797
931.519	10645
931.623	10702
