Data from test_V78500241_860.txt Node
Date: Fri Mar 25 15:15:50 CST 2022
User: usil
Spectrometer: V785-0024
Trigger mode: 0
Integration Time (sec): 4.000000E-1
Scans to average: 1
Nonlinearity correction enabled: false
Boxcar width: 0
Storing dark spectrum: false
XAxis mode: Wavelengths
Number of Pixels in Spectrum: 1024
>>>>>Begin Spectral Data<<<<<
801.071	28226
801.214	28261
801.356	27987
801.499	27865
801.641	27857
801.783	27842
801.926	27907
802.068	27846
802.211	27713
802.353	27572
802.496	27500
802.638	27382
802.78	27344
802.923	27447
803.065	27401
803.208	27378
803.35	27492
803.492	27500
803.635	27644
803.777	27618
803.919	27591
804.061	27869
804.204	27637
804.346	27549
804.488	27542
804.63	27599
804.773	27405
804.915	27774
805.057	27869
805.199	27648
805.341	27652
805.483	27808
805.626	27583
805.768	27591
805.91	27739
806.052	27793
806.194	27595
806.336	27926
806.478	27724
806.62	27797
806.762	27793
806.904	28200
807.046	28295
807.188	28257
807.33	28181
807.472	28246
807.614	28150
807.756	28128
807.898	27979
808.04	27934
808.182	27964
808.324	28070
808.465	28147
808.607	28352
808.749	28284
808.891	28440
809.033	28497
809.174	28436
809.316	28363
809.458	28371
809.6	28618
809.741	28622
809.883	28755
810.025	28679
810.166	28793
810.308	28698
810.45	28694
810.591	28729
810.733	28577
810.875	28375
811.016	28386
811.158	28234
811.299	28653
811.441	28710
811.582	28584
811.724	28584
811.865	28451
812.007	28455
812.148	28421
812.29	28557
812.431	28618
812.573	28949
812.714	28923
812.855	29086
812.997	28957
813.138	29265
813.279	29197
813.421	29033
813.562	29022
813.703	28843
813.845	28828
813.986	28462
814.127	28299
814.268	28196
814.41	28257
814.551	28093
814.692	28253
814.833	28276
814.974	28131
815.115	28303
815.256	28051
815.397	28124
815.539	28200
815.68	27914
815.821	27994
815.962	28093
816.103	27979
816.244	27835
816.385	27907
816.526	27641
816.666	27656
816.807	27515
816.948	27530
817.089	27690
817.23	27610
817.371	27553
817.512	27393
817.653	27568
817.793	27469
817.934	27515
818.075	27496
818.216	27496
818.356	27447
818.497	27424
818.638	27127
818.778	27176
818.919	27348
819.06	27329
819.2	27439
819.341	27583
819.481	27504
819.622	27564
819.762	27736
819.903	27842
820.043	27709
820.184	27660
820.324	27701
820.465	27686
820.605	27595
820.746	27679
820.886	27435
821.026	27557
821.167	27534
821.307	27542
821.447	27466
821.588	27340
821.728	27256
821.868	27093
822.008	26982
822.149	26975
822.289	26902
822.429	26655
822.569	26621
822.709	26670
822.849	26492
822.99	26644
823.13	26480
823.27	26377
823.41	26290
823.55	26065
823.69	26248
823.83	26218
823.97	26305
824.11	26103
824.25	26016
824.389	26164
824.529	26301
824.669	26062
824.809	26286
824.949	26195
825.089	26282
825.228	26088
825.368	26058
825.508	26081
825.648	26043
825.787	26050
825.927	26031
826.067	25928
826.206	25936
826.346	25921
826.485	26054
826.625	26073
826.765	26084
826.904	26157
827.044	25803
827.183	25742
827.323	25769
827.462	25670
827.601	25601
827.741	25723
827.88	25738
828.02	25609
828.159	25845
828.298	25696
828.437	25784
828.577	25571
828.716	25803
828.855	25791
828.994	25415
829.134	25445
829.273	25601
829.412	25491
829.551	25487
829.69	25297
829.829	25419
829.968	25495
830.107	25472
830.246	25388
830.385	25278
830.524	25419
830.663	25263
830.802	25137
830.941	25034
831.08	25057
831.219	25164
831.357	25137
831.496	25137
831.635	24973
831.774	24913
831.913	24814
832.051	24726
832.19	24772
832.329	24928
832.467	24673
832.606	24700
832.744	24642
832.883	24650
833.022	24677
833.16	24806
833.299	24692
833.437	24684
833.576	24859
833.714	24738
833.852	24719
833.991	24798
834.129	24935
834.267	24848
834.406	24730
834.544	24779
834.682	24776
834.821	24673
834.959	24916
835.097	24661
835.235	24890
835.373	24738
835.511	24601
835.65	24612
835.788	24479
835.926	24429
836.064	24395
836.202	24494
836.34	24665
836.478	24707
836.615	24483
836.753	24642
836.891	24616
837.029	24578
837.167	24540
837.305	24479
837.443	24399
837.58	24296
837.718	24566
837.856	24342
837.993	24247
838.131	24350
838.269	24209
838.406	24357
838.544	24289
838.681	24110
838.819	24018
838.956	23885
839.094	23939
839.231	23923
839.369	24171
839.506	24262
839.643	24125
839.781	23961
839.918	24011
840.055	23885
840.193	23958
840.33	23908
840.467	23752
840.604	23824
840.742	24117
840.879	23657
841.016	23710
841.153	23710
841.29	23863
841.427	23672
841.564	23805
841.701	23760
841.838	23912
841.975	23630
842.112	23627
842.249	23630
842.385	23570
842.522	23764
842.659	23611
842.796	23539
842.933	23539
843.069	23581
843.206	23493
843.343	23695
843.479	23531
843.616	23611
843.752	23395
843.889	23326
844.025	23509
844.162	23273
844.298	23372
844.435	23501
844.571	23280
844.708	23326
844.844	23478
844.98	23330
845.117	23349
845.253	23212
845.389	23166
845.525	23223
845.661	23155
845.798	23102
845.934	22965
846.07	23064
846.206	23212
846.342	23220
846.478	23083
846.614	22790
846.75	22790
846.886	22835
847.022	22816
847.158	22850
847.294	22889
847.429	22706
847.565	22805
847.701	23056
847.837	22569
847.972	22546
848.108	22557
848.244	22580
848.379	22508
848.515	22424
848.65	22344
848.786	22322
848.921	22531
849.057	22485
849.192	22504
849.328	22455
849.463	22329
849.598	22287
849.734	22322
849.869	22246
850.004	22238
850.14	22059
850.275	22128
850.41	22063
850.545	22112
850.68	22093
850.815	22188
850.95	22086
851.085	22337
851.22	22272
851.355	22226
851.49	22128
851.625	22086
851.76	22010
851.895	22055
852.03	22044
852.165	22147
852.299	22200
852.434	22253
852.569	22135
852.703	22070
852.838	22238
852.973	22280
853.107	22344
853.242	22086
853.376	22067
853.511	21926
853.645	21998
853.78	22124
853.914	22036
854.048	21964
854.183	21937
854.317	21987
854.451	22101
854.585	21998
854.72	22013
854.854	21922
854.988	21823
855.122	21915
855.256	21793
855.39	22021
855.524	21907
855.658	21895
855.792	21907
855.926	21892
856.06	21953
856.194	21987
856.327	21972
856.461	21926
856.595	21797
856.729	21934
856.862	22067
856.996	22002
857.13	22029
857.263	21968
857.397	21953
857.53	21918
857.664	22070
857.797	21964
857.931	22029
858.064	21983
858.197	22086
858.331	21865
858.464	21899
858.597	21854
858.731	21903
858.864	21835
858.997	22010
859.13	21903
859.263	21987
859.396	21994
859.529	21994
859.662	21934
859.795	21964
859.928	21972
860.061	22051
860.194	22139
860.327	22013
860.46	21979
860.592	21987
860.725	22143
860.858	22109
860.99	21918
861.123	21797
861.256	21895
861.388	21850
861.521	22778
861.653	21831
861.786	21762
861.918	21785
862.05	21964
862.183	21850
862.315	21865
862.447	22074
862.58	21827
862.712	21660
862.844	21576
862.976	21701
863.108	21774
863.24	22013
863.372	21587
863.504	21606
863.636	21625
863.768	21652
863.9	21701
864.032	21496
864.164	21648
864.296	21679
864.428	21812
864.559	21770
864.691	21800
864.823	21720
864.954	21663
865.086	21641
865.217	21507
865.349	21507
865.48	21595
865.612	21553
865.743	21755
865.875	21610
866.006	21420
866.137	21576
866.269	21511
866.4	21553
866.531	21485
866.662	21488
866.793	21549
866.924	21408
867.055	21572
867.186	21534
867.317	21386
867.448	21435
867.579	21317
867.71	21351
867.841	21408
867.972	21408
868.103	21450
868.233	21420
868.364	21435
868.495	21603
868.625	21698
868.756	21778
868.886	21690
869.017	21633
869.147	21804
869.278	21793
869.408	21759
869.539	21690
869.669	21724
869.799	21724
869.929	21869
870.06	21793
870.19	22017
870.32	22055
870.45	21975
870.58	22090
870.71	22223
870.84	22219
870.97	22116
871.1	22070
871.23	22112
871.36	22287
871.489	22223
871.619	22303
871.749	22207
871.879	22310
872.008	22261
872.138	22394
872.267	22352
872.397	22082
872.526	22109
872.656	22067
872.785	22272
872.915	22238
873.044	22356
873.173	22386
873.303	22405
873.432	22356
873.561	22348
873.69	22257
873.819	22379
873.948	22337
874.077	22291
874.206	22238
874.335	22348
874.464	22466
874.593	22508
874.722	22588
874.851	22535
874.979	22626
875.108	22622
875.237	22504
875.365	22478
875.494	22561
875.623	22565
875.751	22580
875.88	22504
876.008	22615
876.136	22706
876.265	22953
876.393	23025
876.521	22953
876.65	22873
876.778	22980
876.906	22847
877.034	22839
877.162	22908
877.29	22877
877.418	22858
877.546	22801
877.674	22892
877.802	22961
877.93	22847
878.058	22900
878.185	22767
878.313	22816
878.441	22831
878.568	22771
878.696	22763
878.824	22881
878.951	22850
879.079	23166
879.206	23155
879.333	23064
879.461	22934
879.588	22976
879.715	23064
879.842	23056
879.97	22877
880.097	22713
880.224	22721
880.351	22831
880.478	22630
880.605	22535
880.732	22744
880.859	22801
880.986	22573
881.112	22733
881.239	22512
881.366	22394
881.493	22318
881.619	22188
881.746	22310
881.872	22238
881.999	22219
882.125	22177
882.252	22242
882.378	22188
882.505	22314
882.631	22070
882.757	21945
882.883	22029
883.01	21994
883.136	21907
883.262	21720
883.388	21804
883.514	21941
883.64	21953
883.766	21846
883.892	21694
884.018	21770
884.143	21922
884.269	21998
884.395	21629
884.52	21663
884.646	21587
884.772	21511
884.897	21549
885.023	21530
885.148	21648
885.274	21739
885.399	21785
885.524	21610
885.65	21572
885.775	21500
885.9	21614
886.025	21610
886.15	21622
886.275	21633
886.4	21424
886.525	21549
886.65	21469
886.775	21511
886.9	21622
887.025	21770
887.149	21583
887.274	21374
887.399	21424
887.523	21359
887.648	21367
887.773	21321
887.897	21325
888.021	21428
888.146	21256
888.27	21351
888.395	21408
888.519	21397
888.643	21363
888.767	21344
888.891	21272
889.015	21203
889.139	21138
889.263	21207
889.387	21291
889.511	21329
889.635	21401
889.759	21123
889.883	21047
890.006	21157
890.13	21203
890.254	21020
890.377	21146
890.501	20910
890.624	20842
890.748	20944
890.871	20754
890.995	20667
891.118	20708
891.241	20663
891.364	20651
891.488	20697
891.611	20727
891.734	20792
891.857	20739
891.98	20785
892.103	20708
892.226	20754
892.349	20716
892.471	20465
892.594	20625
892.717	20708
892.839	20651
892.962	20655
893.085	20670
893.207	20594
893.33	20514
893.452	20480
893.575	20663
893.697	20530
893.819	20720
893.941	20720
894.064	20697
894.186	20609
894.308	20465
894.43	20640
894.552	20785
894.674	20575
894.796	20434
894.918	20579
895.04	20530
895.161	20663
895.283	20629
895.405	20537
895.526	20533
895.648	20514
895.769	20613
895.891	20594
896.012	20693
896.134	20613
896.255	20632
896.376	20457
896.498	20522
896.619	20632
896.74	20533
896.861	20530
896.982	20902
897.103	21028
897.224	20902
897.345	20750
897.466	20765
897.587	20834
897.708	20956
897.828	20895
897.949	20804
898.07	20659
898.19	20758
898.311	20834
898.431	20739
898.552	20864
898.672	20914
898.792	20693
898.913	20830
899.033	20522
899.153	20648
899.273	20518
899.393	20537
899.513	20541
899.633	20648
899.753	20549
899.873	20412
899.993	20507
900.113	20450
900.232	20530
900.352	20499
900.472	20370
900.591	20237
900.711	20294
900.83	20176
900.95	20320
901.069	20469
901.189	20149
901.308	20043
901.427	19826
901.546	19928
901.665	19917
901.784	19921
901.904	19795
902.023	19700
902.141	19434
902.26	19403
902.379	19415
902.498	19468
902.617	19400
902.735	19320
902.854	19304
902.973	19301
903.091	19057
903.21	19061
903.328	19099
903.446	18920
903.565	18977
903.683	18928
903.801	18745
903.919	18837
904.038	18795
904.156	18627
904.274	18616
904.392	18604
904.51	18528
904.627	18658
904.745	18635
904.863	18684
904.981	18372
905.098	18239
905.216	18247
905.334	18277
905.451	18296
905.569	18167
905.686	18334
905.803	18220
905.921	18072
906.038	18262
906.155	18095
906.272	17984
906.389	17977
906.506	17790
906.623	17904
906.74	17794
906.857	17684
906.974	17729
907.091	17843
907.208	17942
907.324	17775
907.441	17646
907.557	17543
907.674	17619
907.79	17440
907.907	17440
908.023	17520
908.139	17589
908.256	17501
908.372	17330
908.488	17372
908.604	17269
908.72	17128
908.836	17242
908.952	17132
909.068	17303
909.184	17326
909.3	17208
909.415	17235
909.531	17159
909.647	17060
909.762	17006
909.878	16923
909.993	17067
910.108	16965
910.224	16953
910.339	16915
910.454	16881
910.57	16782
910.685	16694
910.8	16999
910.915	16889
911.03	16858
911.145	16592
911.259	16542
911.374	16577
911.489	16546
911.604	16421
911.718	16238
911.833	16276
911.947	16124
912.062	16143
912.176	16306
912.291	16223
912.405	16325
912.519	16478
912.633	16451
912.748	16356
912.862	16276
912.976	16124
913.09	16025
913.204	16097
913.318	16044
913.431	16177
913.545	16185
913.659	16147
913.772	16044
913.886	16017
914	15854
914.113	15949
914.226	15972
914.34	15975
914.453	15823
914.566	15857
914.68	15804
914.793	15736
914.906	15568
915.019	15462
915.132	15378
915.245	15447
915.358	15412
915.47	15538
915.583	15454
915.696	15534
915.809	15606
915.921	15587
916.034	15405
916.146	15237
916.259	15367
916.371	15447
916.483	15389
916.595	15317
916.708	15408
916.82	15321
916.932	15283
917.044	15306
917.156	15207
917.268	15154
917.38	15119
917.491	15070
917.603	15119
917.715	15195
917.826	15203
917.938	15085
918.049	15017
918.161	15005
918.272	15214
918.384	15176
918.495	15051
918.606	14937
918.717	14849
918.828	14895
918.939	14937
919.05	14792
919.161	14842
919.272	14606
919.383	14693
919.494	14876
919.604	15020
919.715	14925
919.826	14838
919.936	14724
920.047	14785
920.157	14788
920.267	15097
920.378	14804
920.488	14807
920.598	15005
920.708	15089
920.818	15017
920.928	14899
921.038	15104
921.148	15085
921.258	14811
921.368	14758
921.477	14549
921.587	14602
921.697	14450
921.806	14602
921.916	14385
922.025	14225
922.134	14282
922.244	14176
922.353	14130
922.462	14073
922.571	13993
922.68	13887
922.789	13826
922.898	13826
923.007	13746
923.116	13871
923.224	13784
923.333	13712
923.442	13765
923.55	13616
923.659	13715
923.767	13704
923.876	13643
923.984	13624
924.092	13499
924.201	13548
924.309	13632
924.417	13632
924.525	13468
924.633	13426
924.741	14305
924.849	13251
924.956	13365
925.064	13251
925.172	13259
925.279	13240
925.387	13350
925.494	13270
925.602	13384
925.709	13274
925.816	13088
925.924	13228
926.031	13289
926.138	13114
926.245	13232
926.352	13069
926.459	13190
926.566	13369
926.673	13038
926.779	13038
926.886	12951
926.993	12901
927.099	12768
927.206	12795
927.312	12738
927.419	12844
927.525	12882
927.631	12783
927.737	12597
927.843	12616
927.95	12525
928.056	12582
928.162	12635
928.267	12741
928.373	13221
928.479	12612
928.585	12460
928.69	12566
928.796	12551
928.901	12547
929.007	12334
929.112	12422
929.218	12391
929.323	12395
929.428	12372
929.533	12498
929.638	12235
929.743	12266
929.848	12300
929.953	12365
930.058	12163
930.163	12121
930.267	12049
930.372	12102
930.477	11916
930.581	12235
930.685	11965
930.79	11847
930.894	11912
930.998	11866
931.103	12011
931.207	11695
931.311	11627
931.415	11474
931.519	11318
931.623	11189
