Data from test_V78500241_2525.txt Node
Date: Fri Mar 25 15:27:26 CST 2022
User: usil
Spectrometer: V785-0024
Trigger mode: 0
Integration Time (sec): 4.000000E-1
Scans to average: 1
Nonlinearity correction enabled: false
Boxcar width: 0
Storing dark spectrum: false
XAxis mode: Wavelengths
Number of Pixels in Spectrum: 1024
>>>>>Begin Spectral Data<<<<<
801.071	27180
801.214	27062
801.356	26830
801.499	26758
801.641	26674
801.783	26682
801.926	26701
802.068	26781
802.211	26648
802.353	26541
802.496	26419
802.638	26256
802.78	26225
802.923	26252
803.065	26282
803.208	26324
803.35	26237
803.492	26408
803.635	26438
803.777	26286
803.919	26606
804.061	26861
804.204	26579
804.346	26453
804.488	26499
804.63	26438
804.773	26408
804.915	26549
805.057	26663
805.199	26317
805.341	26511
805.483	26602
805.626	26564
805.768	26389
805.91	26602
806.052	26594
806.194	26587
806.336	26769
806.478	26583
806.62	26606
806.762	26697
806.904	26773
807.046	27058
807.188	27024
807.33	27039
807.472	27005
807.614	26880
807.756	26899
807.898	26667
808.04	26819
808.182	26678
808.324	26785
808.465	26823
808.607	27001
808.749	27138
808.891	27188
809.033	27283
809.174	27146
809.316	27100
809.458	27230
809.6	27096
809.741	27310
809.883	27294
810.025	27348
810.166	27515
810.308	27374
810.45	27420
810.591	27283
810.733	27264
810.875	27154
811.016	27058
811.158	27123
811.299	27386
811.441	27325
811.582	27294
811.724	27127
811.865	27135
812.007	27070
812.148	27104
812.29	27127
812.431	27291
812.573	27401
812.714	27557
812.855	27618
812.997	27739
813.138	27838
813.279	27606
813.421	27709
813.562	27530
813.703	27408
813.845	27241
813.986	27009
814.127	26853
814.268	26887
814.41	26807
814.551	26754
814.692	26697
814.833	26758
814.974	26857
815.115	26788
815.256	26644
815.397	26651
815.539	26659
815.68	26602
815.821	26461
815.962	26613
816.103	26560
816.244	26434
816.385	26298
816.526	26328
816.666	26073
816.807	26016
816.948	26122
817.089	26176
817.23	25974
817.371	25833
817.512	26043
817.653	26081
817.793	26027
817.934	25982
818.075	26149
818.216	26145
818.356	25936
818.497	25921
818.638	25681
818.778	25795
818.919	25727
819.06	25719
819.2	25959
819.341	25974
819.481	26069
819.622	26187
819.762	26446
819.903	26252
820.043	26252
820.184	26107
820.324	26039
820.465	26240
820.605	26119
820.746	26084
820.886	26069
821.026	26180
821.167	25986
821.307	26172
821.447	26062
821.588	25932
821.728	25811
821.868	25666
822.008	25533
822.149	25533
822.289	25499
822.429	25327
822.569	25304
822.709	25308
822.849	25004
822.99	25091
823.13	25038
823.27	24935
823.41	24772
823.55	24798
823.69	24783
823.83	24924
823.97	24817
824.11	24802
824.25	24589
824.389	24502
824.529	24753
824.669	24650
824.809	24722
824.949	24825
825.089	24779
825.228	24745
825.368	24502
825.508	24559
825.648	24490
825.787	24669
825.927	24688
826.067	24589
826.206	24582
826.346	24760
826.485	24597
826.625	24505
826.765	24669
826.904	24498
827.044	24334
827.183	24311
827.323	24376
827.462	24353
827.601	24304
827.741	24201
827.88	24235
828.02	24038
828.159	24224
828.298	24281
828.437	24186
828.577	24144
828.716	24224
828.855	24167
828.994	23863
829.134	24045
829.273	24038
829.412	24049
829.551	23958
829.69	23954
829.829	23942
829.968	24053
830.107	23935
830.246	23999
830.385	23897
830.524	23878
830.663	23771
830.802	23570
830.941	23615
831.08	23608
831.219	23680
831.357	23615
831.496	23863
831.635	23581
831.774	23444
831.913	23478
832.051	23406
832.19	23277
832.329	23505
832.467	23307
832.606	23220
832.744	23322
832.883	23269
833.022	23208
833.16	23364
833.299	23322
833.437	23387
833.576	23330
833.714	23140
833.852	23372
833.991	23379
834.129	23440
834.267	23360
834.406	23326
834.544	23322
834.682	23364
834.821	23235
834.959	23490
835.097	23189
835.235	23360
835.373	23326
835.511	23315
835.65	23170
835.788	23178
835.926	23037
836.064	23025
836.202	22976
836.34	23204
836.478	23288
836.615	23083
836.753	23132
836.891	23322
837.029	23174
837.167	23208
837.305	23105
837.443	22949
837.58	23044
837.718	23083
837.856	23022
837.993	22999
838.131	23006
838.269	22862
838.406	22869
838.544	22927
838.681	22626
838.819	22660
838.956	22519
839.094	22424
839.231	22615
839.369	22618
839.506	22812
839.643	22873
839.781	22607
839.918	22459
840.055	22485
840.193	22527
840.33	22436
840.467	22519
840.604	22554
840.742	22774
840.879	22371
841.016	22371
841.153	22398
841.29	22462
841.427	22299
841.564	22409
841.701	22363
841.838	22447
841.975	22386
842.112	22402
842.249	22375
842.385	22325
842.522	22516
842.659	22223
842.796	22234
842.933	22124
843.069	22139
843.206	22166
843.343	22257
843.479	22177
843.616	22242
843.752	22067
843.889	22059
844.025	22124
844.162	22044
844.298	21953
844.435	21945
844.571	21903
844.708	21991
844.844	22093
844.98	22131
845.117	22006
845.253	21987
845.389	21880
845.525	21793
845.661	21736
845.798	21637
845.934	21732
846.07	21614
846.206	21778
846.342	21797
846.478	21747
846.614	21504
846.75	21386
846.886	21374
847.022	21610
847.158	21389
847.294	21458
847.429	21462
847.565	21336
847.701	21713
847.837	21214
847.972	21157
848.108	21287
848.244	21131
848.379	21199
848.515	20967
848.65	21001
848.786	20994
848.921	21020
849.057	21218
849.192	21138
849.328	21096
849.463	21135
849.598	20982
849.734	20872
849.869	20914
850.004	20781
850.14	20887
850.275	20842
850.41	20845
850.545	20697
850.68	20857
850.815	20708
850.95	20861
851.085	21074
851.22	20963
851.355	20872
851.49	20762
851.625	20743
851.76	20712
851.895	20743
852.03	20678
852.165	20857
852.299	20788
852.434	20887
852.569	20804
852.703	20663
852.838	20849
852.973	20906
853.107	21017
853.242	20785
853.376	20602
853.511	20484
853.645	20606
853.78	20674
853.914	20629
854.048	20617
854.183	20720
854.317	20678
854.451	20842
854.585	20708
854.72	20632
854.854	20575
854.988	20568
855.122	20590
855.256	20412
855.39	20533
855.524	20693
855.658	20773
855.792	20689
855.926	20640
856.06	20659
856.194	20659
856.327	20568
856.461	20575
856.595	20457
856.729	20682
856.862	20746
856.996	20670
857.13	20693
857.263	20667
857.397	20724
857.53	20644
857.664	20625
857.797	20724
857.931	20564
858.064	20724
858.197	20750
858.331	20617
858.464	20560
858.597	20530
858.731	20644
858.864	20651
858.997	20549
859.13	20693
859.263	20727
859.396	20659
859.529	20564
859.662	20625
859.795	20598
859.928	20655
860.061	20807
860.194	20796
860.327	20758
860.46	20609
860.592	20701
860.725	20727
860.858	20781
860.99	20545
861.123	20476
861.256	20545
861.388	20556
861.521	21416
861.653	20492
861.786	20434
861.918	20609
862.05	20522
862.183	20568
862.315	20587
862.447	20579
862.58	20499
862.712	20343
862.844	20298
862.976	20374
863.108	20385
863.24	20746
863.372	20358
863.504	20286
863.636	20301
863.768	20374
863.9	20358
864.032	20172
864.164	20275
864.296	20206
864.428	20457
864.559	20381
864.691	20343
864.823	20324
864.954	20339
865.086	20225
865.217	20271
865.349	20237
865.48	20244
865.612	20233
865.743	20427
865.875	20267
866.006	20229
866.137	20282
866.269	20237
866.4	20164
866.531	20252
866.662	20206
866.793	20191
866.924	20180
867.055	20233
867.186	20256
867.317	20202
867.448	20062
867.579	20153
867.71	20096
867.841	20199
867.972	20309
868.103	20191
868.233	20221
868.364	20206
868.495	20313
868.625	20461
868.756	20514
868.886	20385
869.017	20408
869.147	20396
869.278	20526
869.408	20461
869.539	20385
869.669	20457
869.799	20492
869.929	20541
870.06	20488
870.19	20689
870.32	20754
870.45	20838
870.58	20864
870.71	21017
870.84	20956
870.97	20963
871.1	20823
871.23	21146
871.36	20811
871.489	20929
871.619	20952
871.749	21043
871.879	21051
872.008	21176
872.138	20975
872.267	21001
872.397	20921
872.526	20762
872.656	20861
872.785	20921
872.915	21093
873.044	21180
873.173	21066
873.303	21192
873.432	21184
873.561	21150
873.69	21142
873.819	21157
873.948	21093
874.077	21138
874.206	21055
874.335	21085
874.464	21272
874.593	21355
874.722	21310
874.851	21294
874.979	21329
875.108	21302
875.237	21287
875.365	21256
875.494	21199
875.623	21397
875.751	21138
875.88	21348
876.008	21504
876.136	21469
876.265	21747
876.393	21770
876.521	21743
876.65	21755
876.778	21580
876.906	21671
877.034	21603
877.162	21614
877.29	21690
877.418	21694
877.546	21736
877.674	21610
877.802	21587
877.93	21660
878.058	21755
878.185	21507
878.313	21804
878.441	21637
878.568	21389
878.696	21648
878.824	21766
878.951	21694
879.079	21850
879.206	21994
879.333	21759
879.461	21747
879.588	21812
879.715	21679
879.842	21937
879.97	21652
880.097	21641
880.224	21485
880.351	21511
880.478	21485
880.605	21443
880.732	21458
880.859	21743
880.986	21481
881.112	21492
881.239	21408
881.366	21203
881.493	21100
881.619	21058
881.746	21127
881.872	20944
881.999	21005
882.125	21138
882.252	21039
882.378	21108
882.505	21135
882.631	20906
882.757	20853
882.883	20838
883.01	20895
883.136	20735
883.262	20659
883.388	20571
883.514	20800
883.64	20895
883.766	20689
883.892	20560
884.018	20640
884.143	20625
884.269	20788
884.395	20408
884.52	20298
884.646	20492
884.772	20320
884.897	20370
885.023	20332
885.148	20530
885.274	20590
885.399	20518
885.524	20434
885.65	20400
885.775	20442
885.9	20473
886.025	20522
886.15	20370
886.275	20374
886.4	20404
886.525	20427
886.65	20461
886.775	20263
886.9	20514
887.025	20621
887.149	20431
887.274	20138
887.399	20199
887.523	20199
887.648	20168
887.773	20126
887.897	20298
888.021	20313
888.146	20145
888.27	20259
888.395	20256
888.519	20195
888.643	20237
888.767	20244
888.891	20065
889.015	19993
889.139	20149
889.263	20050
889.387	20119
889.511	20233
889.635	20081
889.759	19955
889.883	19967
890.006	19959
890.13	19982
890.254	19906
890.377	19765
890.501	19814
890.624	19712
890.748	19814
890.871	19708
890.995	19578
891.118	19571
891.241	19578
891.364	19658
891.488	19708
891.611	19609
891.734	19540
891.857	19575
891.98	19643
892.103	19578
892.226	19525
892.349	19556
892.471	19384
892.594	19514
892.717	19506
892.839	19419
892.962	19453
893.085	19613
893.207	19487
893.33	19411
893.452	19422
893.575	19525
893.697	19483
893.819	19620
893.941	19849
894.064	19658
894.186	19384
894.308	19441
894.43	19586
894.552	19681
894.674	19487
894.796	19422
894.918	19449
895.04	19460
895.161	19609
895.283	19449
895.405	19472
895.526	19464
895.648	19483
895.769	19677
895.891	19464
896.012	19582
896.134	19506
896.255	19510
896.376	19419
896.498	19483
896.619	19373
896.74	19487
896.861	19502
896.982	19757
897.103	19928
897.224	19833
897.345	19677
897.466	19666
897.587	19761
897.708	19879
897.828	19799
897.949	19605
898.07	19518
898.19	19666
898.311	19902
898.431	19750
898.552	19651
898.672	19742
898.792	19894
898.913	19795
899.033	19693
899.153	19537
899.273	19403
899.393	19502
899.513	19544
899.633	19521
899.753	19464
899.873	19514
899.993	19487
900.113	19468
900.232	19358
900.352	19468
900.472	19282
900.591	19247
900.711	19187
900.83	19282
900.95	19320
901.069	19362
901.189	19133
901.308	18947
901.427	18856
901.546	18867
901.665	18924
901.784	18856
901.904	18757
902.023	18730
902.141	18494
902.26	18380
902.379	18525
902.498	18327
902.617	18361
902.735	18486
902.854	18327
902.973	18323
903.091	17992
903.21	18072
903.328	18121
903.446	17931
903.565	17828
903.683	17942
903.801	17813
903.919	17866
904.038	17794
904.156	17653
904.274	17729
904.392	17661
904.51	17699
904.627	17604
904.745	17741
904.863	17672
904.981	17406
905.098	17269
905.216	17273
905.334	17334
905.451	17299
905.569	17425
905.686	17429
905.803	17277
905.921	17113
906.038	17235
906.155	17166
906.272	17083
906.389	17048
906.506	16915
906.623	16961
906.74	16911
906.857	16812
906.974	16755
907.091	17010
907.208	17010
907.324	16934
907.441	16679
907.557	16740
907.674	16702
907.79	16523
907.907	16447
908.023	16672
908.139	16573
908.256	16497
908.372	16390
908.488	16390
908.604	16322
908.72	16390
908.836	16291
908.952	16329
909.068	16303
909.184	16417
909.3	16211
909.415	16310
909.531	16310
909.647	15987
909.762	16135
909.878	16044
909.993	16013
910.108	15960
910.224	16006
910.339	15956
910.454	15816
910.57	15918
910.685	15705
910.8	16071
910.915	16010
911.03	15800
911.145	15717
911.259	15625
911.374	15648
911.489	15599
911.604	15450
911.718	15294
911.833	15439
911.947	15332
912.062	15321
912.176	15443
912.291	15469
912.405	15488
912.519	15682
912.633	15591
912.748	15530
912.862	15401
912.976	15237
913.09	15039
913.204	15112
913.318	15093
913.431	15329
913.545	15264
913.659	15272
913.772	15154
913.886	15123
914	14990
914.113	15051
914.226	15176
914.34	14994
914.453	14880
914.566	15020
914.68	14914
914.793	14838
914.906	14762
915.019	14640
915.132	14560
915.245	14587
915.358	14705
915.47	14621
915.583	14564
915.696	14678
915.809	14712
915.921	14804
916.034	14632
916.146	14533
916.259	14488
916.371	14625
916.483	14617
916.595	14450
916.708	14419
916.82	14526
916.932	14431
917.044	14305
917.156	14374
917.268	14339
917.38	14328
917.491	14271
917.603	14237
917.715	14358
917.826	14408
917.938	14237
918.049	14233
918.161	14301
918.272	14408
918.384	14412
918.495	14237
918.606	14126
918.717	13989
918.828	14126
918.939	14134
919.05	14008
919.161	14054
919.272	13811
919.383	13947
919.494	14058
919.604	14278
919.715	14153
919.826	14043
919.936	13959
920.047	14050
920.157	14065
920.267	14244
920.378	13967
920.488	13974
920.598	14214
920.708	14408
920.818	14195
920.928	14134
921.038	14313
921.148	14358
921.258	14008
921.368	13799
921.477	13849
921.587	13727
921.697	13624
921.806	13734
921.916	13624
922.025	13556
922.134	13506
922.244	13586
922.353	13441
922.462	13377
922.571	13358
922.68	13084
922.789	13088
922.898	13156
923.007	12973
923.116	13080
923.224	13110
923.333	13065
923.442	12916
923.55	12848
923.659	13034
923.767	12954
923.876	12863
923.984	12935
924.092	12791
924.201	12897
924.309	12802
924.417	12821
924.525	12821
924.633	12741
924.741	13674
924.849	12536
924.956	12753
925.064	12513
925.172	12410
925.279	12490
925.387	12509
925.494	12566
925.602	12620
925.709	12540
925.816	12426
925.924	12433
926.031	12570
926.138	12399
926.245	12460
926.352	12315
926.459	12502
926.566	12589
926.673	12391
926.779	12296
926.886	12334
926.993	12136
927.099	12239
927.206	12060
927.312	12015
927.419	12220
927.525	12171
927.631	12057
927.737	12045
927.843	11935
927.95	11840
928.056	11916
928.162	11870
928.267	12003
928.373	12589
928.479	12019
928.585	11764
928.69	11874
928.796	11992
928.901	11802
929.007	11577
929.112	11760
929.218	11783
929.323	11657
929.428	11722
929.533	11817
929.638	11642
929.743	11627
929.848	11718
929.953	11505
930.058	11566
930.163	11387
930.267	11417
930.372	11505
930.477	11349
930.581	11577
930.685	11414
930.79	11280
930.894	11288
930.998	11277
931.103	11395
931.207	11045
931.311	10923
931.415	10831
931.519	10641
931.623	10660
