Data from test_V78500241_1306.txt Node
Date: Fri Mar 25 15:18:56 CST 2022
User: usil
Spectrometer: V785-0024
Trigger mode: 0
Integration Time (sec): 4.000000E-1
Scans to average: 1
Nonlinearity correction enabled: false
Boxcar width: 0
Storing dark spectrum: false
XAxis mode: Wavelengths
Number of Pixels in Spectrum: 1024
>>>>>Begin Spectral Data<<<<<
801.071	28002
801.214	27979
801.356	27618
801.499	27534
801.641	27564
801.783	27561
801.926	27599
802.068	27473
802.211	27519
802.353	27336
802.496	27237
802.638	27226
802.78	27325
802.923	27127
803.065	27131
803.208	27116
803.35	27150
803.492	27344
803.635	27469
803.777	27241
803.919	27287
804.061	27701
804.204	27340
804.346	27378
804.488	27329
804.63	27439
804.773	27313
804.915	27530
805.057	27488
805.199	27306
805.341	27580
805.483	27542
805.626	27439
805.768	27412
805.91	27462
806.052	27496
806.194	27690
806.336	27755
806.478	27496
806.62	27481
806.762	27705
806.904	27622
807.046	28078
807.188	27922
807.33	27876
807.472	28082
807.614	27895
807.756	27911
807.898	27918
808.04	27816
808.182	27686
808.324	27747
808.465	27922
808.607	28013
808.749	28154
808.891	28249
809.033	28329
809.174	28150
809.316	28109
809.458	28249
809.6	28101
809.741	28291
809.883	28272
810.025	28409
810.166	28565
810.308	28535
810.45	28375
810.591	28276
810.733	28204
810.875	28147
811.016	28055
811.158	28048
811.299	28341
811.441	28306
811.582	28234
811.724	28314
811.865	28185
812.007	28181
812.148	27998
812.29	28249
812.431	28379
812.573	28500
812.714	28744
812.855	28774
812.997	28729
813.138	29006
813.279	28900
813.421	28702
813.562	28721
813.703	28478
813.845	28196
813.986	28185
814.127	28093
814.268	27899
814.41	28010
814.551	27766
814.692	27956
814.833	27854
814.974	27865
815.115	27876
815.256	27633
815.397	27812
815.539	27705
815.68	27534
815.821	27652
815.962	27732
816.103	27572
816.244	27504
816.385	27340
816.526	27405
816.666	27412
816.807	27256
816.948	27313
817.089	27351
817.23	27211
817.371	27272
817.512	27104
817.653	27192
817.793	27138
817.934	27157
818.075	27222
818.216	27195
818.356	27268
818.497	27058
818.638	27017
818.778	26842
818.919	26921
819.06	26921
819.2	27108
819.341	27214
819.481	27123
819.622	27279
819.762	27450
819.903	27401
820.043	27332
820.184	27363
820.324	27412
820.465	27469
820.605	27344
820.746	27351
820.886	27154
821.026	27249
821.167	27157
821.307	27264
821.447	27218
821.588	27085
821.728	26914
821.868	26754
822.008	26602
822.149	26758
822.289	26419
822.429	26298
822.569	26328
822.709	26191
822.849	26267
822.99	26092
823.13	26183
823.27	26039
823.41	25970
823.55	25826
823.69	26084
823.83	26107
823.97	25860
824.11	25719
824.25	25731
824.389	25765
824.529	25932
824.669	25761
824.809	25917
824.949	25826
825.089	25811
825.228	25864
825.368	25639
825.508	25651
825.648	25708
825.787	25655
825.927	25719
826.067	25655
826.206	25693
826.346	25769
826.485	25719
826.625	25693
826.765	25776
826.904	25624
827.044	25472
827.183	25445
827.323	25320
827.462	25377
827.601	25434
827.741	25434
827.88	25369
828.02	25331
828.159	25426
828.298	25377
828.437	25426
828.577	25263
828.716	25556
828.855	25354
828.994	25114
829.134	25050
829.273	25114
829.412	25103
829.551	24947
829.69	25008
829.829	25034
829.968	25179
830.107	25213
830.246	25072
830.385	24989
830.524	24943
830.663	24985
830.802	24833
830.941	24787
831.08	24738
831.219	24707
831.357	24764
831.496	24951
831.635	24730
831.774	24597
831.913	24589
832.051	24403
832.19	24414
832.329	24673
832.467	24498
832.606	24342
832.744	24334
832.883	24342
833.022	24277
833.16	24334
833.299	24578
833.437	24448
833.576	24384
833.714	24464
833.852	24407
833.991	24471
834.129	24650
834.267	24486
834.406	24540
834.544	24433
834.682	24391
834.821	24388
834.959	24585
835.097	24570
835.235	24525
835.373	24490
835.511	24456
835.65	24262
835.788	24247
835.926	24095
836.064	24057
836.202	24220
836.34	24308
836.478	24281
836.615	24098
836.753	24292
836.891	24350
837.029	24194
837.167	24197
837.305	24239
837.443	24232
837.58	24087
837.718	24057
837.856	24083
837.993	23969
838.131	24098
838.269	23977
838.406	23859
838.544	23939
838.681	23585
838.819	23821
838.956	23570
839.094	23562
839.231	23726
839.369	23760
839.506	23988
839.643	23802
839.781	23535
839.918	23440
840.055	23585
840.193	23478
840.33	23433
840.467	23429
840.604	23497
840.742	23653
840.879	23486
841.016	23505
841.153	23379
841.29	23509
841.427	23528
841.564	23528
841.701	23429
841.838	23379
841.975	23261
842.112	23402
842.249	23159
842.385	23200
842.522	23448
842.659	23258
842.796	23277
842.933	23204
843.069	23189
843.206	23098
843.343	23353
843.479	23193
843.616	23303
843.752	23083
843.889	23003
844.025	23147
844.162	23079
844.298	23067
844.435	22930
844.571	22934
844.708	23037
844.844	23227
844.98	23212
845.117	23037
845.253	23033
845.389	22904
845.525	22889
845.661	22774
845.798	22694
845.934	22725
846.07	22767
846.206	22786
846.342	22869
846.478	22828
846.614	22523
846.75	22367
846.886	22508
847.022	22588
847.158	22459
847.294	22455
847.429	22485
847.565	22447
847.701	22615
847.837	22291
847.972	22188
848.108	22325
848.244	22253
848.379	22173
848.515	22032
848.65	21994
848.786	21964
848.921	22059
849.057	22124
849.192	22219
849.328	22128
849.463	22040
849.598	22059
849.734	21975
849.869	21911
850.004	21755
850.14	21899
850.275	21922
850.41	21797
850.545	21701
850.68	21690
850.815	21918
850.95	21865
851.085	21934
851.22	21899
851.355	21892
851.49	21831
851.625	21884
851.76	21751
851.895	21759
852.03	21580
852.165	21736
852.299	21861
852.434	21930
852.569	21865
852.703	21759
852.838	21846
852.973	21964
853.107	22059
853.242	21857
853.376	21766
853.511	21660
853.645	21519
853.78	21694
853.914	21690
854.048	21534
854.183	21652
854.317	21789
854.451	21781
854.585	21724
854.72	21633
854.854	21663
854.988	21572
855.122	21682
855.256	21507
855.39	21519
855.524	21743
855.658	21675
855.792	21694
855.926	21743
856.06	21698
856.194	21698
856.327	21595
856.461	21694
856.595	21625
856.729	21576
856.862	21747
856.996	21698
857.13	21732
857.263	21751
857.397	21732
857.53	21743
857.664	21686
857.797	21835
857.931	21671
858.064	21766
858.197	21660
858.331	21648
858.464	21564
858.597	21477
858.731	21690
858.864	21641
858.997	21599
859.13	21720
859.263	21633
859.396	21759
859.529	21644
859.662	21648
859.795	21671
859.928	21671
860.061	21888
860.194	21861
860.327	21724
860.46	21679
860.592	21789
860.725	21945
860.858	21873
860.99	21812
861.123	21591
861.256	21599
861.388	21732
861.521	22363
861.653	21591
861.786	21485
861.918	21420
862.05	21583
862.183	21641
862.315	21713
862.447	21656
862.58	21614
862.712	21351
862.844	21351
862.976	21466
863.108	21504
863.24	21781
863.372	21291
863.504	21275
863.636	21374
863.768	21450
863.9	21443
864.032	21298
864.164	21264
864.296	21329
864.428	21458
864.559	21477
864.691	21538
864.823	21519
864.954	21374
865.086	21420
865.217	21214
865.349	21268
865.48	21214
865.612	21359
865.743	21382
865.875	21302
866.006	21233
866.137	21283
866.269	21351
866.4	21207
866.531	21173
866.662	21287
866.793	21249
866.924	21230
867.055	21173
867.186	21272
867.317	21142
867.448	21116
867.579	21226
867.71	21108
867.841	21074
867.972	21211
868.103	21188
868.233	21176
868.364	21161
868.495	21317
868.625	21481
868.756	21515
868.886	21401
869.017	21443
869.147	21500
869.278	21614
869.408	21549
869.539	21348
869.669	21568
869.799	21504
869.929	21549
870.06	21485
870.19	21827
870.32	21743
870.45	21759
870.58	21766
870.71	21888
870.84	21774
870.97	21789
871.1	21751
871.23	22002
871.36	21979
871.489	21876
871.619	21994
871.749	22051
871.879	22010
872.008	22101
872.138	22055
872.267	21983
872.397	21918
872.526	21869
872.656	21922
872.785	21926
872.915	22017
873.044	22116
873.173	22021
873.303	22059
873.432	22128
873.561	22120
873.69	21975
873.819	22048
873.948	22124
874.077	22078
874.206	22063
874.335	22040
874.464	22169
874.593	22284
874.722	22276
874.851	22322
874.979	22314
875.108	22246
875.237	22173
875.365	22051
875.494	22253
875.623	22344
875.751	22284
875.88	22314
876.008	22348
876.136	22459
876.265	22592
876.393	22835
876.521	22691
876.65	22668
876.778	22668
876.906	22611
877.034	22561
877.162	22611
877.29	22550
877.418	22694
877.546	22717
877.674	22656
877.802	22596
877.93	22611
878.058	22577
878.185	22436
878.313	22569
878.441	22565
878.568	22428
878.696	22588
878.824	22729
878.951	22698
879.079	22767
879.206	22957
879.333	22778
879.461	22683
879.588	22771
879.715	22809
879.842	22809
879.97	22630
880.097	22322
880.224	22390
880.351	22493
880.478	22466
880.605	22325
880.732	22409
880.859	22588
880.986	22402
881.112	22497
881.239	22268
881.366	22078
881.493	22131
881.619	21975
881.746	22017
881.872	22048
881.999	21953
882.125	21915
882.252	22128
882.378	21994
882.505	22116
882.631	21778
882.757	21641
882.883	21778
883.01	21838
883.136	21682
883.262	21576
883.388	21648
883.514	21797
883.64	21770
883.766	21583
883.892	21454
884.018	21614
884.143	21675
884.269	21679
884.395	21374
884.52	21275
884.646	21336
884.772	21192
884.897	21332
885.023	21310
885.148	21534
885.274	21435
885.399	21435
885.524	21241
885.65	21408
885.775	21355
885.9	21321
886.025	21534
886.15	21287
886.275	21272
886.4	21279
886.525	21344
886.65	21275
886.775	21184
886.9	21386
887.025	21538
887.149	21439
887.274	21104
887.399	21138
887.523	21032
887.648	21020
887.773	21020
887.897	21055
888.021	21036
888.146	21028
888.27	21207
888.395	21104
888.519	21116
888.643	21214
888.767	21268
888.891	21047
889.015	20971
889.139	20929
889.263	20902
889.387	21043
889.511	21188
889.635	20982
889.759	20933
889.883	20849
890.006	20823
890.13	21005
890.254	20762
890.377	20667
890.501	20689
890.624	20663
890.748	20697
890.871	20552
890.995	20450
891.118	20381
891.241	20473
891.364	20476
891.488	20705
891.611	20385
891.734	20476
891.857	20476
891.98	20503
892.103	20476
892.226	20518
892.349	20507
892.471	20256
892.594	20355
892.717	20450
892.839	20282
892.962	20450
893.085	20442
893.207	20301
893.33	20237
893.452	20263
893.575	20412
893.697	20313
893.819	20415
893.941	20514
894.064	20533
894.186	20248
894.308	20309
894.43	20385
894.552	20377
894.674	20366
894.796	20206
894.918	20214
895.04	20347
895.161	20412
895.283	20434
895.405	20301
895.526	20339
895.648	20351
895.769	20317
895.891	20362
896.012	20400
896.134	20309
896.255	20324
896.376	20298
896.498	20290
896.619	20298
896.74	20355
896.861	20419
896.982	20625
897.103	20796
897.224	20712
897.345	20644
897.466	20541
897.587	20590
897.708	20724
897.828	20541
897.949	20461
898.07	20465
898.19	20590
898.311	20731
898.431	20473
898.552	20598
898.672	20708
898.792	20579
898.913	20541
899.033	20499
899.153	20408
899.273	20282
899.393	20301
899.513	20396
899.633	20328
899.753	20275
899.873	20225
899.993	20343
900.113	20339
900.232	20256
900.352	20164
900.472	20054
900.591	19989
900.711	20100
900.83	20126
900.95	20176
901.069	20195
901.189	19887
901.308	19674
901.427	19734
901.546	19609
901.665	19666
901.784	19677
901.904	19556
902.023	19453
902.141	19282
902.26	19171
902.379	19316
902.498	19228
902.617	19152
902.735	19080
902.854	19099
902.973	19080
903.091	18833
903.21	18886
903.328	18878
903.446	18715
903.565	18593
903.683	18620
903.801	18589
903.919	18509
904.038	18608
904.156	18498
904.274	18532
904.392	18388
904.51	18281
904.627	18475
904.745	18414
904.863	18483
904.981	18159
905.098	18072
905.216	18095
905.334	18106
905.451	18087
905.569	18098
905.686	18148
905.803	18026
905.921	17821
906.038	17999
906.155	17794
906.272	17821
906.389	17775
906.506	17665
906.623	17665
906.74	17623
906.857	17524
906.974	17467
907.091	17676
907.208	17703
907.324	17741
907.441	17592
907.557	17356
907.674	17349
907.79	17227
907.907	17360
908.023	17299
908.139	17360
908.256	17288
908.372	17212
908.488	17090
908.604	17094
908.72	17033
908.836	17162
908.952	17067
909.068	17029
909.184	17242
909.3	16984
909.415	17037
909.531	16976
909.647	16721
909.762	16793
909.878	16672
909.993	16904
910.108	16710
910.224	16691
910.339	16713
910.454	16656
910.57	16542
910.685	16508
910.8	16740
910.915	16713
911.03	16634
911.145	16394
911.259	16394
911.374	16455
911.489	16230
911.604	16192
911.718	16143
911.833	16097
911.947	15926
912.062	15949
912.176	16036
912.291	16063
912.405	16067
912.519	16268
912.633	16257
912.748	16116
912.862	15884
912.976	15861
913.09	15812
913.204	15793
913.318	15937
913.431	16002
913.545	15960
913.659	16013
913.772	15873
913.886	15728
914	15663
914.113	15732
914.226	15819
914.34	15671
914.453	15584
914.566	15838
914.68	15534
914.793	15557
914.906	15370
915.019	15310
915.132	15294
915.245	15233
915.358	15203
915.47	15245
915.583	15283
915.696	15298
915.809	15370
915.921	15386
916.034	15302
916.146	15173
916.259	15226
916.371	15310
916.483	15256
916.595	15039
916.708	15108
916.82	15150
916.932	15127
917.044	15116
917.156	15066
917.268	14960
917.38	14975
917.491	14944
917.603	14967
917.715	15043
917.826	14941
917.938	14921
918.049	14750
918.161	14937
918.272	15112
918.384	15077
918.495	14849
918.606	14746
918.717	14587
918.828	14785
918.939	14667
919.05	14594
919.161	14655
919.272	14442
919.383	14556
919.494	14739
919.604	14948
919.715	14731
919.826	14602
919.936	14636
920.047	14701
920.157	14571
920.267	14834
920.378	14583
920.488	14594
920.598	14826
920.708	14937
920.818	14769
920.928	14708
921.038	14952
921.148	14849
921.258	14526
921.368	14526
921.477	14393
921.587	14450
921.697	14214
921.806	14454
921.916	14229
922.025	14096
922.134	14107
922.244	13955
922.353	14081
922.462	13925
922.571	13875
922.68	13685
922.789	13685
922.898	13632
923.007	13597
923.116	13776
923.224	13639
923.333	13628
923.442	13529
923.55	13495
923.659	13506
923.767	13620
923.876	13468
923.984	13559
924.092	13392
924.201	13419
924.309	13392
924.417	13365
924.525	13457
924.633	13369
924.741	14172
924.849	13038
924.956	13320
925.064	13171
925.172	13122
925.279	13122
925.387	13129
925.494	13149
925.602	13339
925.709	13145
925.816	13004
925.924	13042
926.031	13133
926.138	12958
926.245	13046
926.352	12897
926.459	13110
926.566	13126
926.673	12932
926.779	12878
926.886	12829
926.993	12673
927.099	12711
927.206	12604
927.312	12669
927.419	12730
927.525	12589
927.631	12608
927.737	12551
927.843	12566
927.95	12441
928.056	12407
928.162	12475
928.267	12502
928.373	13152
928.479	12433
928.585	12407
928.69	12456
928.796	12467
928.901	12361
929.007	12220
929.112	12338
929.218	12369
929.323	12235
929.428	12247
929.533	12311
929.638	12140
929.743	12186
929.848	12175
929.953	12171
930.058	11996
930.163	11965
930.267	11783
930.372	12083
930.477	11904
930.581	12140
930.685	11954
930.79	11737
930.894	11840
930.998	11722
931.103	11882
931.207	11535
931.311	11379
931.415	11387
931.519	11166
931.623	11174
