Data from test_V78500241_3059.txt Node
Date: Fri Mar 25 15:31:09 CST 2022
User: usil
Spectrometer: V785-0024
Trigger mode: 0
Integration Time (sec): 4.000000E-1
Scans to average: 1
Nonlinearity correction enabled: false
Boxcar width: 0
Storing dark spectrum: false
XAxis mode: Wavelengths
Number of Pixels in Spectrum: 1024
>>>>>Begin Spectral Data<<<<<
801.071	27332
801.214	27226
801.356	27157
801.499	26918
801.641	26743
801.783	26769
801.926	26876
802.068	26800
802.211	26705
802.353	26765
802.496	26457
802.638	26579
802.78	26442
802.923	26309
803.065	26290
803.208	26355
803.35	26473
803.492	26511
803.635	26564
803.777	26427
803.919	26629
804.061	26872
804.204	26556
804.346	26499
804.488	26678
804.63	26552
804.773	26495
804.915	26503
805.057	26727
805.199	26655
805.341	26708
805.483	26781
805.626	26819
805.768	26754
805.91	26773
806.052	26625
806.194	26689
806.336	26845
806.478	26632
806.62	26651
806.762	26670
806.904	26948
807.046	27173
807.188	27127
807.33	27081
807.472	27176
807.614	27169
807.756	27100
807.898	26902
808.04	26811
808.182	26971
808.324	26979
808.465	26944
808.607	27211
808.749	27306
808.891	27431
809.033	27572
809.174	27454
809.316	27393
809.458	27321
809.6	27298
809.741	27336
809.883	27492
810.025	27515
810.166	27454
810.308	27618
810.45	27538
810.591	27519
810.733	27241
810.875	27252
811.016	27135
811.158	27180
811.299	27504
811.441	27389
811.582	27466
811.724	27355
811.865	27317
812.007	27302
812.148	27298
812.29	27252
812.431	27473
812.573	27675
812.714	27603
812.855	27812
812.997	27998
813.138	27911
813.279	27831
813.421	27751
813.562	27618
813.703	27561
813.845	27572
813.986	27123
814.127	27150
814.268	26887
814.41	27009
814.551	26929
814.692	26864
814.833	26861
814.974	26826
815.115	27070
815.256	26823
815.397	26979
815.539	26857
815.68	26602
815.821	26670
815.962	26754
816.103	26545
816.244	26495
816.385	26564
816.526	26465
816.666	26282
816.807	26107
816.948	26142
817.089	26282
817.23	26355
817.371	26183
817.512	26263
817.653	26259
817.793	26130
817.934	26092
818.075	26149
818.216	26244
818.356	26153
818.497	26077
818.638	25879
818.778	25864
818.919	26008
819.06	25955
819.2	26065
819.341	26149
819.481	26259
819.622	26438
819.762	26594
819.903	26511
820.043	26393
820.184	26233
820.324	26298
820.465	26427
820.605	26328
820.746	26419
820.886	26332
821.026	26290
821.167	26107
821.307	26374
821.447	26031
821.588	26096
821.728	26062
821.868	25803
822.008	25643
822.149	25578
822.289	25616
822.429	25438
822.569	25308
822.709	25282
822.849	25164
822.99	25304
823.13	25221
823.27	25118
823.41	25072
823.55	24909
823.69	24916
823.83	24973
823.97	24886
824.11	24711
824.25	24719
824.389	24806
824.529	24875
824.669	24795
824.809	24825
824.949	24928
825.089	24684
825.228	24890
825.368	24608
825.508	24589
825.648	24661
825.787	24688
825.927	24726
826.067	24631
826.206	24574
826.346	24688
826.485	24738
826.625	24692
826.765	24844
826.904	24639
827.044	24426
827.183	24418
827.323	24433
827.462	24479
827.601	24350
827.741	24441
827.88	24372
828.02	24224
828.159	24376
828.298	24399
828.437	24365
828.577	24197
828.716	24475
828.855	24247
828.994	24018
829.134	24228
829.273	24106
829.412	24057
829.551	23961
829.69	24030
829.829	24060
829.968	24232
830.107	24110
830.246	24060
830.385	24091
830.524	23935
830.663	23889
830.802	23832
830.941	23630
831.08	23786
831.219	23901
831.357	23748
831.496	23821
831.635	23630
831.774	23554
831.913	23596
832.051	23474
832.19	23421
832.329	23433
832.467	23356
832.606	23227
832.744	23383
832.883	23193
833.022	23341
833.16	23360
833.299	23486
833.437	23455
833.576	23353
833.714	23311
833.852	23395
833.991	23448
834.129	23505
834.267	23455
834.406	23398
834.544	23524
834.682	23383
834.821	23490
834.959	23615
835.097	23273
835.235	23414
835.373	23364
835.511	23543
835.65	23261
835.788	23330
835.926	23147
836.064	23014
836.202	23052
836.34	23239
836.478	23185
836.615	23296
836.753	23178
836.891	23322
837.029	23109
837.167	23098
837.305	23189
837.443	23128
837.58	23060
837.718	23235
837.856	23113
837.993	22961
838.131	22949
838.269	22965
838.406	23052
838.544	22942
838.681	22740
838.819	22759
838.956	22557
839.094	22531
839.231	22630
839.369	22698
839.506	22908
839.643	22774
839.781	22577
839.918	22542
840.055	22497
840.193	22421
840.33	22455
840.467	22550
840.604	22561
840.742	22820
840.879	22325
841.016	22424
841.153	22333
841.29	22519
841.427	22455
841.564	22409
841.701	22516
841.838	22573
841.975	22360
842.112	22493
842.249	22470
842.385	22265
842.522	22531
842.659	22409
842.796	22223
842.933	22276
843.069	22238
843.206	22135
843.343	22306
843.479	22299
843.616	22257
843.752	22048
843.889	21911
844.025	22261
844.162	21975
844.298	22215
844.435	22051
844.571	21998
844.708	22067
844.844	22280
844.98	22128
845.117	22188
845.253	21983
845.389	21960
845.525	21968
845.661	21854
845.798	21827
845.934	21831
846.07	21743
846.206	21827
846.342	21983
846.478	21816
846.614	21523
846.75	21572
846.886	21420
847.022	21603
847.158	21633
847.294	21488
847.429	21580
847.565	21450
847.701	21751
847.837	21325
847.972	21233
848.108	21264
848.244	21192
848.379	21173
848.515	21146
848.65	21146
848.786	21047
848.921	21142
849.057	21116
849.192	21211
849.328	21207
849.463	21184
849.598	21024
849.734	21047
849.869	20868
850.004	20948
850.14	20895
850.275	20804
850.41	20781
850.545	20887
850.68	20857
850.815	20868
850.95	20769
851.085	21138
851.22	20967
851.355	20891
851.49	20853
851.625	20838
851.76	20788
851.895	20796
852.03	20819
852.165	20773
852.299	20982
852.434	20998
852.569	20845
852.703	20902
852.838	20891
852.973	20948
853.107	20921
853.242	20701
853.376	20754
853.511	20667
853.645	20773
853.78	20823
853.914	20689
854.048	20712
854.183	20864
854.317	20693
854.451	20929
854.585	20708
854.72	20701
854.854	20857
854.988	20613
855.122	20746
855.256	20625
855.39	20701
855.524	20849
855.658	20834
855.792	20815
855.926	20724
856.06	20773
856.194	20796
856.327	20587
856.461	20686
856.595	20518
856.729	20655
856.862	20872
856.996	20735
857.13	20727
857.263	20792
857.397	20758
857.53	20659
857.664	20804
857.797	20697
857.931	20705
858.064	20788
858.197	20769
858.331	20735
858.464	20727
858.597	20670
858.731	20625
858.864	20629
858.997	20663
859.13	20602
859.263	20705
859.396	20834
859.529	20693
859.662	20651
859.795	20705
859.928	20743
860.061	20880
860.194	20918
860.327	20811
860.46	20670
860.592	20750
860.725	20933
860.858	20853
860.99	20735
861.123	20606
861.256	20606
861.388	20712
861.521	21180
861.653	20659
861.786	20484
861.918	20564
862.05	20670
862.183	20640
862.315	20670
862.447	20674
862.58	20587
862.712	20389
862.844	20457
862.976	20473
863.108	20530
863.24	20777
863.372	20412
863.504	20438
863.636	20503
863.768	20454
863.9	20480
864.032	20370
864.164	20400
864.296	20381
864.428	20670
864.559	20617
864.691	20431
864.823	20511
864.954	20454
865.086	20434
865.217	20347
865.349	20267
865.48	20301
865.612	20366
865.743	20503
865.875	20347
866.006	20259
866.137	20461
866.269	20339
866.4	20267
866.531	20358
866.662	20225
866.793	20240
866.924	20199
867.055	20324
867.186	20294
867.317	20218
867.448	20214
867.579	20218
867.71	20229
867.841	20161
867.972	20271
868.103	20313
868.233	20339
868.364	20298
868.495	20229
868.625	20556
868.756	20549
868.886	20404
869.017	20484
869.147	20663
869.278	20663
869.408	20461
869.539	20503
869.669	20590
869.799	20621
869.929	20606
870.06	20735
870.19	20811
870.32	20857
870.45	20864
870.58	20754
870.71	21005
870.84	21058
870.97	20804
871.1	20941
871.23	21138
871.36	21123
871.489	20994
871.619	21062
871.749	21123
871.879	21233
872.008	21237
872.138	21036
872.267	21108
872.397	21043
872.526	20929
872.656	20982
872.785	20941
872.915	21154
873.044	21176
873.173	21135
873.303	21165
873.432	21233
873.561	21291
873.69	21157
873.819	21085
873.948	21203
874.077	21165
874.206	21028
874.335	21116
874.464	21252
874.593	21416
874.722	21298
874.851	21416
874.979	21454
875.108	21428
875.237	21329
875.365	21401
875.494	21351
875.623	21439
875.751	21344
875.88	21317
876.008	21625
876.136	21583
876.265	21865
876.393	21926
876.521	21751
876.65	21819
876.778	21789
876.906	21709
877.034	21713
877.162	21679
877.29	21587
877.418	21728
877.546	21816
877.674	21800
877.802	21808
877.93	21717
878.058	21637
878.185	21591
878.313	21667
878.441	21747
878.568	21534
878.696	21656
878.824	21797
878.951	21880
879.079	21819
879.206	21888
879.333	21911
879.461	21656
879.588	21819
879.715	21949
879.842	21949
879.97	21743
880.097	21519
880.224	21549
880.351	21561
880.478	21633
880.605	21538
880.732	21530
880.859	21793
880.986	21557
881.112	21603
881.239	21481
881.366	21336
881.493	21146
881.619	21146
881.746	21233
881.872	21135
881.999	21161
882.125	21112
882.252	21131
882.378	21188
882.505	21283
882.631	20982
882.757	20765
882.883	20937
883.01	20785
883.136	20754
883.262	20773
883.388	20731
883.514	20777
883.64	20857
883.766	20838
883.892	20731
884.018	20613
884.143	20705
884.269	20769
884.395	20533
884.52	20514
884.646	20522
884.772	20374
884.897	20450
885.023	20454
885.148	20476
885.274	20648
885.399	20651
885.524	20457
885.65	20625
885.775	20461
885.9	20434
886.025	20503
886.15	20594
886.275	20450
886.4	20434
886.525	20240
886.65	20374
886.775	20457
886.9	20659
887.025	20667
887.149	20526
887.274	20400
887.399	20237
887.523	20233
887.648	20202
887.773	20225
887.897	20233
888.021	20278
888.146	20221
888.27	20396
888.395	20294
888.519	20332
888.643	20396
888.767	20317
888.891	20221
889.015	20119
889.139	20062
889.263	20062
889.387	20278
889.511	20298
889.635	20252
889.759	19997
889.883	20111
890.006	20107
890.13	20103
890.254	20024
890.377	19993
890.501	19791
890.624	19811
890.748	19940
890.871	19704
890.995	19662
891.118	19613
891.241	19613
891.364	19647
891.488	19696
891.611	19628
891.734	19620
891.857	19780
891.98	19514
892.103	19681
892.226	19655
892.349	19620
892.471	19457
892.594	19533
892.717	19586
892.839	19537
892.962	19605
893.085	19662
893.207	19662
893.33	19495
893.452	19453
893.575	19495
893.697	19552
893.819	19594
893.941	19696
894.064	19605
894.186	19449
894.308	19514
894.43	19632
894.552	19738
894.674	19575
894.796	19476
894.918	19571
895.04	19438
895.161	19693
895.283	19632
895.405	19445
895.526	19635
895.648	19480
895.769	19616
895.891	19624
896.012	19647
896.134	19575
896.255	19567
896.376	19571
896.498	19510
896.619	19635
896.74	19658
896.861	19628
896.982	19974
897.103	19989
897.224	19738
897.345	19715
897.466	19681
897.587	19681
897.708	19795
897.828	19875
897.949	19731
898.07	19708
898.19	19700
898.311	19826
898.431	19746
898.552	19906
898.672	19856
898.792	19708
898.913	19799
899.033	19712
899.153	19677
899.273	19537
899.393	19571
899.513	19480
899.633	19449
899.753	19578
899.873	19464
899.993	19563
900.113	19480
900.232	19620
900.352	19544
900.472	19293
900.591	19400
900.711	19369
900.83	19217
900.95	19358
901.069	19502
901.189	19282
901.308	19023
901.427	18996
901.546	18886
901.665	18973
901.784	18791
901.904	18856
902.023	18844
902.141	18479
902.26	18452
902.379	18574
902.498	18388
902.617	18517
902.735	18540
902.854	18376
902.973	18388
903.091	18106
903.21	18114
903.328	18163
903.446	18140
903.565	17836
903.683	17996
903.801	17813
903.919	17870
904.038	17863
904.156	17665
904.274	17847
904.392	17646
904.51	17608
904.627	17695
904.745	17722
904.863	17786
904.981	17490
905.098	17402
905.216	17398
905.334	17528
905.451	17379
905.569	17326
905.686	17471
905.803	17372
905.921	17121
906.038	17208
906.155	17231
906.272	17041
906.389	17022
906.506	16892
906.623	16889
906.74	16900
906.857	16767
906.974	16828
907.091	17067
907.208	17003
907.324	16869
907.441	16767
907.557	16622
907.674	16641
907.79	16596
907.907	16611
908.023	16672
908.139	16706
908.256	16580
908.372	16565
908.488	16634
908.604	16325
908.72	16291
908.836	16447
908.952	16402
909.068	16451
909.184	16348
909.3	16443
909.415	16344
909.531	16367
909.647	16078
909.762	16067
909.878	16063
909.993	16059
910.108	15964
910.224	15994
910.339	16021
910.454	15991
910.57	15968
910.685	15800
910.8	16105
910.915	15907
911.03	15876
911.145	15736
911.259	15667
911.374	15759
911.489	15599
911.604	15481
911.718	15466
911.833	15443
911.947	15370
912.062	15249
912.176	15420
912.291	15500
912.405	15416
912.519	15690
912.633	15671
912.748	15447
912.862	15435
912.976	15222
913.09	15260
913.204	15169
913.318	15283
913.431	15279
913.545	15378
913.659	15355
913.772	15154
913.886	15051
914	15161
914.113	15097
914.226	15165
914.34	15074
914.453	14891
914.566	15066
914.68	14872
914.793	14963
914.906	14712
915.019	14648
915.132	14541
915.245	14667
915.358	14781
915.47	14724
915.583	14712
915.696	14667
915.809	14781
915.921	14845
916.034	14579
916.146	14556
916.259	14564
916.371	14655
916.483	14568
916.595	14549
916.708	14514
916.82	14579
916.932	14526
917.044	14381
917.156	14419
917.268	14286
917.38	14336
917.491	14275
917.603	14332
917.715	14404
917.826	14457
917.938	14278
918.049	14320
918.161	14233
918.272	14454
918.384	14377
918.495	14294
918.606	14081
918.717	14103
918.828	14050
918.939	14164
919.05	14020
919.161	14138
919.272	13917
919.383	13982
919.494	14172
919.604	14278
919.715	14058
919.826	13932
919.936	14134
920.047	14271
920.157	14138
920.267	14225
920.378	14024
920.488	14012
920.598	14275
920.708	14328
920.818	14126
920.928	14168
921.038	14347
921.148	14317
921.258	14062
921.368	13940
921.477	13890
921.587	13871
921.697	13727
921.806	13830
921.916	13681
922.025	13586
922.134	13468
922.244	13441
922.353	13582
922.462	13381
922.571	13270
922.68	13244
922.789	13065
922.898	13168
923.007	13171
923.116	13221
923.224	13103
923.333	13141
923.442	13034
923.55	12985
923.659	12973
923.767	13004
923.876	12859
923.984	12989
924.092	12833
924.201	12920
924.309	12928
924.417	12966
924.525	12776
924.633	12882
924.741	13753
924.849	12540
924.956	12734
925.064	12608
925.172	12547
925.279	12593
925.387	12616
925.494	12593
925.602	12734
925.709	12650
925.816	12426
925.924	12559
926.031	12578
926.138	12506
926.245	12574
926.352	12350
926.459	12559
926.566	12623
926.673	12395
926.779	12414
926.886	12277
926.993	12224
927.099	12140
927.206	12163
927.312	12076
927.419	12121
927.525	12152
927.631	12194
927.737	12049
927.843	11973
927.95	11920
928.056	12015
928.162	11988
928.267	11961
928.373	12604
928.479	12057
928.585	11851
928.69	11996
928.796	11908
928.901	11920
929.007	11729
929.112	11866
929.218	11882
929.323	11733
929.428	11600
929.533	11802
929.638	11695
929.743	11676
929.848	11726
929.953	11661
930.058	11512
930.163	11379
930.267	11414
930.372	11436
930.477	11402
930.581	11570
930.685	11425
930.79	11223
930.894	11414
930.998	11315
931.103	11395
931.207	11094
931.311	11029
931.415	10953
931.519	10744
931.623	10717
