Data from test_V78500241_2088.txt Node
Date: Fri Mar 25 15:24:23 CST 2022
User: usil
Spectrometer: V785-0024
Trigger mode: 0
Integration Time (sec): 4.000000E-1
Scans to average: 1
Nonlinearity correction enabled: false
Boxcar width: 0
Storing dark spectrum: false
XAxis mode: Wavelengths
Number of Pixels in Spectrum: 1024
>>>>>Begin Spectral Data<<<<<
801.071	27774
801.214	27827
801.356	27412
801.499	27557
801.641	27412
801.783	27374
801.926	27367
802.068	27408
802.211	27325
802.353	27245
802.496	27085
802.638	27100
802.78	27028
802.923	27009
803.065	26914
803.208	26979
803.35	27047
803.492	27070
803.635	27150
803.777	27176
803.919	27214
804.061	27568
804.204	27317
804.346	27188
804.488	27051
804.63	27154
804.773	27017
804.915	27199
805.057	27184
805.199	27146
805.341	27252
805.483	27313
805.626	27325
805.768	27287
805.91	27294
806.052	27302
806.194	27230
806.336	27469
806.478	27473
806.62	27348
806.762	27405
806.904	27698
807.046	27861
807.188	27641
807.33	27705
807.472	27774
807.614	27534
807.756	27770
807.898	27648
808.04	27663
808.182	27534
808.324	27686
808.465	27599
808.607	27903
808.749	27998
808.891	28128
809.033	28139
809.174	28006
809.316	27831
809.458	27937
809.6	27926
809.741	28101
809.883	28067
810.025	28188
810.166	28249
810.308	28162
810.45	28181
810.591	28006
810.733	28139
810.875	27968
811.016	27785
811.158	27895
811.299	27979
811.441	28143
811.582	28048
811.724	28002
811.865	27861
812.007	27831
812.148	27842
812.29	27953
812.431	28226
812.573	28352
812.714	28363
812.855	28352
812.997	28478
813.138	28721
813.279	28630
813.421	28535
813.562	28367
813.703	28291
813.845	28238
813.986	27876
814.127	27793
814.268	27675
814.41	27682
814.551	27648
814.692	27686
814.833	27542
814.974	27724
815.115	27648
815.256	27549
815.397	27564
815.539	27545
815.68	27374
815.821	27340
815.962	27511
816.103	27431
816.244	27325
816.385	27230
816.526	27241
816.666	27081
816.807	26891
816.948	26918
817.089	26876
817.23	26933
817.371	26895
817.512	27024
817.653	26895
817.793	26864
817.934	26868
818.075	26864
818.216	26872
818.356	26895
818.497	26895
818.638	26632
818.778	26686
818.919	26689
819.06	26750
819.2	26849
819.341	26861
819.481	26823
819.622	27005
819.762	27294
819.903	27131
820.043	27138
820.184	26979
820.324	26933
820.465	27058
820.605	26891
820.746	27013
820.886	26960
821.026	26914
821.167	27150
821.307	26956
821.447	26910
821.588	26864
821.728	26651
821.868	26552
822.008	26560
822.149	26389
822.289	26210
822.429	26073
822.569	26202
822.709	25966
822.849	25852
822.99	25742
823.13	25852
823.27	25890
823.41	25746
823.55	25578
823.69	25708
823.83	25734
823.97	25746
824.11	25567
824.25	25388
824.389	25548
824.529	25677
824.669	25518
824.809	25613
824.949	25544
825.089	25601
825.228	25544
825.368	25346
825.508	25457
825.648	25247
825.787	25384
825.927	25487
826.067	25316
826.206	25453
826.346	25499
826.485	25468
826.625	25396
826.765	25544
826.904	25426
827.044	25198
827.183	25042
827.323	25061
827.462	25084
827.601	25061
827.741	25206
827.88	25175
828.02	25008
828.159	25232
828.298	25114
828.437	25225
828.577	25160
828.716	25183
828.855	25099
828.994	24814
829.134	24833
829.273	24928
829.412	24768
829.551	24821
829.69	24779
829.829	24901
829.968	24867
830.107	24810
830.246	24787
830.385	24726
830.524	24810
830.663	24521
830.802	24456
830.941	24456
831.08	24357
831.219	24441
831.357	24509
831.496	24627
831.635	24376
831.774	24365
831.913	24376
832.051	24235
832.19	24209
832.329	24251
832.467	24117
832.606	23961
832.744	24026
832.883	24129
833.022	24026
833.16	24144
833.299	24106
833.437	24201
833.576	24216
833.714	24114
833.852	24174
833.991	24201
834.129	24216
834.267	24228
834.406	24220
834.544	24163
834.682	24136
834.821	24098
834.959	24342
835.097	24095
835.235	24243
835.373	24068
835.511	24049
835.65	23908
835.788	24091
835.926	23904
836.064	23863
836.202	23817
836.34	24015
836.478	24053
836.615	23999
836.753	23961
836.891	23988
837.029	23958
837.167	23897
837.305	23836
837.443	23824
837.58	23760
837.718	23969
837.856	23786
837.993	23809
838.131	23767
838.269	23672
838.406	23756
838.544	23729
838.681	23478
838.819	23520
838.956	23109
839.094	23242
839.231	23326
839.369	23516
839.506	23619
839.643	23425
839.781	23296
839.918	23258
840.055	23292
840.193	23284
840.33	23223
840.467	23147
840.604	23227
840.742	23547
840.879	23037
841.016	23090
841.153	23166
841.29	23296
841.427	23311
841.564	23189
841.701	23193
841.838	23041
841.975	23037
842.112	23014
842.249	22938
842.385	23041
842.522	23197
842.659	23067
842.796	23006
842.933	22942
843.069	22972
843.206	22953
843.343	23029
843.479	23029
843.616	23098
843.752	22698
843.889	22744
844.025	22904
844.162	22778
844.298	22793
844.435	22637
844.571	22740
844.708	22664
844.844	22980
844.98	22850
845.117	22889
845.253	22641
845.389	22637
845.525	22596
845.661	22656
845.798	22485
845.934	22516
846.07	22493
846.206	22504
846.342	22588
846.478	22344
846.614	22265
846.75	22070
846.886	22162
847.022	22268
847.158	22265
847.294	22226
847.429	22398
847.565	22200
847.701	22470
847.837	22029
847.972	21888
848.108	22010
848.244	21892
848.379	21854
848.515	21789
848.65	21808
848.786	21804
848.921	21751
849.057	21903
849.192	21979
849.328	21895
849.463	21762
849.598	21686
849.734	21736
849.869	21629
850.004	21705
850.14	21443
850.275	21648
850.41	21526
850.545	21568
850.68	21545
850.815	21534
850.95	21378
851.085	21568
851.22	21633
851.355	21644
851.49	21481
851.625	21572
851.76	21469
851.895	21359
852.03	21496
852.165	21549
852.299	21580
852.434	21622
852.569	21580
852.703	21557
852.838	21564
852.973	21648
853.107	21587
853.242	21450
853.376	21363
853.511	21401
853.645	21302
853.78	21515
853.914	21351
854.048	21279
854.183	21332
854.317	21321
854.451	21485
854.585	21393
854.72	21412
854.854	21416
854.988	21363
855.122	21492
855.256	21321
855.39	21359
855.524	21382
855.658	21462
855.792	21435
855.926	21294
856.06	21530
856.194	21424
856.327	21374
856.461	21355
856.595	21370
856.729	21264
856.862	21359
856.996	21367
857.13	21420
857.263	21363
857.397	21564
857.53	21431
857.664	21325
857.797	21488
857.931	21507
858.064	21405
858.197	21485
858.331	21355
858.464	21321
858.597	21359
858.731	21458
858.864	21405
858.997	21275
859.13	21287
859.263	21462
859.396	21447
859.529	21401
859.662	21389
859.795	21222
859.928	21485
860.061	21473
860.194	21549
860.327	21477
860.46	21294
860.592	21507
860.725	21473
860.858	21534
860.99	21374
861.123	21260
861.256	21306
861.388	21287
861.521	22116
861.653	21283
861.786	21272
861.918	21264
862.05	21344
862.183	21188
862.315	21325
862.447	21378
862.58	21298
862.712	21039
862.844	21150
862.976	21169
863.108	21173
863.24	21401
863.372	20982
863.504	21062
863.636	21013
863.768	21123
863.9	21085
864.032	21020
864.164	21081
864.296	21070
864.428	21161
864.559	21108
864.691	21222
864.823	21104
864.954	21116
865.086	21165
865.217	20944
865.349	20994
865.48	20948
865.612	20887
865.743	21150
865.875	20921
866.006	20937
866.137	21017
866.269	20891
866.4	20948
866.531	20910
866.662	20845
866.793	20933
866.924	21036
867.055	20933
867.186	20880
867.317	20899
867.448	20849
867.579	20823
867.71	20762
867.841	20804
867.972	20986
868.103	20906
868.233	20902
868.364	20960
868.495	20952
868.625	21241
868.756	21176
868.886	21116
869.017	21131
869.147	21230
869.278	21233
869.408	21260
869.539	20956
869.669	21214
869.799	21203
869.929	21348
870.06	21252
870.19	21572
870.32	21496
870.45	21424
870.58	21485
870.71	21644
870.84	21644
870.97	21576
871.1	21542
871.23	21762
871.36	21644
871.489	21690
871.619	21739
871.749	21759
871.879	21671
872.008	21842
872.138	21785
872.267	21766
872.397	21618
872.526	21614
872.656	21587
872.785	21629
872.915	21717
873.044	21876
873.173	21705
873.303	21812
873.432	21857
873.561	21838
873.69	21804
873.819	21667
873.948	21770
874.077	21591
874.206	21724
874.335	21690
874.464	21793
874.593	22021
874.722	21907
874.851	21972
874.979	22051
875.108	21937
875.237	21907
875.365	21983
875.494	21884
875.623	22017
875.751	21968
875.88	22006
876.008	22074
876.136	22120
876.265	22500
876.393	22474
876.521	22550
876.65	22481
876.778	22329
876.906	22363
877.034	22295
877.162	22379
877.29	22272
877.418	22287
877.546	22382
877.674	22257
877.802	22341
877.93	22318
878.058	22337
878.185	22230
878.313	22325
878.441	22257
878.568	22116
878.696	22257
878.824	22284
878.951	22371
879.079	22569
879.206	22546
879.333	22622
879.461	22371
879.588	22363
879.715	22504
879.842	22573
879.97	22440
880.097	22181
880.224	22219
880.351	22249
880.478	22207
880.605	22120
880.732	22230
880.859	22363
880.986	22192
881.112	22128
881.239	21956
881.366	21987
881.493	21732
881.619	21755
881.746	21736
881.872	21739
881.999	21656
882.125	21595
882.252	21789
882.378	21747
882.505	21690
882.631	21614
882.757	21485
882.883	21622
883.01	21443
883.136	21332
883.262	21298
883.388	21218
883.514	21477
883.64	21568
883.766	21283
883.892	21218
884.018	21245
884.143	21393
884.269	21408
884.395	21138
884.52	21112
884.646	21116
884.772	21020
884.897	20990
885.023	21074
885.148	21127
885.274	21146
885.399	21024
885.524	21081
885.65	21081
885.775	21135
885.9	21070
886.025	21173
886.15	21119
886.275	21070
886.4	20819
886.525	20941
886.65	21001
886.775	21020
886.9	21279
887.025	21169
887.149	21051
887.274	20902
887.399	20788
887.523	20781
887.648	20765
887.773	20773
887.897	20998
888.021	20834
888.146	20781
888.27	20937
888.395	20944
888.519	20823
888.643	20842
888.767	20941
888.891	20762
889.015	20720
889.139	20781
889.263	20575
889.387	20686
889.511	20914
889.635	20815
889.759	20587
889.883	20602
890.006	20735
890.13	20625
890.254	20461
890.377	20571
890.501	20336
890.624	20298
890.748	20377
890.871	20202
890.995	20298
891.118	20130
891.241	20176
891.364	20214
891.488	20412
891.611	20366
891.734	20240
891.857	20332
891.98	20225
892.103	20256
892.226	20221
892.349	20149
892.471	19982
892.594	20103
892.717	20130
892.839	20054
892.962	20225
893.085	20195
893.207	20024
893.33	20092
893.452	20058
893.575	20027
893.697	20100
893.819	20202
893.941	20153
894.064	20275
894.186	20096
894.308	20027
894.43	20142
894.552	20240
894.674	20164
894.796	19925
894.918	20130
895.04	20142
895.161	20050
895.283	20138
895.405	20035
895.526	20225
895.648	20058
895.769	20092
895.891	20157
896.012	20259
896.134	20176
896.255	20221
896.376	20005
896.498	20069
896.619	20126
896.74	20016
896.861	20122
896.982	20305
897.103	20514
897.224	20248
897.345	20355
897.466	20332
897.587	20343
897.708	20412
897.828	20389
897.949	20206
898.07	20130
898.19	20221
898.311	20408
898.431	20309
898.552	20374
898.672	20400
898.792	20480
898.913	20240
899.033	20271
899.153	20221
899.273	20073
899.393	20100
899.513	20172
899.633	19997
899.753	20092
899.873	19986
899.993	20115
900.113	19997
900.232	19974
900.352	19887
900.472	19898
900.591	19852
900.711	19871
900.83	19769
900.95	19860
901.069	19890
901.189	19681
901.308	19559
901.427	19381
901.546	19468
901.665	19441
901.784	19506
901.904	19282
902.023	19145
902.141	19084
902.26	18958
902.379	19034
902.498	18863
902.617	18802
902.735	18916
902.854	18886
902.973	18806
903.091	18631
903.21	18692
903.328	18547
903.446	18414
903.565	18448
903.683	18475
903.801	18232
903.919	18410
904.038	18361
904.156	18296
904.274	18194
904.392	18235
904.51	18129
904.627	18201
904.745	18194
904.863	18254
904.981	17897
905.098	17813
905.216	17950
905.334	17954
905.451	17847
905.569	17897
905.686	17916
905.803	17832
905.921	17691
906.038	17767
906.155	17691
906.272	17490
906.389	17543
906.506	17414
906.623	17391
906.74	17395
906.857	17242
906.974	17292
907.091	17463
907.208	17433
907.324	17368
907.441	17265
907.557	17121
907.674	17136
907.79	17159
907.907	17075
908.023	17162
908.139	17151
908.256	16953
908.372	16972
908.488	16930
908.604	16938
908.72	16752
908.836	16896
908.952	16767
909.068	16793
909.184	16984
909.3	16847
909.415	16885
909.531	16816
909.647	16565
909.762	16573
909.878	16565
909.993	16508
910.108	16588
910.224	16516
910.339	16580
910.454	16474
910.57	16352
910.685	16268
910.8	16580
910.915	16440
911.03	16284
911.145	16112
911.259	16147
911.374	16074
911.489	16105
911.604	15987
911.718	15869
911.833	15861
911.947	15682
912.062	15629
912.176	15884
912.291	15797
912.405	15660
912.519	15991
912.633	16010
912.748	16048
912.862	15739
912.976	15622
913.09	15648
913.204	15595
913.318	15739
913.431	15789
913.545	15774
913.659	15865
913.772	15591
913.886	15469
914	15374
914.113	15637
914.226	15549
914.34	15545
914.453	15386
914.566	15507
914.68	15336
914.793	15317
914.906	15173
915.019	15058
915.132	15062
915.245	15051
915.358	15074
915.47	15192
915.583	15028
915.696	15116
915.809	15188
915.921	15127
916.034	15066
916.146	15001
916.259	15009
916.371	15119
916.483	15104
916.595	14933
916.708	14864
916.82	14899
916.932	14857
917.044	14864
917.156	14826
917.268	14701
917.38	14758
917.491	14689
917.603	14743
917.715	14929
917.826	14891
917.938	14731
918.049	14541
918.161	14651
918.272	14712
918.384	14838
918.495	14670
918.606	14549
918.717	14484
918.828	14632
918.939	14552
919.05	14454
919.161	14427
919.272	14347
919.383	14343
919.494	14575
919.604	14629
919.715	14473
919.826	14336
919.936	14492
920.047	14594
920.157	14419
920.267	14575
920.378	14503
920.488	14514
920.598	14629
920.708	14693
920.818	14571
920.928	14575
921.038	14735
921.148	14701
921.258	14400
921.368	14492
921.477	14298
921.587	14153
921.697	14050
921.806	14225
921.916	14123
922.025	13906
922.134	13928
922.244	13833
922.353	13902
922.462	13765
922.571	13723
922.68	13559
922.789	13609
922.898	13571
923.007	13529
923.116	13575
923.224	13548
923.333	13521
923.442	13472
923.55	13331
923.659	13304
923.767	13407
923.876	13362
923.984	13407
924.092	13301
924.201	13285
924.309	13240
924.417	13339
924.525	13152
924.633	13263
924.741	13978
924.849	12954
924.956	13126
925.064	13076
925.172	12935
925.279	13000
925.387	12909
925.494	12935
925.602	12951
925.709	13050
925.816	12745
925.924	12943
926.031	12909
926.138	12772
926.245	13031
926.352	12844
926.459	12973
926.566	12958
926.673	12791
926.779	12741
926.886	12798
926.993	12585
927.099	12471
927.206	12467
927.312	12445
927.419	12616
927.525	12509
927.631	12536
927.737	12437
927.843	12410
927.95	12220
928.056	12414
928.162	12342
928.267	12479
928.373	12993
928.479	12319
928.585	12087
928.69	12311
928.796	12300
928.901	12308
929.007	12125
929.112	12159
929.218	12068
929.323	12125
929.428	12079
929.533	12186
929.638	11999
929.743	11999
929.848	12091
929.953	12022
930.058	11927
930.163	11878
930.267	11813
930.372	11870
930.477	11767
930.581	11969
930.685	11878
930.79	11619
930.894	11592
930.998	11600
931.103	11741
931.207	11387
931.311	11292
931.415	11204
931.519	11037
931.623	11075
