Data from test_V78500241_160.txt Node
Date: Fri Mar 25 15:10:58 CST 2022
User: usil
Spectrometer: V785-0024
Trigger mode: 0
Integration Time (sec): 4.000000E-1
Scans to average: 1
Nonlinearity correction enabled: false
Boxcar width: 0
Storing dark spectrum: false
XAxis mode: Wavelengths
Number of Pixels in Spectrum: 1024
>>>>>Begin Spectral Data<<<<<
801.071	27903
801.214	27937
801.356	27759
801.499	27663
801.641	27507
801.783	27599
801.926	27492
802.068	27469
802.211	27283
802.353	27473
802.496	27131
802.638	27222
802.78	27096
802.923	27062
803.065	26971
803.208	27032
803.35	26979
803.492	27272
803.635	27199
803.777	27123
803.919	27279
804.061	27462
804.204	27310
804.346	27127
804.488	27138
804.63	26971
804.773	27062
804.915	27203
805.057	27329
805.199	27173
805.341	27332
805.483	27344
805.626	27260
805.768	27237
805.91	27214
806.052	27378
806.194	27218
806.336	27435
806.478	27211
806.62	27249
806.762	27378
806.904	27538
807.046	27641
807.188	27610
807.33	27694
807.472	27724
807.614	27572
807.756	27622
807.898	27538
808.04	27370
808.182	27477
808.324	27473
808.465	27660
808.607	27641
808.749	27717
808.891	27835
809.033	28032
809.174	27991
809.316	27739
809.458	27823
809.6	27884
809.741	27991
809.883	28013
810.025	28017
810.166	27994
810.308	28029
810.45	27914
810.591	27987
810.733	27861
810.875	27690
811.016	27572
811.158	27656
811.299	27755
811.441	27873
811.582	27728
811.724	27781
811.865	27641
812.007	27690
812.148	27641
812.29	27739
812.431	27804
812.573	28074
812.714	28070
812.855	28249
812.997	28166
813.138	28379
813.279	28268
813.421	28284
813.562	28234
813.703	28139
813.845	27926
813.986	27819
814.127	27393
814.268	27420
814.41	27427
814.551	27439
814.692	27450
814.833	27249
814.974	27268
815.115	27401
815.256	27195
815.397	27298
815.539	27077
815.68	26979
815.821	27047
815.962	27146
816.103	27150
816.244	26887
816.385	26792
816.526	26781
816.666	26667
816.807	26541
816.948	26587
817.089	26621
817.23	26526
817.371	26492
817.512	26587
817.653	26484
817.793	26431
817.934	26389
818.075	26461
818.216	26408
818.356	26457
818.497	26358
818.638	26161
818.778	26225
818.919	26187
819.06	26164
819.2	26358
819.341	26404
819.481	26408
819.622	26530
819.762	26758
819.903	26667
820.043	26644
820.184	26674
820.324	26571
820.465	26476
820.605	26644
820.746	26484
820.886	26385
821.026	26522
821.167	26453
821.307	26541
821.447	26393
821.588	26301
821.728	26195
821.868	25982
822.008	26001
822.149	25925
822.289	25932
822.429	25651
822.569	25811
822.709	25578
822.849	25434
822.99	25362
823.13	25438
823.27	25453
823.41	25126
823.55	25202
823.69	25206
823.83	25225
823.97	25107
824.11	25012
824.25	24977
824.389	25046
824.529	24989
824.669	24996
824.809	25065
824.949	25126
825.089	25069
825.228	24939
825.368	24772
825.508	24829
825.648	24734
825.787	24905
825.927	24768
826.067	24715
826.206	24802
826.346	24894
826.485	24757
826.625	24760
826.765	24863
826.904	24897
827.044	24646
827.183	24509
827.323	24563
827.462	24551
827.601	24361
827.741	24460
827.88	24308
828.02	24437
828.159	24532
828.298	24490
828.437	24544
828.577	24414
828.716	24494
828.855	24410
828.994	24232
829.134	24232
829.273	24182
829.412	24110
829.551	24057
829.69	24194
829.829	24163
829.968	24159
830.107	24296
830.246	24064
830.385	24068
830.524	24053
830.663	23931
830.802	23855
830.941	23733
831.08	23627
831.219	23809
831.357	23805
831.496	23973
831.635	23703
831.774	23726
831.913	23600
832.051	23531
832.19	23391
832.329	23520
832.467	23330
832.606	23337
832.744	23398
832.883	23417
833.022	23303
833.16	23383
833.299	23452
833.437	23334
833.576	23429
833.714	23387
833.852	23478
833.991	23391
834.129	23547
834.267	23360
834.406	23433
834.544	23417
834.682	23444
834.821	23467
834.959	23505
835.097	23318
835.235	23547
835.373	23429
835.511	23326
835.65	23284
835.788	23216
835.926	23124
836.064	23003
836.202	23060
836.34	23296
836.478	23383
836.615	23193
836.753	23178
836.891	23284
837.029	23147
837.167	23113
837.305	23147
837.443	23155
837.58	23083
837.718	23269
837.856	23064
837.993	23025
838.131	23037
838.269	22942
838.406	22976
838.544	22809
838.681	22710
838.819	22634
838.956	22546
839.094	22523
839.231	22577
839.369	22634
839.506	22934
839.643	22820
839.781	22588
839.918	22466
840.055	22565
840.193	22478
840.33	22428
840.467	22394
840.604	22390
840.742	22675
840.879	22299
841.016	22382
841.153	22310
841.29	22527
841.427	22428
841.564	22508
841.701	22443
841.838	22360
841.975	22382
842.112	22356
842.249	22238
842.385	22131
842.522	22325
842.659	22234
842.796	22150
842.933	22173
843.069	22150
843.206	22150
843.343	22234
843.479	22341
843.616	21987
843.752	21857
843.889	21926
844.025	22082
844.162	21861
844.298	22025
844.435	21937
844.571	21854
844.708	21884
844.844	22074
844.98	22040
845.117	22021
845.253	21785
845.389	21789
845.525	21873
845.661	21793
845.798	21466
845.934	21583
846.07	21561
846.206	21785
846.342	21663
846.478	21523
846.614	21481
846.75	21359
846.886	21408
847.022	21439
847.158	21416
847.294	21294
847.429	21408
847.565	21428
847.701	21660
847.837	21104
847.972	21020
848.108	21226
848.244	21146
848.379	20971
848.515	20975
848.65	20823
848.786	20967
848.921	21005
849.057	21070
849.192	20994
849.328	20986
849.463	20967
849.598	20956
849.734	20796
849.869	20773
850.004	20636
850.14	20777
850.275	20583
850.41	20495
850.545	20625
850.68	20537
850.815	20762
850.95	20678
851.085	20819
851.22	20758
851.355	20712
851.49	20705
851.625	20541
851.76	20655
851.895	20541
852.03	20602
852.165	20617
852.299	20655
852.434	20663
852.569	20754
852.703	20644
852.838	20659
852.973	20716
853.107	20705
853.242	20655
853.376	20625
853.511	20484
853.645	20324
853.78	20552
853.914	20518
854.048	20503
854.183	20396
854.317	20419
854.451	20575
854.585	20480
854.72	20541
854.854	20514
854.988	20339
855.122	20488
855.256	20248
855.39	20507
855.524	20545
855.658	20587
855.792	20568
855.926	20568
856.06	20412
856.194	20533
856.327	20518
856.461	20385
856.595	20427
856.729	20423
856.862	20480
856.996	20533
857.13	20537
857.263	20530
857.397	20579
857.53	20374
857.664	20514
857.797	20469
857.931	20579
858.064	20434
858.197	20556
858.331	20396
858.464	20332
858.597	20305
858.731	20393
858.864	20381
858.997	20347
859.13	20419
859.263	20377
859.396	20476
859.529	20484
859.662	20419
859.795	20317
859.928	20541
860.061	20556
860.194	20488
860.327	20423
860.46	20366
860.592	20549
860.725	20606
860.858	20632
860.99	20400
861.123	20450
861.256	20450
861.388	20317
861.521	21138
861.653	20385
861.786	20218
861.918	20244
862.05	20377
862.183	20370
862.315	20446
862.447	20446
862.58	20465
862.712	20202
862.844	20119
862.976	20298
863.108	20115
863.24	20465
863.372	20103
863.504	20130
863.636	20138
863.768	20142
863.9	20126
864.032	20031
864.164	20191
864.296	20142
864.428	20233
864.559	20065
864.691	20119
864.823	20221
864.954	20119
865.086	20077
865.217	20027
865.349	19845
865.48	20084
865.612	20084
865.743	20225
865.875	20020
866.006	19963
866.137	20043
866.269	19982
866.4	20016
866.531	19811
866.662	19963
866.793	19951
866.924	19917
867.055	20058
867.186	20043
867.317	19906
867.448	19769
867.579	19963
867.71	19913
867.841	19993
867.972	19917
868.103	19921
868.233	19951
868.364	19913
868.495	20073
868.625	20126
868.756	20309
868.886	20183
869.017	20183
869.147	20214
869.278	20218
869.408	20229
869.539	20275
869.669	20202
869.799	20275
869.929	20256
870.06	20313
870.19	20450
870.32	20473
870.45	20518
870.58	20511
870.71	20708
870.84	20678
870.97	20621
871.1	20571
871.23	20693
871.36	20819
871.489	20678
871.619	20746
871.749	20731
871.879	20815
872.008	20906
872.138	20762
872.267	20845
872.397	20731
872.526	20518
872.656	20594
872.785	20655
872.915	20811
873.044	20845
873.173	20895
873.303	20819
873.432	20834
873.561	20914
873.69	20868
873.819	20746
873.948	20960
874.077	20921
874.206	20746
874.335	20861
874.464	20960
874.593	21169
874.722	21001
874.851	21135
874.979	21173
875.108	21055
875.237	20963
875.365	20982
875.494	21036
875.623	21047
875.751	21032
875.88	21066
876.008	21329
876.136	21313
876.265	21382
876.393	21656
876.521	21568
876.65	21443
876.778	21469
876.906	21325
877.034	21439
877.162	21367
877.29	21313
877.418	21340
877.546	21348
877.674	21378
877.802	21420
877.93	21382
878.058	21329
878.185	21260
878.313	21317
878.441	21386
878.568	21275
878.696	21310
878.824	21447
878.951	21355
879.079	21507
879.206	21595
879.333	21473
879.461	21363
879.588	21507
879.715	21595
879.842	21652
879.97	21386
880.097	21180
880.224	21108
880.351	21230
880.478	21313
880.605	21188
880.732	21245
880.859	21462
880.986	21275
881.112	21283
881.239	21119
881.366	20948
881.493	20895
881.619	20864
881.746	20838
881.872	20857
881.999	20864
882.125	20758
882.252	20849
882.378	20773
882.505	20918
882.631	20648
882.757	20625
882.883	20621
883.01	20613
883.136	20461
883.262	20431
883.388	20385
883.514	20469
883.64	20564
883.766	20450
883.892	20355
884.018	20415
884.143	20560
884.269	20712
884.395	20199
884.52	20229
884.646	20202
884.772	20046
884.897	20069
885.023	20259
885.148	20290
885.274	20313
885.399	20191
885.524	20142
885.65	20195
885.775	20286
885.9	20157
886.025	20374
886.15	20366
886.275	20107
886.4	20005
886.525	20126
886.65	20126
886.775	20130
886.9	20218
887.025	20362
887.149	20180
887.274	19989
887.399	19921
887.523	19944
887.648	19993
887.773	19845
887.897	19967
888.021	20073
888.146	19822
888.27	20016
888.395	20050
888.519	19944
888.643	19997
888.767	19864
888.891	19849
889.015	19696
889.139	19780
889.263	19753
889.387	19898
889.511	19913
889.635	19849
889.759	19723
889.883	19753
890.006	19689
890.13	19894
890.254	19639
890.377	19723
890.501	19460
890.624	19457
890.748	19575
890.871	19495
890.995	19312
891.118	19282
891.241	19301
891.364	19381
891.488	19499
891.611	19297
891.734	19464
891.857	19335
891.98	19308
892.103	19403
892.226	19308
892.349	19278
892.471	19187
892.594	19381
892.717	19308
892.839	19263
892.962	19339
893.085	19407
893.207	19198
893.33	19122
893.452	19213
893.575	19354
893.697	19156
893.819	19358
893.941	19525
894.064	19373
894.186	19266
894.308	19168
894.43	19381
894.552	19434
894.674	19312
894.796	19148
894.918	19266
895.04	19289
895.161	19346
895.283	19358
895.405	19160
895.526	19320
895.648	19251
895.769	19263
895.891	19190
896.012	19244
896.134	19320
896.255	19365
896.376	19339
896.498	19308
896.619	19384
896.74	19308
896.861	19316
896.982	19635
897.103	19769
897.224	19548
897.345	19430
897.466	19495
897.587	19548
897.708	19601
897.828	19487
897.949	19552
898.07	19430
898.19	19430
898.311	19620
898.431	19384
898.552	19499
898.672	19529
898.792	19586
898.913	19556
899.033	19316
899.153	19304
899.273	19232
899.393	19118
899.513	19202
899.633	19145
899.753	19221
899.873	19133
899.993	19126
900.113	19091
900.232	19164
900.352	19240
900.472	19202
900.591	18958
900.711	18981
900.83	19012
900.95	19088
901.069	19133
901.189	18913
901.308	18688
901.427	18597
901.546	18654
901.665	18574
901.784	18681
901.904	18471
902.023	18464
902.141	18270
902.26	18194
902.379	18171
902.498	18235
902.617	18068
902.735	18296
902.854	18095
902.973	18007
903.091	17798
903.21	17821
903.328	17840
903.446	17798
903.565	17627
903.683	17699
903.801	17478
903.919	17558
904.038	17528
904.156	17349
904.274	17414
904.392	17391
904.51	17459
904.627	17452
904.745	17444
904.863	17539
904.981	17204
905.098	17086
905.216	16919
905.334	17048
905.451	17109
905.569	17010
905.686	17079
905.803	17018
905.921	16949
906.038	16976
906.155	16995
906.272	16801
906.389	16778
906.506	16626
906.623	16565
906.74	16542
906.857	16569
906.974	16489
907.091	16721
907.208	16653
907.324	16679
907.441	16481
907.557	16352
907.674	16440
907.79	16299
907.907	16215
908.023	16234
908.139	16230
908.256	16196
908.372	16204
908.488	16196
908.604	16093
908.72	15915
908.836	15994
908.952	15979
909.068	15991
909.184	16192
909.3	15983
909.415	16021
909.531	16078
909.647	15751
909.762	15804
909.878	15705
909.993	15762
910.108	15679
910.224	15618
910.339	15679
910.454	15523
910.57	15549
910.685	15557
910.8	15766
910.915	15652
911.03	15641
911.145	15321
911.259	15287
911.374	15325
911.489	15249
911.604	15169
911.718	15077
911.833	15119
911.947	14975
912.062	14868
912.176	15047
912.291	15032
912.405	14948
912.519	15241
912.633	15192
912.748	14982
912.862	15039
912.976	14883
913.09	14720
913.204	14800
913.318	14868
913.431	14971
913.545	14963
913.659	14982
913.772	14960
913.886	14712
914	14716
914.113	14777
914.226	14838
914.34	14838
914.453	14556
914.566	14724
914.68	14625
914.793	14549
914.906	14358
915.019	14366
915.132	14233
915.245	14259
915.358	14358
915.47	14317
915.583	14343
915.696	14412
915.809	14511
915.921	14415
916.034	14301
916.146	14252
916.259	14286
916.371	14339
916.483	14183
916.595	14119
916.708	14202
916.82	14218
916.932	14103
917.044	14180
917.156	14096
917.268	14039
917.38	14065
917.491	13993
917.603	14012
917.715	14126
917.826	14024
917.938	13944
918.049	13776
918.161	13909
918.272	14103
918.384	14123
918.495	14043
918.606	13712
918.717	13742
918.828	13788
918.939	13772
919.05	13746
919.161	13772
919.272	13552
919.383	13597
919.494	13868
919.604	13986
919.715	13761
919.826	13616
919.936	13651
920.047	13791
920.157	13780
920.267	13822
920.378	13776
920.488	13605
920.598	13845
920.708	14046
920.818	13951
920.928	13860
921.038	14043
921.148	13894
921.258	13696
921.368	13582
921.477	13502
921.587	13506
921.697	13327
921.806	13521
921.916	13331
922.025	13206
922.134	13198
922.244	13110
922.353	13240
922.462	12985
922.571	12928
922.68	12806
922.789	12719
922.898	12757
923.007	12726
923.116	12814
923.224	12768
923.333	12711
923.442	12612
923.55	12612
923.659	12627
923.767	12658
923.876	12399
923.984	12669
924.092	12437
924.201	12574
924.309	12464
924.417	12521
924.525	12506
924.633	12555
924.741	13297
924.849	12216
924.956	12433
925.064	12243
925.172	12098
925.279	12178
925.387	12334
925.494	12292
925.602	12323
925.709	12266
925.816	12091
925.924	12159
926.031	12243
926.138	12201
926.245	12262
926.352	11988
926.459	12190
926.566	12209
926.673	12102
926.779	11954
926.886	12011
926.993	11935
927.099	11893
927.206	11805
927.312	11718
927.419	11870
927.525	11775
927.631	11767
927.737	11653
927.843	11649
927.95	11512
928.056	11634
928.162	11668
928.267	11710
928.373	12235
928.479	11729
928.585	11433
928.69	11619
928.796	11627
928.901	11524
929.007	11376
929.112	11505
929.218	11467
929.323	11486
929.428	11444
929.533	11459
929.638	11315
929.743	11322
929.848	11372
929.953	11353
930.058	11208
930.163	11079
930.267	11102
930.372	11189
930.477	11048
930.581	11273
930.685	11181
930.79	11048
930.894	11079
930.998	10961
931.103	11117
931.207	10782
931.311	10740
931.415	10519
931.519	10405
931.623	10295
