Data from test_V78500241_2192.txt Node
Date: Fri Mar 25 15:25:07 CST 2022
User: usil
Spectrometer: V785-0024
Trigger mode: 0
Integration Time (sec): 4.000000E-1
Scans to average: 1
Nonlinearity correction enabled: false
Boxcar width: 0
Storing dark spectrum: false
XAxis mode: Wavelengths
Number of Pixels in Spectrum: 1024
>>>>>Begin Spectral Data<<<<<
801.071	27663
801.214	27739
801.356	27450
801.499	27382
801.641	27298
801.783	27367
801.926	27264
802.068	27195
802.211	27119
802.353	27195
802.496	27017
802.638	26994
802.78	27036
802.923	26872
803.065	26899
803.208	26906
803.35	26804
803.492	26952
803.635	27226
803.777	27062
803.919	27096
804.061	27408
804.204	27184
804.346	27157
804.488	27055
804.63	27024
804.773	27207
804.915	27142
805.057	27127
805.199	27135
805.341	27161
805.483	27336
805.626	27283
805.768	27116
805.91	27283
806.052	27226
806.194	27077
806.336	27481
806.478	27272
806.62	27135
806.762	27340
806.904	27515
807.046	27724
807.188	27705
807.33	27781
807.472	27694
807.614	27663
807.756	27644
807.898	27534
808.04	27515
808.182	27557
808.324	27504
808.465	27545
808.607	27827
808.749	27857
808.891	27953
809.033	27907
809.174	27918
809.316	27953
809.458	27819
809.6	27762
809.741	27838
809.883	27934
810.025	28223
810.166	28341
810.308	28150
810.45	27987
810.591	28002
810.733	27972
810.875	27861
811.016	27842
811.158	27679
811.299	27979
811.441	28124
811.582	28074
811.724	27953
811.865	27728
812.007	27892
812.148	27861
812.29	27918
812.431	28025
812.573	28112
812.714	28188
812.855	28318
812.997	28634
813.138	28497
813.279	28554
813.421	28489
813.562	28356
813.703	28246
813.845	28070
813.986	27831
814.127	27770
814.268	27587
814.41	27679
814.551	27534
814.692	27542
814.833	27420
814.974	27553
815.115	27717
815.256	27504
815.397	27488
815.539	27431
815.68	27374
815.821	27325
815.962	27294
816.103	27321
816.244	27260
816.385	27127
816.526	27154
816.666	26876
816.807	26811
816.948	26861
817.089	26788
817.23	26853
817.371	26861
817.512	26830
817.653	26750
817.793	26739
817.934	26811
818.075	26823
818.216	26834
818.356	26815
818.497	26621
818.638	26625
818.778	26545
818.919	26571
819.06	26503
819.2	26743
819.341	26686
819.481	26883
819.622	27001
819.762	27169
819.903	26967
820.043	27096
820.184	26971
820.324	27009
820.465	26925
820.605	26929
820.746	26826
820.886	26842
821.026	26906
821.167	26872
821.307	26883
821.447	26857
821.588	26792
821.728	26587
821.868	26465
822.008	26320
822.149	26233
822.289	26313
822.429	26020
822.569	25955
822.709	26027
822.849	25750
822.99	25818
823.13	25715
823.27	25677
823.41	25666
823.55	25460
823.69	25685
823.83	25674
823.97	25575
824.11	25514
824.25	25457
824.389	25354
824.529	25552
824.669	25605
824.809	25491
824.949	25510
825.089	25605
825.228	25453
825.368	25255
825.508	25468
825.648	25282
825.787	25346
825.927	25316
826.067	25228
826.206	25324
826.346	25365
826.485	25487
826.625	25240
826.765	25419
826.904	25244
827.044	25175
827.183	25232
827.323	25065
827.462	25069
827.601	25133
827.741	25000
827.88	25004
828.02	24939
828.159	25004
828.298	25061
828.437	25031
828.577	25012
828.716	25187
828.855	24977
828.994	24791
829.134	24745
829.273	24665
829.412	24848
829.551	24620
829.69	24726
829.829	24715
829.968	24764
830.107	24886
830.246	24806
830.385	24681
830.524	24551
830.663	24658
830.802	24456
830.941	24441
831.08	24285
831.219	24429
831.357	24407
831.496	24547
831.635	24220
831.774	24258
831.913	24323
832.051	24125
832.19	24098
832.329	24072
832.467	24007
832.606	23927
832.744	23999
832.883	23916
833.022	23817
833.16	24076
833.299	24007
833.437	24114
833.576	24038
833.714	24060
833.852	24053
833.991	24087
834.129	24076
834.267	24068
834.406	24121
834.544	24060
834.682	24114
834.821	24011
834.959	24289
835.097	24003
835.235	24049
835.373	24102
835.511	24038
835.65	23863
835.788	23977
835.926	23798
836.064	23600
836.202	23680
836.34	24026
836.478	23912
836.615	23920
836.753	23836
836.891	24007
837.029	23916
837.167	23695
837.305	23817
837.443	23771
837.58	23619
837.718	23832
837.856	23707
837.993	23619
838.131	23703
838.269	23642
838.406	23577
838.544	23573
838.681	23250
838.819	23501
838.956	23189
839.094	23174
839.231	23280
839.369	23414
839.506	23558
839.643	23467
839.781	23204
839.918	23060
840.055	23136
840.193	23220
840.33	23079
840.467	23064
840.604	23151
840.742	23296
840.879	22934
841.016	22968
841.153	23003
841.29	23246
841.427	23086
841.564	23052
841.701	23064
841.838	23014
841.975	22927
842.112	22923
842.249	22915
842.385	22892
842.522	23060
842.659	22854
842.796	22835
842.933	22862
843.069	22790
843.206	22828
843.343	22812
843.479	22759
843.616	22831
843.752	22592
843.889	22702
844.025	22706
844.162	22573
844.298	22580
844.435	22641
844.571	22618
844.708	22736
844.844	22763
844.98	22805
845.117	22786
845.253	22569
845.389	22493
845.525	22577
845.661	22451
845.798	22455
845.934	22390
846.07	22405
846.206	22344
846.342	22527
846.478	22367
846.614	22162
846.75	22013
846.886	22078
847.022	22120
847.158	22211
847.294	21934
847.429	22154
847.565	22048
847.701	22211
847.837	21831
847.972	21751
848.108	21964
848.244	22021
848.379	21759
848.515	21774
848.65	21618
848.786	21644
848.921	21667
849.057	21861
849.192	21778
849.328	21797
849.463	21724
849.598	21644
849.734	21682
849.869	21469
850.004	21614
850.14	21504
850.275	21389
850.41	21447
850.545	21367
850.68	21382
850.815	21466
850.95	21382
851.085	21553
851.22	21629
851.355	21530
851.49	21424
851.625	21313
851.76	21351
851.895	21348
852.03	21382
852.165	21336
852.299	21523
852.434	21523
852.569	21538
852.703	21447
852.838	21424
852.973	21576
853.107	21534
853.242	21317
853.376	21310
853.511	21131
853.645	21279
853.78	21321
853.914	21332
854.048	21123
854.183	21237
854.317	21378
854.451	21416
854.585	21249
854.72	21325
854.854	21401
854.988	21116
855.122	21218
855.256	21138
855.39	21226
855.524	21199
855.658	21237
855.792	21302
855.926	21237
856.06	21249
856.194	21260
856.327	21298
856.461	21180
856.595	21150
856.729	21161
856.862	21336
856.996	21298
857.13	21317
857.263	21252
857.397	21325
857.53	21138
857.664	21195
857.797	21336
857.931	21393
858.064	21431
858.197	21287
858.331	21291
858.464	21222
858.597	21116
858.731	21321
858.864	21192
858.997	21237
859.13	21245
859.263	21207
859.396	21367
859.529	21192
859.662	21119
859.795	21226
859.928	21207
860.061	21378
860.194	21583
860.327	21264
860.46	21241
860.592	21439
860.725	21310
860.858	21329
860.99	21245
861.123	21173
861.256	21245
861.388	21310
861.521	21922
861.653	21001
861.786	20979
861.918	21093
862.05	21085
862.183	21036
862.315	21173
862.447	21230
862.58	21142
862.712	20967
862.844	20952
862.976	21013
863.108	21039
863.24	21389
863.372	20902
863.504	20910
863.636	20883
863.768	21013
863.9	21055
864.032	20864
864.164	20872
864.296	20895
864.428	20982
864.559	21009
864.691	21047
864.823	20899
864.954	20967
865.086	20838
865.217	20918
865.349	20826
865.48	20842
865.612	20876
865.743	21070
865.875	20872
866.006	20781
866.137	20876
866.269	20887
866.4	20842
866.531	20826
866.662	20720
866.793	20830
866.924	20834
867.055	20716
867.186	20941
867.317	20788
867.448	20735
867.579	20785
867.71	20716
867.841	20678
867.972	20845
868.103	20819
868.233	20880
868.364	20845
868.495	20895
868.625	21009
868.756	21104
868.886	20948
869.017	20887
869.147	21116
869.278	21226
869.408	21009
869.539	21077
869.669	21173
869.799	21020
869.929	21131
870.06	21127
870.19	21279
870.32	21233
870.45	21355
870.58	21272
870.71	21523
870.84	21572
870.97	21454
871.1	21428
871.23	21526
871.36	21523
871.489	21557
871.619	21614
871.749	21622
871.879	21675
872.008	21793
872.138	21595
872.267	21648
872.397	21515
872.526	21469
872.656	21412
872.785	21488
872.915	21663
873.044	21682
873.173	21534
873.303	21633
873.432	21523
873.561	21671
873.69	21610
873.819	21663
873.948	21751
874.077	21724
874.206	21622
874.335	21648
874.464	21652
874.593	21915
874.722	21835
874.851	21926
874.979	21823
875.108	21907
875.237	21774
875.365	21804
875.494	21903
875.623	21930
875.751	21728
875.88	21979
876.008	21899
876.136	22074
876.265	22253
876.393	22287
876.521	22348
876.65	22325
876.778	22211
876.906	22226
877.034	22090
877.162	22150
877.29	22143
877.418	22097
877.546	22246
877.674	22268
877.802	22265
877.93	22219
878.058	22310
878.185	22029
878.313	22169
878.441	22272
878.568	22055
878.696	22093
878.824	22196
878.951	22306
879.079	22409
879.206	22500
879.333	22333
879.461	22257
879.588	22268
879.715	22348
879.842	22428
879.97	22341
880.097	22051
880.224	22006
880.351	22200
880.478	22063
880.605	21964
880.732	22082
880.859	22344
880.986	21968
881.112	22070
881.239	21926
881.366	21701
881.493	21644
881.619	21526
881.746	21564
881.872	21603
881.999	21477
882.125	21545
882.252	21652
882.378	21561
882.505	21667
882.631	21348
882.757	21351
882.883	21386
883.01	21252
883.136	21310
883.262	21077
883.388	21032
883.514	21279
883.64	21268
883.766	21249
883.892	21123
884.018	21176
884.143	21214
884.269	21351
884.395	21009
884.52	20971
884.646	21043
884.772	21051
884.897	20792
885.023	20986
885.148	20971
885.274	21169
885.399	21028
885.524	20910
885.65	21055
885.775	20967
885.9	20948
886.025	21036
886.15	20963
886.275	20960
886.4	20830
886.525	20914
886.65	20811
886.775	20872
886.9	21001
887.025	21058
887.149	20925
887.274	20788
887.399	20781
887.523	20663
887.648	20609
887.773	20606
887.897	20819
888.021	20765
888.146	20697
888.27	20864
888.395	20785
888.519	20796
888.643	20754
888.767	20655
888.891	20537
889.015	20575
889.139	20492
889.263	20560
889.387	20758
889.511	20632
889.635	20636
889.759	20530
889.883	20476
890.006	20625
890.13	20579
890.254	20404
890.377	20381
890.501	20248
890.624	20271
890.748	20313
890.871	20176
890.995	20126
891.118	20084
891.241	20130
891.364	20164
891.488	20168
891.611	20130
891.734	20043
891.857	20214
891.98	20081
892.103	20229
892.226	20210
892.349	19989
892.471	19925
892.594	19917
892.717	20020
892.839	19986
892.962	20027
893.085	20084
893.207	20008
893.33	19944
893.452	19944
893.575	20024
893.697	20050
893.819	20081
893.941	20221
894.064	20210
894.186	19974
894.308	19959
894.43	19970
894.552	20138
894.674	20035
894.796	19925
894.918	19970
895.04	19925
895.161	20145
895.283	20046
895.405	19909
895.526	20039
895.648	20050
895.769	20012
895.891	20073
896.012	20062
896.134	19894
896.255	20043
896.376	20069
896.498	19902
896.619	20065
896.74	20043
896.861	20031
896.982	20305
897.103	20396
897.224	20248
897.345	20248
897.466	20050
897.587	20210
897.708	20400
897.828	20252
897.949	20142
898.07	20092
898.19	20142
898.311	20313
898.431	20259
898.552	20187
898.672	20286
898.792	20347
898.913	20218
899.033	20142
899.153	20130
899.273	19944
899.393	20054
899.513	19993
899.633	19928
899.753	19909
899.873	19913
899.993	20054
900.113	19936
900.232	19917
900.352	19921
900.472	19841
900.591	19685
900.711	19837
900.83	19681
900.95	19947
901.069	19826
901.189	19601
901.308	19445
901.427	19377
901.546	19407
901.665	19331
901.784	19316
901.904	19198
902.023	19194
902.141	18951
902.26	18798
902.379	19095
902.498	18913
902.617	18848
902.735	18882
902.854	18875
902.973	18776
903.091	18517
903.21	18521
903.328	18631
903.446	18426
903.565	18353
903.683	18429
903.801	18311
903.919	18391
904.038	18323
904.156	18209
904.274	18205
904.392	17988
904.51	18117
904.627	17965
904.745	18110
904.863	18152
904.981	17961
905.098	17878
905.216	17790
905.334	17764
905.451	17840
905.569	17646
905.686	17756
905.803	17668
905.921	17592
906.038	17707
906.155	17642
906.272	17535
906.389	17570
906.506	17372
906.623	17356
906.74	17356
906.857	17151
906.974	17284
907.091	17376
907.208	17444
907.324	17204
907.441	17273
907.557	17109
907.674	17014
907.79	16843
907.907	17025
908.023	17025
908.139	17029
908.256	16942
908.372	16919
908.488	16839
908.604	16755
908.72	16767
908.836	16854
908.952	16641
909.068	16755
909.184	16839
909.3	16850
909.415	16717
909.531	16649
909.647	16516
909.762	16466
909.878	16386
909.993	16363
910.108	16367
910.224	16379
910.339	16371
910.454	16280
910.57	16223
910.685	16147
910.8	16371
910.915	16421
911.03	16207
911.145	16067
911.259	16021
911.374	16032
911.489	15991
911.604	15865
911.718	15785
911.833	15808
911.947	15595
912.062	15614
912.176	15846
912.291	15755
912.405	15759
912.519	15937
912.633	15972
912.748	15797
912.862	15797
912.976	15644
913.09	15485
913.204	15603
913.318	15595
913.431	15732
913.545	15675
913.659	15690
913.772	15641
913.886	15477
914	15447
914.113	15568
914.226	15408
914.34	15447
914.453	15325
914.566	15420
914.68	15226
914.793	15272
914.906	15070
915.019	15043
915.132	14921
915.245	14891
915.358	14944
915.47	15104
915.583	15169
915.696	15074
915.809	15066
915.921	15146
916.034	14986
916.146	14880
916.259	14963
916.371	14982
916.483	14963
916.595	14929
916.708	14834
916.82	14929
916.932	14868
917.044	14785
917.156	14800
917.268	14712
917.38	14663
917.491	14663
917.603	14689
917.715	14830
917.826	14758
917.938	14590
918.049	14492
918.161	14705
918.272	14720
918.384	14697
918.495	14613
918.606	14571
918.717	14377
918.828	14469
918.939	14412
919.05	14252
919.161	14355
919.272	14195
919.383	14298
919.494	14518
919.604	14659
919.715	14294
919.826	14343
919.936	14237
920.047	14518
920.157	14275
920.267	14461
920.378	14469
920.488	14362
920.598	14511
920.708	14739
920.818	14465
920.928	14511
921.038	14655
921.148	14625
921.258	14370
921.368	14320
921.477	14115
921.587	14096
921.697	13947
921.806	14077
921.916	13955
922.025	13856
922.134	13769
922.244	13727
922.353	13788
922.462	13651
922.571	13533
922.68	13441
922.789	13324
922.898	13445
923.007	13384
923.116	13487
923.224	13441
923.333	13377
923.442	13316
923.55	13160
923.659	13377
923.767	13289
923.876	13168
923.984	13236
924.092	13088
924.201	13118
924.309	13190
924.417	13156
924.525	13061
924.633	13141
924.741	13856
924.849	12878
924.956	13042
925.064	12875
925.172	12886
925.279	12821
925.387	12878
925.494	12867
925.602	12973
925.709	12913
925.816	12734
925.924	12787
926.031	12867
926.138	12795
926.245	12871
926.352	12692
926.459	12711
926.566	12840
926.673	12711
926.779	12658
926.886	12517
926.993	12410
927.099	12452
927.206	12346
927.312	12410
927.419	12441
927.525	12369
927.631	12445
927.737	12285
927.843	12277
927.95	12159
928.056	12308
928.162	12308
928.267	12308
928.373	12852
928.479	12350
928.585	12125
928.69	12205
928.796	12224
928.901	12038
929.007	11961
929.112	12117
929.218	12064
929.323	12011
929.428	11916
929.533	12117
929.638	11920
929.743	11912
929.848	12041
929.953	11931
930.058	11809
930.163	11615
930.267	11608
930.372	11920
930.477	11646
930.581	11783
930.685	11676
930.79	11581
930.894	11566
930.998	11600
931.103	11596
931.207	11178
931.311	11307
931.415	11250
931.519	10987
931.623	10968
