Data from test_V78500241_659.txt Node
Date: Fri Mar 25 15:14:26 CST 2022
User: usil
Spectrometer: V785-0024
Trigger mode: 0
Integration Time (sec): 4.000000E-1
Scans to average: 1
Nonlinearity correction enabled: false
Boxcar width: 0
Storing dark spectrum: false
XAxis mode: Wavelengths
Number of Pixels in Spectrum: 1024
>>>>>Begin Spectral Data<<<<<
801.071	27603
801.214	27507
801.356	27363
801.499	27233
801.641	27157
801.783	27176
801.926	27241
802.068	27146
802.211	26975
802.353	26849
802.496	26849
802.638	26792
802.78	26826
802.923	26701
803.065	26804
803.208	26701
803.35	26845
803.492	26906
803.635	26861
803.777	26815
803.919	26891
804.061	27245
804.204	26902
804.346	26998
804.488	26933
804.63	26914
804.773	26648
804.915	26891
805.057	27108
805.199	26971
805.341	27150
805.483	27116
805.626	26982
805.768	27039
805.91	27226
806.052	27127
806.194	27047
806.336	27260
806.478	27131
806.62	27123
806.762	27157
806.904	27195
807.046	27648
807.188	27557
807.33	27401
807.472	27530
807.614	27435
807.756	27557
807.898	27355
808.04	27313
808.182	27279
808.324	27424
808.465	27549
808.607	27534
808.749	27530
808.891	27660
809.033	27812
809.174	27785
809.316	27778
809.458	27675
809.6	27808
809.741	27835
809.883	27835
810.025	28029
810.166	28059
810.308	27964
810.45	27998
810.591	27888
810.733	27781
810.875	27739
811.016	27652
811.158	27679
811.299	27953
811.441	27922
811.582	27667
811.724	27663
811.865	27682
812.007	27717
812.148	27538
812.29	27762
812.431	27934
812.573	28166
812.714	28147
812.855	28371
812.997	28436
813.138	28485
813.279	28474
813.421	28413
813.562	28424
813.703	28074
813.845	27972
813.986	27622
814.127	27454
814.268	27439
814.41	27405
814.551	27389
814.692	27408
814.833	27332
814.974	27344
815.115	27382
815.256	27211
815.397	27245
815.539	27222
815.68	27142
815.821	27237
815.962	27173
816.103	27165
816.244	27169
816.385	27100
816.526	26971
816.666	26773
816.807	26842
816.948	26762
817.089	26845
817.23	26773
817.371	26823
817.512	26785
817.653	26686
817.793	26667
817.934	26625
818.075	26743
818.216	26743
818.356	26693
818.497	26625
818.638	26465
818.778	26419
818.919	26453
819.06	26408
819.2	26575
819.341	26712
819.481	26636
819.622	26838
819.762	27188
819.903	27001
820.043	26826
820.184	26925
820.324	26746
820.465	26899
820.605	26933
820.746	26777
820.886	26571
821.026	26971
821.167	26815
821.307	26971
821.447	26735
821.588	26712
821.728	26484
821.868	26339
822.008	26031
822.149	26183
822.289	26062
822.429	25978
822.569	25799
822.709	25864
822.849	25715
822.99	25601
823.13	25693
823.27	25670
823.41	25472
823.55	25384
823.69	25521
823.83	25514
823.97	25396
824.11	25312
824.25	25228
824.389	25263
824.529	25384
824.669	25384
824.809	25479
824.949	25373
825.089	25346
825.228	25411
825.368	25289
825.508	25213
825.648	25251
825.787	25183
825.927	25285
826.067	25145
826.206	25183
826.346	25274
826.485	25285
826.625	25145
826.765	25403
826.904	25202
827.044	24932
827.183	25065
827.323	24924
827.462	24871
827.601	24928
827.741	24943
827.88	25072
828.02	24688
828.159	24837
828.298	24897
828.437	24943
828.577	24817
828.716	24939
828.855	24935
828.994	24650
829.134	24559
829.273	24707
829.412	24635
829.551	24505
829.69	24627
829.829	24635
829.968	24738
830.107	24791
830.246	24578
830.385	24551
830.524	24399
830.663	24464
830.802	24281
830.941	24300
831.08	24060
831.219	24353
831.357	24327
831.496	24395
831.635	24136
831.774	24015
831.913	24148
832.051	24136
832.19	24030
832.329	24015
832.467	23904
832.606	23870
832.744	23794
832.883	24015
833.022	23790
833.16	23794
833.299	24007
833.437	23958
833.576	23961
833.714	23988
833.852	24007
833.991	23901
834.129	24022
834.267	24038
834.406	23950
834.544	23882
834.682	23931
834.821	23939
834.959	24015
835.097	23775
835.235	23984
835.373	23973
835.511	24106
835.65	23882
835.788	23859
835.926	23634
836.064	23524
836.202	23649
836.34	23718
836.478	23786
836.615	23790
836.753	23714
836.891	23760
837.029	23828
837.167	23745
837.305	23775
837.443	23596
837.58	23710
837.718	23726
837.856	23623
837.993	23573
838.131	23649
838.269	23425
838.406	23577
838.544	23448
838.681	23261
838.819	23212
838.956	22984
839.094	23098
839.231	23231
839.369	23280
839.506	23444
839.643	23471
839.781	23231
839.918	23155
840.055	23090
840.193	23105
840.33	22984
840.467	23086
840.604	22976
840.742	23307
840.879	23022
841.016	23044
841.153	22972
841.29	23109
841.427	23018
841.564	22972
841.701	23102
841.838	22984
841.975	22850
842.112	22908
842.249	22744
842.385	22702
842.522	22869
842.659	22694
842.796	22664
842.933	22774
843.069	22706
843.206	22740
843.343	22774
843.479	22771
843.616	22835
843.752	22649
843.889	22611
844.025	22611
844.162	22527
844.298	22634
844.435	22527
844.571	22577
844.708	22523
844.844	22717
844.98	22672
845.117	22569
845.253	22599
845.389	22329
845.525	22375
845.661	22413
845.798	22421
845.934	22341
846.07	22207
846.206	22310
846.342	22379
846.478	22188
846.614	22120
846.75	22021
846.886	22090
847.022	22143
847.158	21964
847.294	21964
847.429	22173
847.565	21884
847.701	22299
847.837	21812
847.972	21732
848.108	21831
848.244	21876
848.379	21724
848.515	21545
848.65	21614
848.786	21671
848.921	21698
849.057	21671
849.192	21736
849.328	21679
849.463	21595
849.598	21591
849.734	21344
849.869	21401
850.004	21401
850.14	21469
850.275	21382
850.41	21264
850.545	21382
850.68	21336
850.815	21294
850.95	21382
851.085	21519
851.22	21485
851.355	21367
851.49	21245
851.625	21306
851.76	21291
851.895	21260
852.03	21298
852.165	21405
852.299	21412
852.434	21462
852.569	21363
852.703	21329
852.838	21458
852.973	21477
853.107	21481
853.242	21279
853.376	21104
853.511	21150
853.645	21260
853.78	21378
853.914	21249
854.048	21127
854.183	21195
854.317	21256
854.451	21466
854.585	21207
854.72	21157
854.854	21317
854.988	21020
855.122	21127
855.256	21085
855.39	21230
855.524	21302
855.658	21138
855.792	21268
855.926	21256
856.06	21279
856.194	21298
856.327	21169
856.461	21116
856.595	21066
856.729	21173
856.862	21291
856.996	21207
857.13	21161
857.263	21317
857.397	21283
857.53	21237
857.664	21317
857.797	21272
857.931	21340
858.064	21233
858.197	21214
858.331	21119
858.464	21207
858.597	21032
858.731	21211
858.864	21096
858.997	21184
859.13	21180
859.263	21131
859.396	21302
859.529	21199
859.662	21211
859.795	21173
859.928	21180
860.061	21325
860.194	21348
860.327	21275
860.46	21287
860.592	21348
860.725	21348
860.858	21226
860.99	21184
861.123	21207
861.256	21135
861.388	21241
861.521	22002
861.653	21150
861.786	21066
861.918	21051
862.05	21032
862.183	20982
862.315	21074
862.447	21119
862.58	21142
862.712	20960
862.844	20887
862.976	20891
863.108	21020
863.24	21408
863.372	20716
863.504	20982
863.636	20914
863.768	20982
863.9	20986
864.032	20921
864.164	20948
864.296	20880
864.428	21077
864.559	21024
864.691	20925
864.823	20857
864.954	20925
865.086	20819
865.217	20819
865.349	20769
865.48	20906
865.612	20815
865.743	21047
865.875	20727
866.006	20853
866.137	20765
866.269	20819
866.4	20693
866.531	20823
866.662	20720
866.793	20758
866.924	20689
867.055	20762
867.186	20807
867.317	20765
867.448	20769
867.579	20727
867.71	20697
867.841	20693
867.972	20727
868.103	20625
868.233	20785
868.364	20754
868.495	20838
868.625	20960
868.756	21146
868.886	20944
869.017	21001
869.147	21154
869.278	21142
869.408	21058
869.539	20902
869.669	20937
869.799	21028
869.929	20986
870.06	21070
870.19	21287
870.32	21230
870.45	21298
870.58	21405
870.71	21408
870.84	21519
870.97	21386
871.1	21401
871.23	21557
871.36	21504
871.489	21526
871.619	21545
871.749	21557
871.879	21603
872.008	21660
872.138	21477
872.267	21549
872.397	21488
872.526	21397
872.656	21420
872.785	21252
872.915	21599
873.044	21553
873.173	21622
873.303	21804
873.432	21686
873.561	21679
873.69	21568
873.819	21534
873.948	21778
874.077	21686
874.206	21549
874.335	21622
874.464	21686
874.593	21934
874.722	21720
874.851	21857
874.979	21987
875.108	21884
875.237	21728
875.365	21652
875.494	21732
875.623	21960
875.751	21812
875.88	21728
876.008	21972
876.136	22040
876.265	22173
876.393	22318
876.521	22295
876.65	22299
876.778	22329
876.906	22109
877.034	22177
877.162	22234
877.29	22147
877.418	22246
877.546	22070
877.674	22128
877.802	22177
877.93	22166
878.058	22059
878.185	22090
878.313	22143
878.441	22105
878.568	22078
878.696	22249
878.824	22147
878.951	22257
879.079	22261
879.206	22592
879.333	22333
879.461	22204
879.588	22188
879.715	22272
879.842	22451
879.97	22314
880.097	22029
880.224	22002
880.351	22078
880.478	22143
880.605	21949
880.732	21983
880.859	22154
880.986	22032
881.112	22010
881.239	21903
881.366	21732
881.493	21709
881.619	21485
881.746	21538
881.872	21660
881.999	21633
882.125	21530
882.252	21641
882.378	21458
882.505	21599
882.631	21393
882.757	21249
882.883	21294
883.01	21340
883.136	21294
883.262	21123
883.388	21066
883.514	21252
883.64	21363
883.766	21249
883.892	21108
884.018	21070
884.143	21211
884.269	21298
884.395	20975
884.52	20834
884.646	20849
884.772	20807
884.897	20937
885.023	20956
885.148	20910
885.274	21104
885.399	21017
885.524	20933
885.65	20963
885.775	20891
885.9	20891
886.025	21131
886.15	20986
886.275	20845
886.4	20811
886.525	20861
886.65	20819
886.775	20906
886.9	20979
887.025	21077
887.149	20857
887.274	20762
887.399	20739
887.523	20735
887.648	20606
887.773	20568
887.897	20678
888.021	20804
888.146	20644
888.27	20868
888.395	20739
888.519	20765
888.643	20667
888.767	20800
888.891	20621
889.015	20503
889.139	20560
889.263	20617
889.387	20629
889.511	20746
889.635	20686
889.759	20396
889.883	20518
890.006	20492
890.13	20537
890.254	20317
890.377	20457
890.501	20206
890.624	20202
890.748	20438
890.871	20107
890.995	19940
891.118	20008
891.241	20183
891.364	19974
891.488	20145
891.611	20100
891.734	19978
891.857	20096
891.98	20077
892.103	20183
892.226	20039
892.349	20073
892.471	19890
892.594	20001
892.717	19894
892.839	19898
892.962	19959
893.085	20012
893.207	20016
893.33	19818
893.452	19845
893.575	19875
893.697	19928
893.819	20134
893.941	20062
894.064	20069
894.186	19887
894.308	19936
894.43	20069
894.552	20119
894.674	20077
894.796	19906
894.918	19852
895.04	19963
895.161	20024
895.283	20050
895.405	19989
895.526	19906
895.648	19974
895.769	19974
895.891	20054
896.012	20058
896.134	20065
896.255	20020
896.376	19902
896.498	20016
896.619	19959
896.74	20096
896.861	20069
896.982	20324
897.103	20522
897.224	20237
897.345	20157
897.466	20138
897.587	20191
897.708	20248
897.828	20153
897.949	20199
898.07	20005
898.19	20035
898.311	20191
898.431	20035
898.552	20016
898.672	20298
898.792	20339
898.913	20183
899.033	20100
899.153	20008
899.273	19986
899.393	20012
899.513	19982
899.633	19868
899.753	19818
899.873	19780
899.993	20043
900.113	19818
900.232	19955
900.352	19883
900.472	19788
900.591	19761
900.711	19757
900.83	19712
900.95	19860
901.069	19719
901.189	19670
901.308	19468
901.427	19282
901.546	19251
901.665	19403
901.784	19266
901.904	19255
902.023	19126
902.141	18844
902.26	18806
902.379	18882
902.498	18829
902.617	18886
902.735	18939
902.854	18829
902.973	18745
903.091	18536
903.21	18479
903.328	18456
903.446	18418
903.565	18334
903.683	18319
903.801	18182
903.919	18220
904.038	18144
904.156	18076
904.274	18038
904.392	18022
904.51	18152
904.627	18038
904.745	18083
904.863	18098
904.981	17897
905.098	17786
905.216	17786
905.334	17718
905.451	17722
905.569	17813
905.686	17836
905.803	17741
905.921	17558
906.038	17649
906.155	17505
906.272	17482
906.389	17486
906.506	17212
906.623	17322
906.74	17159
906.857	17128
906.974	17227
907.091	17330
907.208	17383
907.324	17353
907.441	17208
907.557	16972
907.674	17067
907.79	16991
907.907	16919
908.023	17029
908.139	16889
908.256	16900
908.372	16839
908.488	16900
908.604	16740
908.72	16736
908.836	16725
908.952	16687
909.068	16725
909.184	16873
909.3	16618
909.415	16641
909.531	16675
909.647	16497
909.762	16413
909.878	16386
909.993	16402
910.108	16409
910.224	16306
910.339	16356
910.454	16246
910.57	16310
910.685	16207
910.8	16402
910.915	16386
911.03	16249
911.145	16139
911.259	15972
911.374	16055
911.489	15918
911.604	15895
911.718	15781
911.833	15751
911.947	15667
912.062	15488
912.176	15739
912.291	15698
912.405	15637
912.519	15835
912.633	15903
912.748	15800
912.862	15762
912.976	15591
913.09	15443
913.204	15530
913.318	15667
913.431	15720
913.545	15584
913.659	15679
913.772	15557
913.886	15405
914	15317
914.113	15447
914.226	15481
914.34	15492
914.453	15291
914.566	15401
914.68	15294
914.793	15340
914.906	15036
915.019	14948
915.132	15001
915.245	14975
915.358	15051
915.47	14982
915.583	15055
915.696	14975
915.809	15116
915.921	15081
916.034	14941
916.146	14925
916.259	14918
916.371	14994
916.483	14891
916.595	14842
916.708	14910
916.82	14804
916.932	14788
917.044	14815
917.156	14792
917.268	14663
917.38	14739
917.491	14598
917.603	14632
917.715	14712
917.826	14651
917.938	14549
918.049	14514
918.161	14583
918.272	14674
918.384	14606
918.495	14613
918.606	14484
918.717	14347
918.828	14514
918.939	14457
919.05	14278
919.161	14431
919.272	14199
919.383	14145
919.494	14473
919.604	14545
919.715	14469
919.826	14389
919.936	14347
920.047	14438
920.157	14320
920.267	14514
920.378	14343
920.488	14240
920.598	14545
920.708	14667
920.818	14488
920.928	14480
921.038	14712
921.148	14602
921.258	14389
921.368	14233
921.477	14119
921.587	14138
921.697	13963
921.806	14084
921.916	14012
922.025	13852
922.134	13803
922.244	13727
922.353	13788
922.462	13662
922.571	13685
922.68	13495
922.789	13335
922.898	13453
923.007	13384
923.116	13422
923.224	13297
923.333	13426
923.442	13354
923.55	13247
923.659	13297
923.767	13312
923.876	13168
923.984	13278
924.092	13114
924.201	13164
924.309	13149
924.417	13190
924.525	13107
924.633	13114
924.741	13864
924.849	12833
924.956	12947
925.064	12996
925.172	12829
925.279	12897
925.387	12875
925.494	12856
925.602	12966
925.709	12886
925.816	12681
925.924	12700
926.031	12848
926.138	12730
926.245	12859
926.352	12764
926.459	12772
926.566	12856
926.673	12665
926.779	12631
926.886	12601
926.993	12475
927.099	12410
927.206	12327
927.312	12376
927.419	12445
927.525	12346
927.631	12452
927.737	12262
927.843	12247
927.95	12121
928.056	12315
928.162	12262
928.267	12270
928.373	12897
928.479	12235
928.585	12163
928.69	12144
928.796	12220
928.901	12091
929.007	11939
929.112	12072
929.218	12057
929.323	11980
929.428	11999
929.533	12079
929.638	11897
929.743	11870
929.848	11950
929.953	11958
930.058	11802
930.163	11649
930.267	11668
930.372	11707
930.477	11558
930.581	11878
930.685	11676
930.79	11528
930.894	11524
930.998	11501
931.103	11627
931.207	11330
931.311	11212
931.415	11143
931.519	10968
931.623	10938
