Data from test_V78500241_2437.txt Node
Date: Fri Mar 25 15:26:49 CST 2022
User: usil
Spectrometer: V785-0024
Trigger mode: 0
Integration Time (sec): 4.000000E-1
Scans to average: 1
Nonlinearity correction enabled: false
Boxcar width: 0
Storing dark spectrum: false
XAxis mode: Wavelengths
Number of Pixels in Spectrum: 1024
>>>>>Begin Spectral Data<<<<<
801.071	27077
801.214	26899
801.356	26746
801.499	26640
801.641	26629
801.783	26625
801.926	26583
802.068	26613
802.211	26427
802.353	26476
802.496	26252
802.638	26172
802.78	26187
802.923	26149
803.065	26126
803.208	26103
803.35	26126
803.492	26210
803.635	26347
803.777	26275
803.919	26286
804.061	26617
804.204	26461
804.346	26267
804.488	26362
804.63	26404
804.773	26393
804.915	26370
805.057	26408
805.199	26081
805.341	26400
805.483	26492
805.626	26286
805.768	26191
805.91	26442
806.052	26423
806.194	26286
806.336	26613
806.478	26244
806.62	26404
806.762	26575
806.904	26632
807.046	26880
807.188	26777
807.33	26967
807.472	26910
807.614	26686
807.756	26834
807.898	26724
808.04	26571
808.182	26720
808.324	26762
808.465	26845
808.607	26792
808.749	27070
808.891	27104
809.033	27169
809.174	27127
809.316	26937
809.458	27032
809.6	27024
809.741	27013
809.883	27176
810.025	27218
810.166	27230
810.308	27237
810.45	27169
810.591	27150
810.733	27043
810.875	26910
811.016	26785
811.158	26883
811.299	27043
811.441	27013
811.582	27089
811.724	26952
811.865	27062
812.007	26872
812.148	26880
812.29	27077
812.431	27074
812.573	27192
812.714	27367
812.855	27450
812.997	27542
813.138	27789
813.279	27397
813.421	27466
813.562	27435
813.703	27207
813.845	27108
813.986	26899
814.127	26800
814.268	26640
814.41	26724
814.551	26552
814.692	26670
814.833	26537
814.974	26708
815.115	26621
815.256	26446
815.397	26427
815.539	26587
815.68	26545
815.821	26305
815.962	26366
816.103	26377
816.244	26339
816.385	26240
816.526	26180
816.666	26138
816.807	25879
816.948	26012
817.089	25997
817.23	25932
817.371	26001
817.512	25871
817.653	25837
817.793	25864
817.934	25879
818.075	25890
818.216	25932
818.356	25925
818.497	25696
818.638	25624
818.778	25727
818.919	25559
819.06	25704
819.2	25769
819.341	25799
819.481	25849
819.622	26050
819.762	26172
819.903	26157
820.043	26016
820.184	26069
820.324	25947
820.465	26111
820.605	25989
820.746	25959
820.886	25898
821.026	25902
821.167	25868
821.307	26084
821.447	25841
821.588	25807
821.728	25670
821.868	25578
822.008	25415
822.149	25346
822.289	25316
822.429	25031
822.569	25015
822.709	25027
822.849	24844
822.99	24856
823.13	24882
823.27	24852
823.41	24741
823.55	24585
823.69	24654
823.83	24741
823.97	24665
824.11	24551
824.25	24464
824.389	24525
824.529	24608
824.669	24418
824.809	24566
824.949	24658
825.089	24650
825.228	24559
825.368	24319
825.508	24319
825.648	24327
825.787	24277
825.927	24486
826.067	24235
826.206	24334
826.346	24300
826.485	24391
826.625	24369
826.765	24475
826.904	24410
827.044	24178
827.183	24087
827.323	24136
827.462	24125
827.601	24308
827.741	24049
827.88	24148
828.02	23885
828.159	23965
828.298	24129
828.437	24110
828.577	24007
828.716	24205
828.855	23874
828.994	23805
829.134	23707
829.273	23863
829.412	23710
829.551	23596
829.69	23672
829.829	23748
829.968	23946
830.107	23794
830.246	23961
830.385	23714
830.524	23771
830.663	23509
830.802	23547
830.941	23421
831.08	23242
831.219	23353
831.357	23417
831.496	23585
831.635	23436
831.774	23303
831.913	23273
832.051	23151
832.19	23159
832.329	23246
832.467	23102
832.606	23109
832.744	23090
832.883	23216
833.022	23056
833.16	23037
833.299	23044
833.437	23094
833.576	23242
833.714	22972
833.852	23094
833.991	23189
834.129	23239
834.267	23155
834.406	23189
834.544	23132
834.682	23239
834.821	23189
834.959	23303
835.097	23064
835.235	23265
835.373	23060
835.511	23216
835.65	22889
835.788	23029
835.926	22850
836.064	22771
836.202	22980
836.34	22900
836.478	22999
836.615	23067
836.753	23006
836.891	23132
837.029	22927
837.167	22987
837.305	22999
837.443	22919
837.58	22858
837.718	22843
837.856	22862
837.993	22774
838.131	22748
838.269	22740
838.406	22824
838.544	22687
838.681	22561
838.819	22478
838.956	22284
839.094	22352
839.231	22363
839.369	22535
839.506	22771
839.643	22691
839.781	22325
839.918	22325
840.055	22284
840.193	22249
840.33	22261
840.467	22242
840.604	22394
840.742	22565
840.879	21979
841.016	22177
841.153	22093
841.29	22226
841.427	22188
841.564	22242
841.701	22382
841.838	22192
841.975	22067
842.112	22090
842.249	22112
842.385	21926
842.522	22154
842.659	21994
842.796	21956
842.933	22017
843.069	21934
843.206	22051
843.343	21968
843.479	21998
843.616	21991
843.752	21720
843.889	21778
844.025	21975
844.162	21873
844.298	21911
844.435	21774
844.571	21819
844.708	21793
844.844	22051
844.98	21918
845.117	21945
845.253	21747
845.389	21603
845.525	21705
845.661	21564
845.798	21545
845.934	21557
846.07	21572
846.206	21477
846.342	21656
846.478	21466
846.614	21146
846.75	21150
846.886	21203
847.022	21329
847.158	21233
847.294	21207
847.429	21363
847.565	21275
847.701	21526
847.837	20956
847.972	21017
848.108	21104
848.244	21123
848.379	20933
848.515	20830
848.65	20815
848.786	20838
848.921	20864
849.057	20845
849.192	21005
849.328	20914
849.463	20925
849.598	20902
849.734	20800
849.869	20701
850.004	20712
850.14	20571
850.275	20621
850.41	20499
850.545	20655
850.68	20663
850.815	20640
850.95	20461
851.085	20743
851.22	20754
851.355	20594
851.49	20560
851.625	20617
851.76	20598
851.895	20454
852.03	20514
852.165	20606
852.299	20617
852.434	20651
852.569	20602
852.703	20613
852.838	20708
852.973	20739
853.107	20651
853.242	20621
853.376	20419
853.511	20305
853.645	20423
853.78	20609
853.914	20423
854.048	20415
854.183	20450
854.317	20492
854.451	20629
854.585	20431
854.72	20404
854.854	20575
854.988	20339
855.122	20469
855.256	20271
855.39	20332
855.524	20507
855.658	20533
855.792	20495
855.926	20450
856.06	20575
856.194	20541
856.327	20355
856.461	20301
856.595	20423
856.729	20393
856.862	20454
856.996	20522
857.13	20495
857.263	20549
857.397	20575
857.53	20351
857.664	20465
857.797	20640
857.931	20617
858.064	20473
858.197	20480
858.331	20408
858.464	20469
858.597	20328
858.731	20415
858.864	20438
858.997	20351
859.13	20393
859.263	20396
859.396	20636
859.529	20381
859.662	20370
859.795	20457
859.928	20545
860.061	20629
860.194	20602
860.327	20423
860.46	20419
860.592	20480
860.725	20705
860.858	20629
860.99	20389
861.123	20377
861.256	20514
861.388	20480
861.521	21039
861.653	20389
861.786	20149
861.918	20450
862.05	20294
862.183	20336
862.315	20374
862.447	20415
862.58	20317
862.712	20195
862.844	20130
862.976	20301
863.108	20221
863.24	20556
863.372	20130
863.504	20294
863.636	20210
863.768	20191
863.9	20138
864.032	20050
864.164	20073
864.296	20278
864.428	20176
864.559	20191
864.691	20286
864.823	20324
864.954	20191
865.086	20122
865.217	20031
865.349	19947
865.48	20195
865.612	20103
865.743	20259
865.875	20111
866.006	20058
866.137	20073
866.269	20130
866.4	20027
866.531	19940
866.662	19902
866.793	19967
866.924	20027
867.055	20050
867.186	20092
867.317	20035
867.448	19928
867.579	20100
867.71	19913
867.841	20054
867.972	20065
868.103	20073
868.233	20081
868.364	19963
868.495	20046
868.625	20237
868.756	20355
868.886	20229
869.017	20267
869.147	20275
869.278	20362
869.408	20324
869.539	20221
869.669	20286
869.799	20275
869.929	20495
870.06	20389
870.19	20594
870.32	20530
870.45	20682
870.58	20606
870.71	20750
870.84	20792
870.97	20594
871.1	20659
871.23	20830
871.36	20895
871.489	20804
871.619	20773
871.749	20986
871.879	20887
872.008	20864
872.138	20861
872.267	20887
872.397	20720
872.526	20693
872.656	20716
872.785	20663
872.915	20914
873.044	21013
873.173	20838
873.303	20899
873.432	20857
873.561	20952
873.69	20948
873.819	20849
873.948	20887
874.077	20853
874.206	21017
874.335	20937
874.464	21024
874.593	21127
874.722	21036
874.851	21188
874.979	21306
875.108	21165
875.237	21013
875.365	21055
875.494	21123
875.623	21260
875.751	21085
875.88	21161
876.008	21264
876.136	21287
876.265	21549
876.393	21759
876.521	21568
876.65	21629
876.778	21488
876.906	21443
877.034	21606
877.162	21561
877.29	21500
877.418	21469
877.546	21488
877.674	21557
877.802	21431
877.93	21507
878.058	21405
878.185	21469
878.313	21530
878.441	21530
878.568	21351
878.696	21348
878.824	21492
878.951	21606
879.079	21766
879.206	21736
879.333	21759
879.461	21542
879.588	21583
879.715	21606
879.842	21694
879.97	21603
880.097	21310
880.224	21302
880.351	21272
880.478	21218
880.605	21363
880.732	21431
880.859	21523
880.986	21412
881.112	21313
881.239	21157
881.366	21150
881.493	20960
881.619	20967
881.746	20975
881.872	20834
881.999	20887
882.125	20826
882.252	20918
882.378	20914
882.505	20941
882.631	20777
882.757	20670
882.883	20716
883.01	20701
883.136	20533
883.262	20446
883.388	20514
883.514	20609
883.64	20731
883.766	20552
883.892	20408
884.018	20465
884.143	20499
884.269	20640
884.395	20332
884.52	20309
884.646	20256
884.772	20130
884.897	20107
885.023	20347
885.148	20309
885.274	20381
885.399	20473
885.524	20358
885.65	20252
885.775	20256
885.9	20237
886.025	20374
886.15	20400
886.275	20248
886.4	20092
886.525	20267
886.65	20256
886.775	20138
886.9	20381
887.025	20446
887.149	20149
887.274	20020
887.399	19932
887.523	19967
887.648	19951
887.773	19890
887.897	20001
888.021	20073
888.146	19993
888.27	20092
888.395	20100
888.519	20058
888.643	20050
888.767	20103
888.891	19849
889.015	19856
889.139	19921
889.263	19814
889.387	20024
889.511	19951
889.635	19928
889.759	19818
889.883	19860
890.006	19807
890.13	19849
890.254	19772
890.377	19837
890.501	19590
890.624	19552
890.748	19693
890.871	19666
890.995	19430
891.118	19415
891.241	19320
891.364	19472
891.488	19548
891.611	19422
891.734	19430
891.857	19510
891.98	19388
892.103	19449
892.226	19388
892.349	19316
892.471	19270
892.594	19293
892.717	19297
892.839	19384
892.962	19316
893.085	19392
893.207	19331
893.33	19259
893.452	19327
893.575	19358
893.697	19422
893.819	19453
893.941	19597
894.064	19441
894.186	19362
894.308	19187
894.43	19422
894.552	19407
894.674	19362
894.796	19266
894.918	19362
895.04	19316
895.161	19434
895.283	19362
895.405	19331
895.526	19274
895.648	19415
895.769	19343
895.891	19411
896.012	19422
896.134	19449
896.255	19297
896.376	19236
896.498	19308
896.619	19346
896.74	19320
896.861	19392
896.982	19658
897.103	19818
897.224	19757
897.345	19540
897.466	19537
897.587	19540
897.708	19662
897.828	19666
897.949	19540
898.07	19426
898.19	19552
898.311	19586
898.431	19468
898.552	19563
898.672	19674
898.792	19666
898.913	19655
899.033	19540
899.153	19331
899.273	19373
899.393	19297
899.513	19411
899.633	19445
899.753	19396
899.873	19259
899.993	19346
900.113	19251
900.232	19308
900.352	19308
900.472	19168
900.591	19065
900.711	19061
900.83	19110
900.95	19274
901.069	19160
901.189	19076
901.308	18829
901.427	18810
901.546	18741
901.665	18703
901.784	18798
901.904	18551
902.023	18585
902.141	18338
902.26	18365
902.379	18433
902.498	18213
902.617	18190
902.735	18304
902.854	18174
902.973	18205
903.091	17893
903.21	17889
903.328	17988
903.446	17802
903.565	17703
903.683	17798
903.801	17684
903.919	17809
904.038	17691
904.156	17486
904.274	17589
904.392	17486
904.51	17490
904.627	17509
904.745	17570
904.863	17638
904.981	17391
905.098	17250
905.216	17254
905.334	17178
905.451	17223
905.569	17124
905.686	17143
905.803	17162
905.921	17018
906.038	17109
906.155	16995
906.272	16873
906.389	16843
906.506	16759
906.623	16778
906.74	16656
906.857	16584
906.974	16694
907.091	16721
907.208	16923
907.324	16755
907.441	16611
907.557	16352
907.674	16535
907.79	16394
907.907	16474
908.023	16478
908.139	16390
908.256	16405
908.372	16470
908.488	16344
908.604	16169
908.72	16090
908.836	16082
908.952	16139
909.068	16150
909.184	16143
909.3	16185
909.415	16185
909.531	16150
909.647	15926
909.762	15869
909.878	15895
909.993	15873
910.108	15922
910.224	15945
910.339	15861
910.454	15770
910.57	15705
910.685	15603
910.8	16025
910.915	15797
911.03	15743
911.145	15504
911.259	15492
911.374	15504
911.489	15435
911.604	15367
911.718	15157
911.833	15302
911.947	15112
912.062	15203
912.176	15241
912.291	15222
912.405	15207
912.519	15435
912.633	15481
912.748	15268
912.862	15123
912.976	15062
913.09	14963
913.204	14956
913.318	15047
913.431	15199
913.545	15195
913.659	15226
913.772	15055
913.886	14979
914	14823
914.113	14944
914.226	15017
914.34	14876
914.453	14781
914.566	14868
914.68	14834
914.793	14727
914.906	14560
915.019	14556
915.132	14396
915.245	14533
915.358	14438
915.47	14480
915.583	14552
915.696	14568
915.809	14617
915.921	14651
916.034	14469
916.146	14385
916.259	14503
916.371	14514
916.483	14415
916.595	14385
916.708	14438
916.82	14450
916.932	14389
917.044	14317
917.156	14328
917.268	14237
917.38	14221
917.491	14210
917.603	14305
917.715	14233
917.826	14301
917.938	14191
918.049	14043
918.161	14187
918.272	14427
918.384	14240
918.495	14168
918.606	14062
918.717	13974
918.828	14088
918.939	14073
919.05	13788
919.161	13902
919.272	13788
919.383	13841
919.494	14043
919.604	14191
919.715	13951
919.826	13807
919.936	13944
920.047	14001
920.157	13928
920.267	14145
920.378	14008
920.488	13959
920.598	14123
920.708	14256
920.818	14164
920.928	14058
921.038	14157
921.148	14298
921.258	13887
921.368	13879
921.477	13712
921.587	13769
921.697	13601
921.806	13708
921.916	13521
922.025	13514
922.134	13480
922.244	13320
922.353	13388
922.462	13270
922.571	13126
922.68	13103
922.789	13084
922.898	13046
923.007	13084
923.116	13042
923.224	12970
923.333	13019
923.442	12981
923.55	12833
923.659	12894
923.767	12924
923.876	12730
923.984	12996
924.092	12741
924.201	12882
924.309	12760
924.417	12863
924.525	12768
924.633	12696
924.741	13700
924.849	12509
924.956	12654
925.064	12517
925.172	12338
925.279	12544
925.387	12338
925.494	12566
925.602	12604
925.709	12479
925.816	12357
925.924	12353
926.031	12464
926.138	12403
926.245	12399
926.352	12311
926.459	12494
926.566	12566
926.673	12353
926.779	12163
926.886	12175
926.993	12106
927.099	11996
927.206	12007
927.312	12007
927.419	12110
927.525	12053
927.631	12136
927.737	11977
927.843	11897
927.95	11802
928.056	11965
928.162	11855
928.267	11874
928.373	12566
928.479	11980
928.585	11676
928.69	11748
928.796	11961
928.901	11714
929.007	11600
929.112	11764
929.218	11718
929.323	11665
929.428	11589
929.533	11695
929.638	11516
929.743	11638
929.848	11535
929.953	11554
930.058	11444
930.163	11345
930.267	11364
930.372	11463
930.477	11273
930.581	11524
930.685	11379
930.79	11201
930.894	11227
930.998	11174
931.103	11288
931.207	10934
931.311	10873
931.415	10866
931.519	10634
931.623	10607
