Data from test_V78500241_1724.txt Node
Date: Fri Mar 25 15:21:51 CST 2022
User: usil
Spectrometer: V785-0024
Trigger mode: 0
Integration Time (sec): 4.000000E-1
Scans to average: 1
Nonlinearity correction enabled: false
Boxcar width: 0
Storing dark spectrum: false
XAxis mode: Wavelengths
Number of Pixels in Spectrum: 1024
>>>>>Begin Spectral Data<<<<<
801.071	27800
801.214	27667
801.356	27519
801.499	27443
801.641	27336
801.783	27211
801.926	27321
802.068	27348
802.211	27268
802.353	27203
802.496	26918
802.638	26990
802.78	26990
802.923	26861
803.065	26960
803.208	26899
803.35	26910
803.492	27146
803.635	27123
803.777	27085
803.919	27226
804.061	27431
804.204	27207
804.346	27150
804.488	26940
804.63	27195
804.773	27161
804.915	27112
805.057	27275
805.199	27146
805.341	27435
805.483	27233
805.626	27393
805.768	27108
805.91	27310
806.052	27344
806.194	27302
806.336	27526
806.478	27222
806.62	27199
806.762	27340
806.904	27572
807.046	27778
807.188	27732
807.33	27759
807.472	27709
807.614	27606
807.756	27736
807.898	27595
808.04	27564
808.182	27595
808.324	27599
808.465	27538
808.607	27728
808.749	27953
808.891	28010
809.033	28070
809.174	27911
809.316	27850
809.458	27816
809.6	27945
809.741	28051
809.883	27987
810.025	28150
810.166	28230
810.308	28257
810.45	28116
810.591	28131
810.733	27987
810.875	27964
811.016	27800
811.158	27835
811.299	27930
811.441	28048
811.582	28044
811.724	28048
811.865	27922
812.007	27934
812.148	27865
812.29	27888
812.431	28059
812.573	28249
812.714	28375
812.855	28443
812.997	28421
813.138	28618
813.279	28523
813.421	28497
813.562	28375
813.703	28192
813.845	27998
813.986	27899
814.127	27667
814.268	27583
814.41	27599
814.551	27496
814.692	27633
814.833	27519
814.974	27568
815.115	27580
815.256	27439
815.397	27568
815.539	27393
815.68	27443
815.821	27325
815.962	27332
816.103	27469
816.244	27367
816.385	27230
816.526	27165
816.666	26921
816.807	26868
816.948	26929
817.089	27100
817.23	27089
817.371	26807
817.512	26838
817.653	26891
817.793	26872
817.934	26899
818.075	26880
818.216	26826
818.356	26819
818.497	26815
818.638	26488
818.778	26602
818.919	26583
819.06	26735
819.2	26826
819.341	26895
819.481	26887
819.622	26956
819.762	27157
819.903	27009
820.043	27066
820.184	27062
820.324	26982
820.465	26994
820.605	27047
820.746	27032
820.886	26857
821.026	26998
821.167	26929
821.307	27017
821.447	26937
821.588	26781
821.728	26636
821.868	26568
822.008	26396
822.149	26317
822.289	26259
822.429	26107
822.569	25959
822.709	26024
822.849	25883
822.99	25845
823.13	25887
823.27	25776
823.41	25594
823.55	25445
823.69	25784
823.83	25677
823.97	25624
824.11	25445
824.25	25525
824.389	25601
824.529	25594
824.669	25460
824.809	25647
824.949	25639
825.089	25719
825.228	25537
825.368	25343
825.508	25320
825.648	25381
825.787	25354
825.927	25613
826.067	25225
826.206	25278
826.346	25487
826.485	25369
826.625	25240
826.765	25479
826.904	25335
827.044	25213
827.183	25122
827.323	25050
827.462	25206
827.601	25065
827.741	24996
827.88	25012
828.02	24913
828.159	25023
828.298	25091
828.437	25168
828.577	24985
828.716	25103
828.855	25031
828.994	24840
829.134	24833
829.273	24711
829.412	24806
829.551	24730
829.69	24681
829.829	24768
829.968	24897
830.107	24928
830.246	24802
830.385	24768
830.524	24688
830.663	24597
830.802	24490
830.941	24346
831.08	24330
831.219	24467
831.357	24513
831.496	24707
831.635	24414
831.774	24437
831.913	24281
832.051	24194
832.19	24174
832.329	24251
832.467	24106
832.606	23969
832.744	23935
832.883	23996
833.022	24049
833.16	24060
833.299	24159
833.437	24182
833.576	24163
833.714	24121
833.852	24197
833.991	24117
834.129	24232
834.267	24285
834.406	24072
834.544	24079
834.682	24197
834.821	24091
834.959	24243
835.097	24121
835.235	24129
835.373	24114
835.511	24022
835.65	24049
835.788	24011
835.926	23916
836.064	23927
836.202	23786
836.34	24106
836.478	24030
836.615	23927
836.753	24038
836.891	24057
837.029	24034
837.167	23916
837.305	23954
837.443	23931
837.58	23794
837.718	23961
837.856	23916
837.993	23786
838.131	23817
838.269	23627
838.406	23771
838.544	23566
838.681	23535
838.819	23493
838.956	23429
839.094	23265
839.231	23421
839.369	23452
839.506	23619
839.643	23611
839.781	23322
839.918	23292
840.055	23273
840.193	23307
840.33	23181
840.467	23265
840.604	23204
840.742	23414
840.879	23083
841.016	23223
841.153	23117
841.29	23296
841.427	23280
841.564	23200
841.701	23037
841.838	23208
841.975	23052
842.112	23189
842.249	23067
842.385	23052
842.522	23128
842.659	23022
842.796	22824
842.933	22938
843.069	22900
843.206	22946
843.343	23086
843.479	22942
843.616	22927
843.752	22835
843.889	22847
844.025	22908
844.162	22908
844.298	22809
844.435	22706
844.571	22763
844.708	22778
844.844	22881
844.98	22809
845.117	22881
845.253	22759
845.389	22740
845.525	22641
845.661	22542
845.798	22573
845.934	22508
846.07	22417
846.206	22466
846.342	22603
846.478	22443
846.614	22337
846.75	22276
846.886	22295
847.022	22348
847.158	22230
847.294	22348
847.429	22329
847.565	22268
847.701	22398
847.837	21983
847.972	21915
848.108	22055
848.244	22070
848.379	21732
848.515	21785
848.65	21854
848.786	21766
848.921	21854
849.057	21880
849.192	21709
849.328	21857
849.463	21838
849.598	21762
849.734	21797
849.869	21576
850.004	21656
850.14	21679
850.275	21637
850.41	21515
850.545	21545
850.68	21534
850.815	21583
850.95	21389
851.085	21732
851.22	21595
851.355	21644
851.49	21595
851.625	21542
851.76	21526
851.895	21504
852.03	21473
852.165	21595
852.299	21576
852.434	21530
852.569	21523
852.703	21610
852.838	21629
852.973	21713
853.107	21644
853.242	21557
853.376	21443
853.511	21264
853.645	21363
853.78	21374
853.914	21378
854.048	21351
854.183	21511
854.317	21485
854.451	21561
854.585	21450
854.72	21538
854.854	21549
854.988	21317
855.122	21424
855.256	21287
855.39	21367
855.524	21378
855.658	21526
855.792	21412
855.926	21435
856.06	21359
856.194	21545
856.327	21321
856.461	21424
856.595	21325
856.729	21416
856.862	21428
856.996	21370
857.13	21443
857.263	21492
857.397	21458
857.53	21355
857.664	21469
857.797	21405
857.931	21477
858.064	21382
858.197	21488
858.331	21272
858.464	21325
858.597	21302
858.731	21317
858.864	21374
858.997	21321
859.13	21272
859.263	21370
859.396	21439
859.529	21317
859.662	21374
859.795	21340
859.928	21359
860.061	21564
860.194	21637
860.327	21408
860.46	21416
860.592	21561
860.725	21557
860.858	21473
860.99	21447
861.123	21332
861.256	21302
861.388	21431
861.521	22101
861.653	21370
861.786	21298
861.918	21119
862.05	21222
862.183	21424
862.315	21336
862.447	21359
862.58	21363
862.712	21131
862.844	21157
862.976	21256
863.108	21264
863.24	21671
863.372	21020
863.504	20979
863.636	21081
863.768	21093
863.9	21047
864.032	20899
864.164	21047
864.296	21070
864.428	21169
864.559	21119
864.691	21192
864.823	21176
864.954	21192
865.086	21062
865.217	20994
865.349	20838
865.48	21039
865.612	20929
865.743	21055
865.875	21047
866.006	20819
866.137	20971
866.269	20986
866.4	20948
866.531	20925
866.662	20849
866.793	20925
866.924	20906
867.055	20876
867.186	20857
867.317	20762
867.448	20781
867.579	21036
867.71	20807
867.841	20902
867.972	20918
868.103	21024
868.233	20944
868.364	20899
868.495	21085
868.625	21104
868.756	21218
868.886	21024
869.017	21173
869.147	21237
869.278	21374
869.408	21192
869.539	21310
869.669	21161
869.799	21233
869.929	21268
870.06	21279
870.19	21492
870.32	21443
870.45	21519
870.58	21561
870.71	21656
870.84	21663
870.97	21618
871.1	21500
871.23	21743
871.36	21789
871.489	21690
871.619	21599
871.749	21778
871.879	21808
872.008	21800
872.138	21816
872.267	21781
872.397	21648
872.526	21606
872.656	21614
872.785	21576
872.915	21816
873.044	21998
873.173	21698
873.303	21827
873.432	21694
873.561	21842
873.69	21873
873.819	21732
873.948	21835
874.077	21861
874.206	21797
874.335	21755
874.464	22044
874.593	22090
874.722	22112
874.851	21949
874.979	22109
875.108	22112
875.237	21991
875.365	21800
875.494	22158
875.623	22067
875.751	21994
875.88	22109
876.008	22112
876.136	22173
876.265	22390
876.393	22497
876.521	22508
876.65	22535
876.778	22500
876.906	22375
877.034	22371
877.162	22424
877.29	22268
877.418	22291
877.546	22356
877.674	22398
877.802	22318
877.93	22181
878.058	22280
878.185	22219
878.313	22356
878.441	22341
878.568	22200
878.696	22310
878.824	22325
878.951	22474
879.079	22626
879.206	22577
879.333	22432
879.461	22436
879.588	22402
879.715	22672
879.842	22603
879.97	22516
880.097	22238
880.224	22257
880.351	22207
880.478	22234
880.605	22230
880.732	22204
880.859	22310
880.986	22204
881.112	22223
881.239	22006
881.366	21895
881.493	21895
881.619	21778
881.746	21941
881.872	21778
881.999	21633
882.125	21599
882.252	21793
882.378	21637
882.505	21781
882.631	21595
882.757	21625
882.883	21519
883.01	21469
883.136	21401
883.262	21283
883.388	21283
883.514	21378
883.64	21485
883.766	21462
883.892	21260
884.018	21291
884.143	21393
884.269	21496
884.395	21199
884.52	21074
884.646	21150
884.772	21089
884.897	21032
885.023	21096
885.148	21096
885.274	21192
885.399	21245
885.524	21043
885.65	20998
885.775	21001
885.9	21058
886.025	21127
886.15	21173
886.275	21020
886.4	20982
886.525	21104
886.65	20937
886.775	21043
886.9	21142
887.025	21317
887.149	20982
887.274	20895
887.399	20902
887.523	20857
887.648	20876
887.773	20819
887.897	20864
888.021	20967
888.146	20845
888.27	20975
888.395	20960
888.519	20921
888.643	20906
888.767	20933
888.891	20758
889.015	20701
889.139	20689
889.263	20594
889.387	20880
889.511	20899
889.635	20853
889.759	20632
889.883	20640
890.006	20678
890.13	20731
890.254	20552
890.377	20575
890.501	20488
890.624	20351
890.748	20438
890.871	20313
890.995	20199
891.118	20183
891.241	20286
891.364	20317
891.488	20267
891.611	20187
891.734	20290
891.857	20328
891.98	20199
892.103	20286
892.226	20286
892.349	20248
892.471	20058
892.594	20088
892.717	20161
892.839	20172
892.962	20149
893.085	20221
893.207	20267
893.33	20119
893.452	20005
893.575	20111
893.697	20199
893.819	20191
893.941	20328
894.064	20126
894.186	20069
894.308	19967
894.43	20122
894.552	20214
894.674	20180
894.796	20058
894.918	20046
895.04	20134
895.161	20199
895.283	20058
895.405	20058
895.526	20138
895.648	20054
895.769	20187
895.891	20138
896.012	20149
896.134	20149
896.255	20206
896.376	20107
896.498	20046
896.619	20214
896.74	20062
896.861	20271
896.982	20484
897.103	20469
897.224	20263
897.345	20355
897.466	20332
897.587	20313
897.708	20366
897.828	20385
897.949	20305
898.07	20134
898.19	20161
898.311	20484
898.431	20324
898.552	20275
898.672	20355
898.792	20355
898.913	20434
899.033	20157
899.153	20229
899.273	20096
899.393	20134
899.513	20065
899.633	20214
899.753	20126
899.873	20092
899.993	20016
900.113	20103
900.232	20130
900.352	19967
900.472	19871
900.591	19856
900.711	19875
900.83	19738
900.95	19959
901.069	19959
901.189	19818
901.308	19468
901.427	19384
901.546	19468
901.665	19491
901.784	19460
901.904	19358
902.023	19240
902.141	19050
902.26	19050
902.379	19042
902.498	18981
902.617	18882
902.735	19004
902.854	18943
902.973	18852
903.091	18654
903.21	18566
903.328	18589
903.446	18486
903.565	18498
903.683	18441
903.801	18361
903.919	18433
904.038	18277
904.156	18235
904.274	18254
904.392	18148
904.51	18270
904.627	18224
904.745	18224
904.863	18171
904.981	18049
905.098	17878
905.216	17866
905.334	17931
905.451	17893
905.569	17767
905.686	17946
905.803	17870
905.921	17722
906.038	17851
906.155	17691
906.272	17638
906.389	17573
906.506	17406
906.623	17349
906.74	17417
906.857	17227
906.974	17356
907.091	17425
907.208	17520
907.324	17425
907.441	17280
907.557	17128
907.674	17098
907.79	17060
907.907	17064
908.023	17075
908.139	17098
908.256	17029
908.372	17029
908.488	16972
908.604	16831
908.72	16744
908.836	16911
908.952	16850
909.068	16911
909.184	16889
909.3	16809
909.415	16900
909.531	16835
909.647	16645
909.762	16660
909.878	16470
909.993	16516
910.108	16565
910.224	16489
910.339	16558
910.454	16386
910.57	16417
910.685	16276
910.8	16519
910.915	16432
911.03	16398
911.145	16234
911.259	16086
911.374	16166
911.489	16082
911.604	16013
911.718	15842
911.833	15892
911.947	15652
912.062	15568
912.176	15797
912.291	15892
912.405	15743
912.519	16071
912.633	16086
912.748	15907
912.862	15876
912.976	15656
913.09	15530
913.204	15644
913.318	15614
913.431	15724
913.545	15759
913.659	15778
913.772	15610
913.886	15561
914	15462
914.113	15580
914.226	15538
914.34	15466
914.453	15351
914.566	15572
914.68	15344
914.793	15359
914.906	15077
915.019	15062
915.132	15051
915.245	15097
915.358	15108
915.47	15150
915.583	15108
915.696	15108
915.809	15203
915.921	15275
916.034	15085
916.146	15051
916.259	14990
916.371	15077
916.483	15009
916.595	14956
916.708	14902
916.82	14910
916.932	14948
917.044	14967
917.156	14979
917.268	14807
917.38	14800
917.491	14807
917.603	14693
917.715	14758
917.826	14883
917.938	14777
918.049	14674
918.161	14708
918.272	14861
918.384	14838
918.495	14746
918.606	14556
918.717	14492
918.828	14594
918.939	14587
919.05	14499
919.161	14492
919.272	14252
919.383	14332
919.494	14598
919.604	14727
919.715	14530
919.826	14434
919.936	14438
920.047	14587
920.157	14503
920.267	14765
920.378	14526
920.488	14381
920.598	14701
920.708	14823
920.818	14625
920.928	14648
921.038	14712
921.148	14750
921.258	14442
921.368	14358
921.477	14336
921.587	14218
921.697	14111
921.806	14206
921.916	14123
922.025	14027
922.134	13917
922.244	13902
922.353	13894
922.462	13868
922.571	13761
922.68	13559
922.789	13586
922.898	13639
923.007	13487
923.116	13643
923.224	13487
923.333	13422
923.442	13373
923.55	13293
923.659	13392
923.767	13422
923.876	13236
923.984	13476
924.092	13228
924.201	13263
924.309	13335
924.417	13327
924.525	13221
924.633	13217
924.741	13951
924.849	13008
924.956	13137
925.064	12958
925.172	12859
925.279	12954
925.387	12977
925.494	12867
925.602	13038
925.709	13015
925.816	12947
925.924	12928
926.031	12909
926.138	12970
926.245	12909
926.352	12757
926.459	12894
926.566	13046
926.673	12821
926.779	12692
926.886	12726
926.993	12578
927.099	12498
927.206	12456
927.312	12369
927.419	12521
927.525	12452
927.631	12631
927.737	12452
927.843	12365
927.95	12213
928.056	12323
928.162	12350
928.267	12399
928.373	13099
928.479	12369
928.585	12159
928.69	12273
928.796	12403
928.901	12167
929.007	12079
929.112	12148
929.218	12224
929.323	12019
929.428	12148
929.533	12190
929.638	11996
929.743	12076
929.848	12079
929.953	12079
930.058	11908
930.163	11737
930.267	11760
930.372	11870
930.477	11699
930.581	11866
930.685	11828
930.79	11718
930.894	11627
930.998	11566
931.103	11695
931.207	11402
931.311	11353
931.415	11197
931.519	11014
931.623	11033
