Data from test_V78500241_927.txt Node
Date: Fri Mar 25 15:16:18 CST 2022
User: usil
Spectrometer: V785-0024
Trigger mode: 0
Integration Time (sec): 4.000000E-1
Scans to average: 1
Nonlinearity correction enabled: false
Boxcar width: 0
Storing dark spectrum: false
XAxis mode: Wavelengths
Number of Pixels in Spectrum: 1024
>>>>>Begin Spectral Data<<<<<
801.071	28097
801.214	28017
801.356	27675
801.499	27633
801.641	27416
801.783	27500
801.926	27595
802.068	27641
802.211	27450
802.353	27405
802.496	27230
802.638	27100
802.78	27218
802.923	27188
803.065	27108
803.208	27138
803.35	27154
803.492	27249
803.635	27272
803.777	27112
803.919	27192
804.061	27679
804.204	27298
804.346	27408
804.488	27291
804.63	27310
804.773	27325
804.915	27321
805.057	27500
805.199	27298
805.341	27443
805.483	27538
805.626	27481
805.768	27329
805.91	27412
806.052	27500
806.194	27329
806.336	27667
806.478	27523
806.62	27743
806.762	27656
806.904	27827
807.046	28021
807.188	28120
807.33	27983
807.472	27918
807.614	27835
807.756	27968
807.898	27759
808.04	27743
808.182	27755
808.324	27884
808.465	27857
808.607	28048
808.749	28207
808.891	28272
809.033	28215
809.174	28158
809.316	28120
809.458	28188
809.6	28188
809.741	28382
809.883	28147
810.025	28459
810.166	28394
810.308	28451
810.45	28375
810.591	28390
810.733	28181
810.875	28234
811.016	28025
811.158	27983
811.299	28318
811.441	28265
811.582	28234
811.724	28143
811.865	28101
812.007	28063
812.148	28188
812.29	28169
812.431	28238
812.573	28470
812.714	28538
812.855	28729
812.997	28733
813.138	28991
813.279	28805
813.421	28752
813.562	28653
813.703	28398
813.845	28379
813.986	28169
814.127	28025
814.268	27861
814.41	27831
814.551	27953
814.692	27835
814.833	27873
814.974	27739
815.115	27831
815.256	27720
815.397	27812
815.539	27846
815.68	27823
815.821	27553
815.962	27728
816.103	27679
816.244	27523
816.385	27523
816.526	27370
816.666	27317
816.807	27176
816.948	27294
817.089	27408
817.23	27184
817.371	27077
817.512	27154
817.653	27260
817.793	27135
817.934	27230
818.075	27218
818.216	27184
818.356	27142
818.497	26967
818.638	26872
818.778	26887
818.919	27020
819.06	27001
819.2	27119
819.341	27154
819.481	27036
819.622	27203
819.762	27378
819.903	27393
820.043	27313
820.184	27260
820.324	27268
820.465	27344
820.605	27447
820.746	27287
820.886	27233
821.026	27302
821.167	27055
821.307	27211
821.447	27146
821.588	27169
821.728	26918
821.868	26716
822.008	26746
822.149	26697
822.289	26625
822.429	26320
822.569	26320
822.709	26301
822.849	26092
822.99	26225
823.13	26134
823.27	26119
823.41	25913
823.55	26001
823.69	26020
823.83	25963
823.97	25871
824.11	25765
824.25	25784
824.389	25727
824.529	25856
824.669	25902
824.809	25993
824.949	25818
825.089	25845
825.228	25917
825.368	25594
825.508	25746
825.648	25795
825.787	25556
825.927	25727
826.067	25662
826.206	25727
826.346	25708
826.485	25708
826.625	25693
826.765	25708
826.904	25674
827.044	25419
827.183	25460
827.323	25308
827.462	25449
827.601	25419
827.741	25388
827.88	25369
828.02	25384
828.159	25304
828.298	25392
828.437	25468
828.577	25327
828.716	25563
828.855	25225
828.994	25088
829.134	25038
829.273	25187
829.412	25118
829.551	24958
829.69	25160
829.829	25187
829.968	25282
830.107	25099
830.246	24992
830.385	24909
830.524	25107
830.663	24977
830.802	24837
830.941	24608
831.08	24631
831.219	24661
831.357	24715
831.496	24932
831.635	24631
831.774	24620
831.913	24646
832.051	24471
832.19	24601
832.329	24509
832.467	24403
832.606	24315
832.744	24361
832.883	24361
833.022	24395
833.16	24353
833.299	24346
833.437	24456
833.576	24467
833.714	24494
833.852	24559
833.991	24479
834.129	24433
834.267	24509
834.406	24418
834.544	24479
834.682	24479
834.821	24410
834.959	24593
835.097	24426
835.235	24570
835.373	24445
835.511	24475
835.65	24289
835.788	24330
835.926	24136
836.064	24213
836.202	24083
836.34	24350
836.478	24338
836.615	24194
836.753	24258
836.891	24448
837.029	24338
837.167	24201
837.305	24190
837.443	24285
837.58	24034
837.718	24239
837.856	24129
837.993	23969
838.131	24030
838.269	23961
838.406	23996
838.544	24076
838.681	23843
838.819	23714
838.956	23657
839.094	23604
839.231	23543
839.369	23748
839.506	23942
839.643	23916
839.781	23638
839.918	23558
840.055	23478
840.193	23570
840.33	23478
840.467	23478
840.604	23573
840.742	23794
840.879	23376
841.016	23474
841.153	23299
841.29	23585
841.427	23581
841.564	23474
841.701	23623
841.838	23471
841.975	23383
842.112	23376
842.249	23216
842.385	23227
842.522	23566
842.659	23307
842.796	23299
842.933	23235
843.069	23189
843.206	23246
843.343	23360
843.479	23425
843.616	23181
843.752	23052
843.889	23227
844.025	23239
844.162	23003
844.298	23098
844.435	22984
844.571	22911
844.708	23121
844.844	23223
844.98	23254
845.117	23185
845.253	22976
845.389	22900
845.525	22991
845.661	22858
845.798	22809
845.934	22904
846.07	22736
846.206	22824
846.342	22820
846.478	22889
846.614	22626
846.75	22478
846.886	22447
847.022	22630
847.158	22485
847.294	22557
847.429	22538
847.565	22440
847.701	22755
847.837	22185
847.972	22230
848.108	22424
848.244	22303
848.379	22055
848.515	22204
848.65	21975
848.786	22101
848.921	21987
849.057	22226
849.192	22268
849.328	22128
849.463	22078
849.598	22040
849.734	22010
849.869	21937
850.004	21911
850.14	21793
850.275	21926
850.41	21766
850.545	21842
850.68	21804
850.815	21930
850.95	21793
851.085	21968
851.22	21930
851.355	21869
851.49	21755
851.625	21842
851.76	21804
851.895	21717
852.03	21701
852.165	21857
852.299	21876
852.434	21937
852.569	21816
852.703	21876
852.838	21930
852.973	21956
853.107	22029
853.242	21823
853.376	21724
853.511	21557
853.645	21660
853.78	21816
853.914	21610
854.048	21739
854.183	21561
854.317	21793
854.451	21835
854.585	21629
854.72	21728
854.854	21743
854.988	21656
855.122	21728
855.256	21526
855.39	21739
855.524	21770
855.658	21663
855.792	21660
855.926	21690
856.06	21747
856.194	21876
856.327	21690
856.461	21553
856.595	21690
856.729	21663
856.862	21789
856.996	21679
857.13	21747
857.263	21739
857.397	21728
857.53	21701
857.664	21743
857.797	21789
857.931	21747
858.064	21766
858.197	21720
858.331	21644
858.464	21572
858.597	21603
858.731	21713
858.864	21564
858.997	21583
859.13	21736
859.263	21682
859.396	21808
859.529	21690
859.662	21705
859.795	21675
859.928	21701
860.061	21880
860.194	21869
860.327	21793
860.46	21576
860.592	21736
860.725	21793
860.858	21720
860.99	21622
861.123	21675
861.256	21625
861.388	21675
861.521	22527
861.653	21553
861.786	21439
861.918	21572
862.05	21542
862.183	21583
862.315	21583
862.447	21705
862.58	21675
862.712	21325
862.844	21416
862.976	21340
863.108	21424
863.24	21800
863.372	21336
863.504	21313
863.636	21469
863.768	21351
863.9	21443
864.032	21351
864.164	21340
864.296	21317
864.428	21416
864.559	21477
864.691	21454
864.823	21431
864.954	21348
865.086	21408
865.217	21321
865.349	21264
865.48	21150
865.612	21275
865.743	21382
865.875	21275
866.006	21275
866.137	21252
866.269	21313
866.4	21283
866.531	21188
866.662	21275
866.793	21264
866.924	21127
867.055	21211
867.186	21294
867.317	21214
867.448	21180
867.579	21093
867.71	21100
867.841	21116
867.972	21298
868.103	21199
868.233	21260
868.364	21260
868.495	21287
868.625	21374
868.756	21485
868.886	21336
869.017	21488
869.147	21504
869.278	21576
869.408	21447
869.539	21504
869.669	21576
869.799	21435
869.929	21443
870.06	21610
870.19	21660
870.32	21736
870.45	21728
870.58	21789
870.71	21854
870.84	21987
870.97	21789
871.1	21838
871.23	21979
871.36	22006
871.489	21819
871.619	22021
871.749	22025
871.879	22063
872.008	22173
872.138	22112
872.267	22036
872.397	21964
872.526	21800
872.656	21888
872.785	21865
872.915	22078
873.044	22242
873.173	22025
873.303	21979
873.432	22063
873.561	22158
873.69	22017
873.819	22070
873.948	22093
874.077	22048
874.206	22032
874.335	21956
874.464	22135
874.593	22291
874.722	22169
874.851	22341
874.979	22276
875.108	22341
875.237	22196
875.365	22249
875.494	22242
875.623	22424
875.751	22162
875.88	22226
876.008	22303
876.136	22546
876.265	22622
876.393	22809
876.521	22713
876.65	22793
876.778	22546
876.906	22664
877.034	22588
877.162	22641
877.29	22516
877.418	22550
877.546	22809
877.674	22615
877.802	22607
877.93	22683
878.058	22527
878.185	22512
878.313	22618
878.441	22630
878.568	22303
878.696	22573
878.824	22626
878.951	22611
879.079	22824
879.206	22923
879.333	22843
879.461	22584
879.588	22672
879.715	22786
879.842	22900
879.97	22622
880.097	22550
880.224	22402
880.351	22348
880.478	22516
880.605	22580
880.732	22390
880.859	22580
880.986	22436
881.112	22451
881.239	22268
881.366	22150
881.493	22196
881.619	21876
881.746	22036
881.872	22078
881.999	22082
882.125	21865
882.252	21949
882.378	22070
882.505	22158
882.631	21797
882.757	21819
882.883	21778
883.01	21603
883.136	21622
883.262	21610
883.388	21553
883.514	21656
883.64	21778
883.766	21622
883.892	21447
884.018	21454
884.143	21545
884.269	21713
884.395	21435
884.52	21268
884.646	21348
884.772	21340
884.897	21241
885.023	21378
885.148	21477
885.274	21511
885.399	21401
885.524	21306
885.65	21378
885.775	21428
885.9	21302
886.025	21370
886.15	21412
886.275	21382
886.4	21180
886.525	21351
886.65	21382
886.775	21161
886.9	21363
887.025	21447
887.149	21291
887.274	21226
887.399	21161
887.523	21051
887.648	21017
887.773	20963
887.897	21116
888.021	21146
888.146	20979
888.27	21157
888.395	21173
888.519	21074
888.643	21150
888.767	21249
888.891	20986
889.015	20944
889.139	21001
889.263	20864
889.387	21055
889.511	21100
889.635	21066
889.759	20902
889.883	20921
890.006	20883
890.13	21005
890.254	20804
890.377	20754
890.501	20708
890.624	20556
890.748	20682
890.871	20552
890.995	20503
891.118	20374
891.241	20499
891.364	20419
891.488	20587
891.611	20560
891.734	20473
891.857	20473
891.98	20549
892.103	20503
892.226	20457
892.349	20454
892.471	20130
892.594	20419
892.717	20400
892.839	20271
892.962	20389
893.085	20556
893.207	20271
893.33	20275
893.452	20248
893.575	20309
893.697	20248
893.819	20541
893.941	20636
894.064	20507
894.186	20294
894.308	20317
894.43	20476
894.552	20507
894.674	20408
894.796	20244
894.918	20301
895.04	20370
895.161	20419
895.283	20450
895.405	20514
895.526	20476
895.648	20271
895.769	20457
895.891	20461
896.012	20427
896.134	20374
896.255	20290
896.376	20339
896.498	20317
896.619	20457
896.74	20377
896.861	20438
896.982	20674
897.103	20750
897.224	20670
897.345	20564
897.466	20651
897.587	20522
897.708	20632
897.828	20682
897.949	20507
898.07	20408
898.19	20537
898.311	20796
898.431	20476
898.552	20457
898.672	20571
898.792	20495
898.913	20613
899.033	20400
899.153	20305
899.273	20339
899.393	20339
899.513	20389
899.633	20374
899.753	20389
899.873	20221
899.993	20290
900.113	20263
900.232	20275
900.352	20278
900.472	20183
900.591	20058
900.711	20115
900.83	19978
900.95	20168
901.069	20138
901.189	19906
901.308	19681
901.427	19723
901.546	19601
901.665	19670
901.784	19609
901.904	19476
902.023	19415
902.141	19343
902.26	19209
902.379	19304
902.498	19255
902.617	19274
902.735	19118
902.854	19152
902.973	19061
903.091	18852
903.21	18856
903.328	18894
903.446	18776
903.565	18589
903.683	18700
903.801	18544
903.919	18566
904.038	18528
904.156	18490
904.274	18445
904.392	18414
904.51	18319
904.627	18369
904.745	18429
904.863	18483
904.981	18251
905.098	18098
905.216	18140
905.334	18114
905.451	18136
905.569	18057
905.686	18178
905.803	18091
905.921	17805
906.038	17973
906.155	17946
906.272	17859
906.389	17699
906.506	17703
906.623	17573
906.74	17657
906.857	17414
906.974	17512
907.091	17638
907.208	17752
907.324	17589
907.441	17429
907.557	17402
907.674	17322
907.79	17239
907.907	17288
908.023	17383
908.139	17296
908.256	17334
908.372	17280
908.488	17235
908.604	17185
908.72	16991
908.836	17113
908.952	17064
909.068	16980
909.184	17166
909.3	17094
909.415	17105
909.531	17037
909.647	16824
909.762	16710
909.878	16919
909.993	16862
910.108	16809
910.224	16664
910.339	16691
910.454	16599
910.57	16569
910.685	16405
910.8	16771
910.915	16660
911.03	16615
911.145	16402
911.259	16402
911.374	16413
911.489	16280
911.604	16284
911.718	16173
911.833	16097
911.947	15991
912.062	15991
912.176	16059
912.291	16013
912.405	16086
912.519	16162
912.633	16268
912.748	16112
912.862	16071
912.976	15953
913.09	15736
913.204	15903
913.318	15934
913.431	16013
913.545	15892
913.659	15953
913.772	15846
913.886	15743
914	15648
914.113	15713
914.226	15876
914.34	15675
914.453	15610
914.566	15778
914.68	15648
914.793	15591
914.906	15439
915.019	15370
915.132	15279
915.245	15252
915.358	15344
915.47	15332
915.583	15256
915.696	15359
915.809	15428
915.921	15496
916.034	15340
916.146	15195
916.259	15180
916.371	15138
916.483	15161
916.595	15157
916.708	15104
916.82	15055
916.932	15085
917.044	15066
917.156	15055
917.268	14910
917.38	14944
917.491	15039
917.603	14853
917.715	15039
917.826	14975
917.938	14906
918.049	14785
918.161	14864
918.272	15039
918.384	15058
918.495	14891
918.606	14762
918.717	14629
918.828	14720
918.939	14785
919.05	14560
919.161	14625
919.272	14488
919.383	14511
919.494	14754
919.604	14914
919.715	14632
919.826	14564
919.936	14655
920.047	14785
920.157	14716
920.267	14914
920.378	14678
920.488	14594
920.598	14819
920.708	15024
920.818	14811
920.928	14743
921.038	14800
921.148	14921
921.258	14606
921.368	14438
921.477	14343
921.587	14385
921.697	14263
921.806	14415
921.916	14301
922.025	14050
922.134	14020
922.244	14088
922.353	14073
922.462	14012
922.571	13837
922.68	13708
922.789	13742
922.898	13681
923.007	13696
923.116	13655
923.224	13715
923.333	13636
923.442	13476
923.55	13438
923.659	13605
923.767	13575
923.876	13487
923.984	13540
924.092	13316
924.201	13430
924.309	13415
924.417	13422
924.525	13396
924.633	13411
924.741	14229
924.849	13126
924.956	13335
925.064	13244
925.172	12989
925.279	13088
925.387	13072
925.494	13088
925.602	13247
925.709	13209
925.816	12909
925.924	13038
926.031	13168
926.138	13027
926.245	13034
926.352	12993
926.459	13015
926.566	13069
926.673	12970
926.779	12894
926.886	12840
926.993	12684
927.099	12639
927.206	12639
927.312	12563
927.419	12616
927.525	12642
927.631	12711
927.737	12532
927.843	12555
927.95	12304
928.056	12513
928.162	12429
928.267	12521
928.373	13076
928.479	12448
928.585	12239
928.69	12395
928.796	12429
928.901	12289
929.007	12167
929.112	12300
929.218	12254
929.323	12273
929.428	12186
929.533	12285
929.638	12076
929.743	12068
929.848	12136
929.953	12091
930.058	11984
930.163	11821
930.267	11882
930.372	12026
930.477	11805
930.581	12030
930.685	11863
930.79	11680
930.894	11790
930.998	11790
931.103	11828
931.207	11566
931.311	11402
931.415	11376
931.519	11109
931.623	11128
