Data from test_V78500241_2085.txt Node
Date: Fri Mar 25 15:24:22 CST 2022
User: usil
Spectrometer: V785-0024
Trigger mode: 0
Integration Time (sec): 4.000000E-1
Scans to average: 1
Nonlinearity correction enabled: false
Boxcar width: 0
Storing dark spectrum: false
XAxis mode: Wavelengths
Number of Pixels in Spectrum: 1024
>>>>>Begin Spectral Data<<<<<
801.071	27884
801.214	27713
801.356	27515
801.499	27477
801.641	27427
801.783	27313
801.926	27351
802.068	27454
802.211	27325
802.353	27245
802.496	27009
802.638	27089
802.78	26975
802.923	26982
803.065	26975
803.208	26872
803.35	26967
803.492	27203
803.635	27214
803.777	27157
803.919	27184
804.061	27538
804.204	27135
804.346	27302
804.488	27135
804.63	27211
804.773	27039
804.915	27184
805.057	27302
805.199	27150
805.341	27336
805.483	27291
805.626	27424
805.768	27135
805.91	27310
806.052	27294
806.194	27116
806.336	27488
806.478	27218
806.62	27340
806.762	27359
806.904	27603
807.046	27797
807.188	27751
807.33	27766
807.472	27930
807.614	27648
807.756	27675
807.898	27656
808.04	27637
808.182	27660
808.324	27679
808.465	27679
808.607	27835
808.749	28013
808.891	28036
809.033	28029
809.174	28017
809.316	27892
809.458	27880
809.6	27926
809.741	28139
809.883	28143
810.025	28314
810.166	28249
810.308	28299
810.45	28086
810.591	28131
810.733	27926
810.875	27907
811.016	27903
811.158	27865
811.299	27953
811.441	28135
811.582	28013
811.724	27899
811.865	27876
812.007	27975
812.148	27956
812.29	28063
812.431	28287
812.573	28299
812.714	28360
812.855	28489
812.997	28565
813.138	28786
813.279	28519
813.421	28557
813.562	28367
813.703	28284
813.845	28234
813.986	27975
814.127	27747
814.268	27660
814.41	27774
814.551	27797
814.692	27766
814.833	27644
814.974	27568
815.115	27686
815.256	27576
815.397	27610
815.539	27587
815.68	27420
815.821	27424
815.962	27488
816.103	27435
816.244	27405
816.385	27241
816.526	27154
816.666	27154
816.807	26921
816.948	27005
817.089	27142
817.23	26842
817.371	26994
817.512	27108
817.653	26960
817.793	26979
817.934	27116
818.075	26883
818.216	27005
818.356	26937
818.497	26891
818.638	26712
818.778	26765
818.919	26689
819.06	26701
819.2	26887
819.341	26940
819.481	26830
819.622	27135
819.762	27264
819.903	27089
820.043	27195
820.184	27077
820.324	27176
820.465	27123
820.605	26967
820.746	26948
820.886	26739
821.026	26948
821.167	26967
821.307	27135
821.447	26929
821.588	26716
821.728	26834
821.868	26667
822.008	26324
822.149	26377
822.289	26343
822.429	26100
822.569	26119
822.709	26050
822.849	25849
822.99	25849
823.13	25830
823.27	25925
823.41	25814
823.55	25643
823.69	25715
823.83	25753
823.97	25655
824.11	25487
824.25	25628
824.389	25525
824.529	25639
824.669	25605
824.809	25708
824.949	25738
825.089	25624
825.228	25651
825.368	25327
825.508	25422
825.648	25373
825.787	25430
825.927	25358
826.067	25419
826.206	25407
826.346	25331
826.485	25487
826.625	25358
826.765	25464
826.904	25594
827.044	25263
827.183	25232
827.323	25232
827.462	25206
827.601	25152
827.741	25133
827.88	25156
828.02	25076
828.159	25126
828.298	25164
828.437	25217
828.577	25065
828.716	25179
828.855	25042
828.994	24825
829.134	24871
829.273	24901
829.412	24696
829.551	24623
829.69	24745
829.829	24901
829.968	24913
830.107	24798
830.246	24798
830.385	24817
830.524	24833
830.663	24604
830.802	24475
830.941	24445
831.08	24281
831.219	24388
831.357	24528
831.496	24711
831.635	24593
831.774	24357
831.913	24311
832.051	24273
832.19	24163
832.329	24304
832.467	24277
832.606	24083
832.744	24034
832.883	24034
833.022	24155
833.16	24091
833.299	24201
833.437	24125
833.576	24171
833.714	24174
833.852	24258
833.991	24258
834.129	24304
834.267	24216
834.406	24213
834.544	24106
834.682	24129
834.821	24247
834.959	24266
835.097	24076
835.235	24038
835.373	24251
835.511	24045
835.65	24011
835.788	23920
835.926	23851
836.064	23748
836.202	23866
836.34	23870
836.478	24057
836.615	23988
836.753	23920
836.891	24117
837.029	23882
837.167	23920
837.305	24030
837.443	23889
837.58	23832
837.718	23927
837.856	23794
837.993	23661
838.131	23726
838.269	23649
838.406	23824
838.544	23630
838.681	23493
838.819	23440
838.956	23337
839.094	23307
839.231	23299
839.369	23474
839.506	23752
839.643	23558
839.781	23364
839.918	23140
840.055	23360
840.193	23269
840.33	23200
840.467	23200
840.604	23208
840.742	23440
840.879	23102
841.016	23223
841.153	23079
841.29	23315
841.427	23204
841.564	23273
841.701	23216
841.838	23197
841.975	23155
842.112	23185
842.249	23155
842.385	23132
842.522	23086
842.659	22980
842.796	22934
842.933	23071
843.069	22972
843.206	22839
843.343	22995
843.479	22968
843.616	22987
843.752	22660
843.889	22729
844.025	22877
844.162	22713
844.298	22904
844.435	22797
844.571	22790
844.708	22774
844.844	22786
844.98	22881
845.117	22801
845.253	22618
845.389	22565
845.525	22599
845.661	22569
845.798	22538
845.934	22550
846.07	22337
846.206	22516
846.342	22660
846.478	22443
846.614	22177
846.75	22322
846.886	22192
847.022	22276
847.158	22249
847.294	22261
847.429	22196
847.565	22253
847.701	22519
847.837	21953
847.972	21945
848.108	21994
848.244	22006
848.379	21804
848.515	21781
848.65	21774
848.786	21785
848.921	21800
849.057	21930
849.192	21857
849.328	21861
849.463	21759
849.598	21774
849.734	21728
849.869	21633
850.004	21633
850.14	21637
850.275	21553
850.41	21496
850.545	21629
850.68	21389
850.815	21587
850.95	21561
851.085	21728
851.22	21580
851.355	21526
851.49	21595
851.625	21500
851.76	21515
851.895	21488
852.03	21458
852.165	21500
852.299	21515
852.434	21755
852.569	21641
852.703	21530
852.838	21713
852.973	21606
853.107	21644
853.242	21511
853.376	21393
853.511	21344
853.645	21226
853.78	21477
853.914	21397
854.048	21264
854.183	21412
854.317	21397
854.451	21507
854.585	21492
854.72	21412
854.854	21401
854.988	21329
855.122	21412
855.256	21256
855.39	21325
855.524	21405
855.658	21534
855.792	21393
855.926	21492
856.06	21420
856.194	21545
856.327	21344
856.461	21405
856.595	21268
856.729	21279
856.862	21378
856.996	21405
857.13	21435
857.263	21542
857.397	21500
857.53	21291
857.664	21367
857.797	21485
857.931	21466
858.064	21363
858.197	21462
858.331	21530
858.464	21230
858.597	21291
858.731	21359
858.864	21332
858.997	21313
859.13	21473
859.263	21382
859.396	21515
859.529	21374
859.662	21306
859.795	21184
859.928	21317
860.061	21504
860.194	21595
860.327	21424
860.46	21420
860.592	21492
860.725	21492
860.858	21359
860.99	21481
861.123	21321
861.256	21317
861.388	21332
861.521	22185
861.653	21329
861.786	21154
861.918	21264
862.05	21279
862.183	21302
862.315	21268
862.447	21572
862.58	21291
862.712	21070
862.844	21100
862.976	21275
863.108	21127
863.24	21454
863.372	21062
863.504	21070
863.636	21157
863.768	21169
863.9	21127
864.032	21028
864.164	21039
864.296	21180
864.428	21142
864.559	21039
864.691	21150
864.823	21108
864.954	21077
865.086	21116
865.217	20956
865.349	20868
865.48	20967
865.612	21116
865.743	21188
865.875	21081
866.006	20902
866.137	20937
866.269	21017
866.4	20872
866.531	20842
866.662	20845
866.793	20891
866.924	20910
867.055	20948
867.186	21009
867.317	20845
867.448	20785
867.579	20906
867.71	20735
867.841	20887
867.972	21005
868.103	20876
868.233	21024
868.364	20944
868.495	21070
868.625	21157
868.756	21291
868.886	20971
869.017	21135
869.147	21077
869.278	21222
869.408	21169
869.539	21146
869.669	21188
869.799	21260
869.929	21317
870.06	21173
870.19	21496
870.32	21370
870.45	21466
870.58	21618
870.71	21755
870.84	21610
870.97	21538
871.1	21504
871.23	21857
871.36	21648
871.489	21606
871.619	21705
871.749	21686
871.879	21751
872.008	21755
872.138	21800
872.267	21747
872.397	21583
872.526	21583
872.656	21656
872.785	21606
872.915	21667
873.044	21816
873.173	21797
873.303	21831
873.432	21781
873.561	21892
873.69	21743
873.819	21633
873.948	21797
874.077	21736
874.206	21857
874.335	21717
874.464	21785
874.593	22131
874.722	21960
874.851	22017
874.979	21987
875.108	21922
875.237	22032
875.365	21975
875.494	21918
875.623	22051
875.751	21876
875.88	22044
876.008	22010
876.136	22109
876.265	22398
876.393	22386
876.521	22485
876.65	22421
876.778	22402
876.906	22424
877.034	22329
877.162	22356
877.29	22371
877.418	22249
877.546	22413
877.674	22253
877.802	22268
877.93	22249
878.058	22341
878.185	22223
878.313	22135
878.441	22424
878.568	22268
878.696	22219
878.824	22367
878.951	22318
879.079	22470
879.206	22691
879.333	22611
879.461	22405
879.588	22405
879.715	22447
879.842	22596
879.97	22440
880.097	22223
880.224	22105
880.351	22230
880.478	22276
880.605	22154
880.732	22185
880.859	22413
880.986	22162
881.112	22097
881.239	22002
881.366	21907
881.493	21838
881.619	21770
881.746	21701
881.872	21819
881.999	21694
882.125	21637
882.252	21869
882.378	21717
882.505	21785
882.631	21595
882.757	21435
882.883	21648
883.01	21534
883.136	21439
883.262	21336
883.388	21283
883.514	21469
883.64	21382
883.766	21412
883.892	21142
884.018	21344
884.143	21363
884.269	21492
884.395	21211
884.52	21077
884.646	21169
884.772	21028
884.897	20994
885.023	21039
885.148	21165
885.274	21207
885.399	21169
885.524	20979
885.65	21119
885.775	21123
885.9	21173
886.025	21165
886.15	21203
886.275	21093
886.4	21051
886.525	21028
886.65	20990
886.775	20967
886.9	21142
887.025	21256
887.149	20960
887.274	20826
887.399	20773
887.523	20792
887.648	20944
887.773	20659
887.897	20910
888.021	20929
888.146	20788
888.27	20807
888.395	20849
888.519	20902
888.643	20842
888.767	20853
888.891	20716
889.015	20560
889.139	20590
889.263	20617
889.387	20705
889.511	20857
889.635	20727
889.759	20625
889.883	20511
890.006	20716
890.13	20640
890.254	20469
890.377	20549
890.501	20396
890.624	20305
890.748	20461
890.871	20313
890.995	20142
891.118	20278
891.241	20199
891.364	20237
891.488	20431
891.611	20263
891.734	20233
891.857	20339
891.98	20225
892.103	20256
892.226	20119
892.349	20225
892.471	20073
892.594	20073
892.717	20202
892.839	20142
892.962	20081
893.085	20214
893.207	19989
893.33	20077
893.452	19993
893.575	20062
893.697	20035
893.819	20195
893.941	20294
894.064	20286
894.186	20065
894.308	20100
894.43	20183
894.552	20324
894.674	20298
894.796	20096
894.918	20073
895.04	20058
895.161	20149
895.283	20176
895.405	19982
895.526	20046
895.648	20077
895.769	20172
895.891	20126
896.012	20210
896.134	20199
896.255	20119
896.376	20077
896.498	20054
896.619	20149
896.74	20138
896.861	20206
896.982	20393
897.103	20606
897.224	20408
897.345	20358
897.466	20343
897.587	20404
897.708	20499
897.828	20343
897.949	20256
898.07	20149
898.19	20195
898.311	20271
898.431	20221
898.552	20313
898.672	20438
898.792	20488
898.913	20305
899.033	20252
899.153	20142
899.273	20031
899.393	20092
899.513	20081
899.633	20058
899.753	20138
899.873	20058
899.993	20187
900.113	20100
900.232	20024
900.352	19944
900.472	19921
900.591	19731
900.711	19849
900.83	19913
900.95	19894
901.069	19890
901.189	19704
901.308	19499
901.427	19480
901.546	19521
901.665	19419
901.784	19453
901.904	19274
902.023	19259
902.141	19091
902.26	19012
902.379	19164
902.498	18935
902.617	18871
902.735	18920
902.854	18932
902.973	18840
903.091	18642
903.21	18612
903.328	18582
903.446	18509
903.565	18475
903.683	18475
903.801	18323
903.919	18410
904.038	18315
904.156	18213
904.274	18319
904.392	18182
904.51	18125
904.627	18102
904.745	18228
904.863	18220
904.981	18034
905.098	17889
905.216	17863
905.334	17786
905.451	17946
905.569	17821
905.686	17935
905.803	17840
905.921	17741
906.038	17733
906.155	17646
906.272	17596
906.389	17608
906.506	17364
906.623	17372
906.74	17410
906.857	17402
906.974	17372
907.091	17577
907.208	17520
907.324	17379
907.441	17307
907.557	17174
907.674	17189
907.79	17041
907.907	17079
908.023	17239
908.139	17105
908.256	17045
908.372	16995
908.488	16976
908.604	16896
908.72	16858
908.836	16828
908.952	16790
909.068	16995
909.184	16866
909.3	16828
909.415	16801
909.531	16824
909.647	16527
909.762	16599
909.878	16470
909.993	16516
910.108	16577
910.224	16550
910.339	16546
910.454	16466
910.57	16329
910.685	16249
910.8	16519
910.915	16637
911.03	16363
911.145	16234
911.259	16112
911.374	16120
911.489	16120
911.604	16097
911.718	15873
911.833	15899
911.947	15816
912.062	15667
912.176	15732
912.291	15827
912.405	15873
912.519	16010
912.633	16078
912.748	16036
912.862	15880
912.976	15739
913.09	15564
913.204	15736
913.318	15770
913.431	15797
913.545	15903
913.659	15812
913.772	15618
913.886	15549
914	15515
914.113	15599
914.226	15648
914.34	15591
914.453	15412
914.566	15557
914.68	15420
914.793	15386
914.906	15218
915.019	15085
915.132	14990
915.245	15100
915.358	15127
915.47	15199
915.583	15077
915.696	15116
915.809	15222
915.921	15146
916.034	15176
916.146	15039
916.259	14994
916.371	15062
916.483	15028
916.595	14952
916.708	14902
916.82	14960
916.932	14944
917.044	14872
917.156	14765
917.268	14716
917.38	14758
917.491	14689
917.603	14705
917.715	14800
917.826	14849
917.938	14629
918.049	14640
918.161	14655
918.272	14872
918.384	14727
918.495	14629
918.606	14518
918.717	14465
918.828	14564
918.939	14446
919.05	14396
919.161	14465
919.272	14332
919.383	14336
919.494	14473
919.604	14701
919.715	14530
919.826	14431
919.936	14499
920.047	14564
920.157	14514
920.267	14644
920.378	14457
920.488	14446
920.598	14503
920.708	14769
920.818	14587
920.928	14613
921.038	14819
921.148	14632
921.258	14396
921.368	14305
921.477	14191
921.587	14111
921.697	14073
921.806	14214
921.916	14046
922.025	13982
922.134	13845
922.244	13856
922.353	13791
922.462	13700
922.571	13556
922.68	13460
922.789	13510
922.898	13537
923.007	13422
923.116	13506
923.224	13426
923.333	13354
923.442	13324
923.55	13320
923.659	13312
923.767	13381
923.876	13247
923.984	13362
924.092	13236
924.201	13209
924.309	13297
924.417	13263
924.525	13247
924.633	13164
924.741	13925
924.849	12909
924.956	13122
925.064	12920
925.172	12787
925.279	12886
925.387	12928
925.494	12985
925.602	12996
925.709	12935
925.816	12859
925.924	12886
926.031	12916
926.138	12856
926.245	12768
926.352	12810
926.459	12878
926.566	13065
926.673	12844
926.779	12738
926.886	12673
926.993	12483
927.099	12517
927.206	12456
927.312	12426
927.419	12479
927.525	12483
927.631	12479
927.737	12422
927.843	12384
927.95	12319
928.056	12273
928.162	12311
928.267	12330
928.373	12962
928.479	12403
928.585	12182
928.69	12296
928.796	12289
928.901	12140
929.007	11977
929.112	12167
929.218	12159
929.323	12083
929.428	12083
929.533	12224
929.638	11965
929.743	11969
929.848	12015
929.953	11916
930.058	11999
930.163	11680
930.267	11733
930.372	11809
930.477	11756
930.581	11931
930.685	11798
930.79	11551
930.894	11596
930.998	11638
931.103	11688
931.207	11391
931.311	11246
931.415	11185
931.519	11098
931.623	11033
