Data from test_V78500241_2896.txt Node
Date: Fri Mar 25 15:30:01 CST 2022
User: usil
Spectrometer: V785-0024
Trigger mode: 0
Integration Time (sec): 4.000000E-1
Scans to average: 1
Nonlinearity correction enabled: false
Boxcar width: 0
Storing dark spectrum: false
XAxis mode: Wavelengths
Number of Pixels in Spectrum: 1024
>>>>>Begin Spectral Data<<<<<
801.071	27241
801.214	27268
801.356	27051
801.499	27089
801.641	27043
801.783	26857
801.926	26971
802.068	26815
802.211	26758
802.353	26655
802.496	26522
802.638	26609
802.78	26453
802.923	26396
803.065	26492
803.208	26450
803.35	26446
803.492	26571
803.635	26773
803.777	26412
803.919	26632
804.061	27001
804.204	26598
804.346	26655
804.488	26495
804.63	26697
804.773	26579
804.915	26754
805.057	26693
805.199	26549
805.341	26659
805.483	26686
805.626	26758
805.768	26811
805.91	26731
806.052	26724
806.194	26750
806.336	26880
806.478	26815
806.62	26705
806.762	26864
806.904	26967
807.046	27218
807.188	27245
807.33	27237
807.472	27287
807.614	27074
807.756	27150
807.898	27077
808.04	27032
808.182	26971
808.324	27085
808.465	27150
808.607	27363
808.749	27321
808.891	27386
809.033	27481
809.174	27378
809.316	27485
809.458	27431
809.6	27329
809.741	27595
809.883	27488
810.025	27660
810.166	27736
810.308	27759
810.45	27656
810.591	27610
810.733	27389
810.875	27447
811.016	27313
811.158	27389
811.299	27622
811.441	27705
811.582	27454
811.724	27389
811.865	27264
812.007	27340
812.148	27332
812.29	27427
812.431	27469
812.573	27587
812.714	27884
812.855	27907
812.997	27953
813.138	27972
813.279	27994
813.421	27964
813.562	27739
813.703	27671
813.845	27515
813.986	27169
814.127	27047
814.268	26998
814.41	27036
814.551	26990
814.692	27085
814.833	26921
814.974	27112
815.115	27020
815.256	26861
815.397	26792
815.539	26815
815.68	26731
815.821	26796
815.962	26853
816.103	26800
816.244	26606
816.385	26503
816.526	26621
816.666	26396
816.807	26305
816.948	26461
817.089	26465
817.23	26457
817.371	26339
817.512	26278
817.653	26248
817.793	26172
817.934	26191
818.075	26259
818.216	26374
818.356	26149
818.497	26145
818.638	26103
818.778	25978
818.919	25966
819.06	25989
819.2	26271
819.341	26389
819.481	26298
819.622	26374
819.762	26693
819.903	26427
820.043	26415
820.184	26355
820.324	26389
820.465	26389
820.605	26415
820.746	26400
820.886	26282
821.026	26355
821.167	26275
821.307	26476
821.447	26256
821.588	26191
821.728	26218
821.868	25932
822.008	25620
822.149	25765
822.289	25681
822.429	25384
822.569	25369
822.709	25502
822.849	25346
822.99	25206
823.13	25164
823.27	25278
823.41	25080
823.55	24970
823.69	25095
823.83	25122
823.97	25088
824.11	24947
824.25	24852
824.389	24886
824.529	24977
824.669	24913
824.809	25053
824.949	24909
825.089	24821
825.228	24951
825.368	24821
825.508	24669
825.648	24798
825.787	24738
825.927	24620
826.067	24753
826.206	24741
826.346	24844
826.485	24787
826.625	24882
826.765	24882
826.904	24814
827.044	24620
827.183	24433
827.323	24441
827.462	24540
827.601	24582
827.741	24490
827.88	24407
828.02	24319
828.159	24395
828.298	24490
828.437	24536
828.577	24365
828.716	24544
828.855	24285
828.994	24243
829.134	24152
829.273	24308
829.412	24034
829.551	24148
829.69	24174
829.829	24049
829.968	24216
830.107	24079
830.246	24114
830.385	24045
830.524	24117
830.663	23950
830.802	23805
830.941	23695
831.08	23794
831.219	23931
831.357	23866
831.496	24018
831.635	23710
831.774	23805
831.913	23691
832.051	23649
832.19	23478
832.329	23474
832.467	23406
832.606	23455
832.744	23376
832.883	23349
833.022	23356
833.16	23535
833.299	23452
833.437	23387
833.576	23478
833.714	23436
833.852	23414
833.991	23630
834.129	23505
834.267	23554
834.406	23493
834.544	23505
834.682	23379
834.821	23410
834.959	23729
835.097	23474
835.235	23509
835.373	23539
835.511	23436
835.65	23425
835.788	23299
835.926	23193
836.064	23204
836.202	23193
836.34	23296
836.478	23349
836.615	23307
836.753	23261
836.891	23372
837.029	23265
837.167	23254
837.305	23250
837.443	23204
837.58	23052
837.718	23136
837.856	23132
837.993	23128
838.131	23067
838.269	23010
838.406	23170
838.544	22980
838.681	22767
838.819	22759
838.956	22565
839.094	22649
839.231	22698
839.369	22889
839.506	22896
839.643	22797
839.781	22713
839.918	22580
840.055	22561
840.193	22778
840.33	22577
840.467	22687
840.604	22645
840.742	22896
840.879	22436
841.016	22611
841.153	22443
841.29	22588
841.427	22428
841.564	22637
841.701	22504
841.838	22421
841.975	22447
842.112	22424
842.249	22382
842.385	22405
842.522	22645
842.659	22428
842.796	22219
842.933	22348
843.069	22192
843.206	22200
843.343	22318
843.479	22356
843.616	22360
843.752	22128
843.889	22101
844.025	22242
844.162	22013
844.298	22162
844.435	22067
844.571	22070
844.708	22090
844.844	22166
844.98	22223
845.117	22059
845.253	22021
845.389	21964
845.525	22074
845.661	21979
845.798	21770
845.934	21850
846.07	21736
846.206	21800
846.342	21915
846.478	21774
846.614	21614
846.75	21519
846.886	21595
847.022	21606
847.158	21644
847.294	21424
847.429	21545
847.565	21511
847.701	21876
847.837	21416
847.972	21176
848.108	21332
848.244	21321
848.379	21268
848.515	21104
848.65	21150
848.786	21214
848.921	21173
849.057	21313
849.192	21176
849.328	21184
849.463	21108
849.598	21085
849.734	21096
849.869	20914
850.004	20944
850.14	20872
850.275	20845
850.41	20826
850.545	20758
850.68	20830
850.815	20956
850.95	20979
851.085	21089
851.22	21085
851.355	20838
851.49	20891
851.625	20834
851.76	20876
851.895	20876
852.03	20807
852.165	20853
852.299	20872
852.434	21005
852.569	20929
852.703	20918
852.838	20998
852.973	20967
853.107	20887
853.242	20842
853.376	20758
853.511	20602
853.645	20640
853.78	20857
853.914	20724
854.048	20773
854.183	20670
854.317	20739
854.451	20914
854.585	20735
854.72	20727
854.854	20804
854.988	20686
855.122	20731
855.256	20594
855.39	20693
855.524	20788
855.658	20727
855.792	20731
855.926	20727
856.06	20606
856.194	20746
856.327	20727
856.461	20674
856.595	20674
856.729	20708
856.862	20868
856.996	20758
857.13	20800
857.263	20842
857.397	20758
857.53	20708
857.664	20819
857.797	20872
857.931	20845
858.064	20693
858.197	20842
858.331	20708
858.464	20678
858.597	20526
858.731	20746
858.864	20689
858.997	20739
859.13	20754
859.263	20716
859.396	20750
859.529	20708
859.662	20746
859.795	20648
859.928	20796
860.061	20906
860.194	20948
860.327	20746
860.46	20819
860.592	20891
860.725	20872
860.858	20830
860.99	20727
861.123	20735
861.256	20537
861.388	20800
861.521	21428
861.653	20556
861.786	20518
861.918	20575
862.05	20629
862.183	20651
862.315	20701
862.447	20800
862.58	20659
862.712	20488
862.844	20457
862.976	20552
863.108	20564
863.24	20925
863.372	20351
863.504	20454
863.636	20476
863.768	20564
863.9	20488
864.032	20328
864.164	20381
864.296	20484
864.428	20571
864.559	20507
864.691	20530
864.823	20431
864.954	20324
865.086	20438
865.217	20419
865.349	20320
865.48	20374
865.612	20415
865.743	20598
865.875	20332
866.006	20309
866.137	20370
866.269	20317
866.4	20248
866.531	20240
866.662	20259
866.793	20286
866.924	20195
867.055	20385
867.186	20377
867.317	20259
867.448	20164
867.579	20252
867.71	20153
867.841	20195
867.972	20271
868.103	20206
868.233	20282
868.364	20389
868.495	20366
868.625	20404
868.756	20545
868.886	20427
869.017	20522
869.147	20590
869.278	20693
869.408	20659
869.539	20514
869.669	20537
869.799	20682
869.929	20758
870.06	20625
870.19	20746
870.32	20876
870.45	20815
870.58	20967
870.71	21058
870.84	20990
870.97	20979
871.1	20982
871.23	21066
871.36	21020
871.489	20948
871.619	21058
871.749	21017
871.879	21150
872.008	21222
872.138	21165
872.267	21135
872.397	21001
872.526	20914
872.656	20826
872.785	21020
872.915	21138
873.044	21203
873.173	21169
873.303	21131
873.432	21279
873.561	21207
873.69	21184
873.819	21180
873.948	21249
874.077	21112
874.206	21184
874.335	21116
874.464	21363
874.593	21363
874.722	21279
874.851	21351
874.979	21325
875.108	21469
875.237	21526
875.365	21222
875.494	21336
875.623	21412
875.751	21469
875.88	21386
876.008	21477
876.136	21663
876.265	21846
876.393	21785
876.521	21922
876.65	21888
876.778	21846
876.906	21644
877.034	21705
877.162	21739
877.29	21576
877.418	21831
877.546	21709
877.674	21667
877.802	21694
877.93	21732
878.058	21622
878.185	21614
878.313	21663
878.441	21793
878.568	21568
878.696	21625
878.824	21717
878.951	21869
879.079	21804
879.206	22013
879.333	21808
879.461	21797
879.588	21835
879.715	21899
879.842	21960
879.97	21736
880.097	21519
880.224	21591
880.351	21587
880.478	21511
880.605	21564
880.732	21523
880.859	21774
880.986	21572
881.112	21519
881.239	21477
881.366	21252
881.493	21317
881.619	21108
881.746	21161
881.872	21100
881.999	21066
882.125	21085
882.252	21184
882.378	21157
882.505	21313
882.631	21058
882.757	20887
882.883	20994
883.01	20857
883.136	20830
883.262	20765
883.388	20701
883.514	20883
883.64	20853
883.766	20762
883.892	20617
884.018	20644
884.143	20773
884.269	20834
884.395	20507
884.52	20587
884.646	20412
884.772	20442
884.897	20442
885.023	20579
885.148	20674
885.274	20514
885.399	20541
885.524	20564
885.65	20514
885.775	20434
885.9	20400
886.025	20552
886.15	20606
886.275	20408
886.4	20438
886.525	20454
886.65	20362
886.775	20412
886.9	20503
887.025	20617
887.149	20560
887.274	20313
887.399	20275
887.523	20336
887.648	20244
887.773	20206
887.897	20301
888.021	20282
888.146	20168
888.27	20427
888.395	20313
888.519	20328
888.643	20187
888.767	20237
888.891	20100
889.015	20096
889.139	20180
889.263	20024
889.387	20294
889.511	20263
889.635	20180
889.759	19894
889.883	20119
890.006	20084
890.13	20183
890.254	20054
890.377	19928
890.501	19750
890.624	19837
890.748	19791
890.871	19704
890.995	19571
891.118	19525
891.241	19639
891.364	19613
891.488	19670
891.611	19628
891.734	19586
891.857	19677
891.98	19734
892.103	19666
892.226	19552
892.349	19563
892.471	19506
892.594	19495
892.717	19723
892.839	19514
892.962	19510
893.085	19582
893.207	19533
893.33	19438
893.452	19514
893.575	19723
893.697	19487
893.819	19613
893.941	19807
894.064	19662
894.186	19518
894.308	19525
894.43	19689
894.552	19784
894.674	19731
894.796	19434
894.918	19590
895.04	19601
895.161	19575
895.283	19620
895.405	19480
895.526	19632
895.648	19540
895.769	19708
895.891	19518
896.012	19651
896.134	19689
896.255	19552
896.376	19590
896.498	19647
896.619	19788
896.74	19548
896.861	19655
896.982	19902
897.103	19997
897.224	19959
897.345	19807
897.466	19662
897.587	19765
897.708	19959
897.828	19814
897.949	19750
898.07	19613
898.19	19780
898.311	19879
898.431	19719
898.552	19803
898.672	19898
898.792	19940
898.913	19734
899.033	19814
899.153	19567
899.273	19575
899.393	19567
899.513	19624
899.633	19628
899.753	19575
899.873	19601
899.993	19643
900.113	19480
900.232	19575
900.352	19483
900.472	19396
900.591	19358
900.711	19373
900.83	19266
900.95	19544
901.069	19510
901.189	19274
901.308	18951
901.427	19000
901.546	18954
901.665	18981
901.784	18962
901.904	18875
902.023	18665
902.141	18525
902.26	18467
902.379	18620
902.498	18506
902.617	18513
902.735	18490
902.854	18407
902.973	18407
903.091	18190
903.21	18216
903.328	18110
903.446	17999
903.565	18095
903.683	18091
903.801	17878
903.919	17882
904.038	17863
904.156	17653
904.274	17790
904.392	17718
904.51	17722
904.627	17756
904.745	17748
904.863	17695
904.981	17463
905.098	17330
905.216	17398
905.334	17505
905.451	17505
905.569	17452
905.686	17372
905.803	17478
905.921	17280
906.038	17269
906.155	17189
906.272	17208
906.389	17166
906.506	17010
906.623	16873
906.74	16946
906.857	16797
906.974	16828
907.091	16991
907.208	16991
907.324	16892
907.441	16999
907.557	16816
907.674	16607
907.79	16550
907.907	16694
908.023	16733
908.139	16694
908.256	16592
908.372	16622
908.488	16694
908.604	16348
908.72	16356
908.836	16390
908.952	16379
909.068	16417
909.184	16440
909.3	16356
909.415	16337
909.531	16371
909.647	16139
909.762	16097
909.878	16029
909.993	16071
910.108	16032
910.224	16067
910.339	15983
910.454	15945
910.57	15846
910.685	15838
910.8	16112
910.915	15998
911.03	15865
911.145	15660
911.259	15629
911.374	15644
911.489	15591
911.604	15511
911.718	15378
911.833	15469
911.947	15298
912.062	15279
912.176	15450
912.291	15519
912.405	15564
912.519	15622
912.633	15652
912.748	15466
912.862	15447
912.976	15351
913.09	15112
913.204	15131
913.318	15287
913.431	15306
913.545	15424
913.659	15325
913.772	15165
913.886	15157
914	15085
914.113	15226
914.226	15199
914.34	15161
914.453	15077
914.566	15036
914.68	14994
914.793	14960
914.906	14724
915.019	14686
915.132	14545
915.245	14720
915.358	14796
915.47	14689
915.583	14678
915.696	14773
915.809	14743
915.921	14849
916.034	14594
916.146	14590
916.259	14522
916.371	14636
916.483	14731
916.595	14533
916.708	14541
916.82	14590
916.932	14465
917.044	14507
917.156	14476
917.268	14438
917.38	14457
917.491	14396
917.603	14423
917.715	14465
917.826	14377
917.938	14317
918.049	14145
918.161	14336
918.272	14450
918.384	14438
918.495	14294
918.606	14176
918.717	14119
918.828	14115
918.939	14111
919.05	14050
919.161	14123
919.272	13963
919.383	13921
919.494	14259
919.604	14324
919.715	14164
919.826	14012
919.936	14195
920.047	14199
920.157	14100
920.267	14336
920.378	14073
920.488	14035
920.598	14336
920.708	14415
920.818	14214
920.928	14145
921.038	14320
921.148	14343
921.258	14088
921.368	14043
921.477	13925
921.587	13818
921.697	13727
921.806	13818
921.916	13723
922.025	13529
922.134	13514
922.244	13590
922.353	13575
922.462	13403
922.571	13392
922.68	13190
922.789	13103
922.898	13240
923.007	13103
923.116	13202
923.224	13137
923.333	13198
923.442	13012
923.55	12993
923.659	12871
923.767	13031
923.876	12951
923.984	13061
924.092	12875
924.201	12943
924.309	13019
924.417	12852
924.525	12916
924.633	12852
924.741	13712
924.849	12559
924.956	12711
925.064	12570
925.172	12631
925.279	12582
925.387	12544
925.494	12635
925.602	12696
925.709	12589
925.816	12517
925.924	12486
926.031	12612
926.138	12525
926.245	12528
926.352	12445
926.459	12669
926.566	12559
926.673	12479
926.779	12357
926.886	12254
926.993	12186
927.099	12182
927.206	12117
927.312	12148
927.419	12194
927.525	12163
927.631	12133
927.737	12049
927.843	11946
927.95	11821
928.056	12034
928.162	12110
928.267	12015
928.373	12555
928.479	11999
928.585	11832
928.69	11885
928.796	11984
928.901	11874
929.007	11710
929.112	11794
929.218	11855
929.323	11748
929.428	11680
929.533	11916
929.638	11600
929.743	11672
929.848	11767
929.953	11672
930.058	11554
930.163	11288
930.267	11459
930.372	11604
930.477	11395
930.581	11646
930.685	11433
930.79	11360
930.894	11288
930.998	11212
931.103	11452
931.207	11105
931.311	11056
931.415	10919
931.519	10714
931.623	10729
