Data from test_V78500241_3163.txt Node
Date: Fri Mar 25 15:31:53 CST 2022
User: usil
Spectrometer: V785-0024
Trigger mode: 0
Integration Time (sec): 4.000000E-1
Scans to average: 1
Nonlinearity correction enabled: false
Boxcar width: 0
Storing dark spectrum: false
XAxis mode: Wavelengths
Number of Pixels in Spectrum: 1024
>>>>>Begin Spectral Data<<<<<
801.071	27188
801.214	27100
801.356	26902
801.499	26746
801.641	26659
801.783	26830
801.926	26606
802.068	26682
802.211	26655
802.353	26663
802.496	26469
802.638	26313
802.78	26180
802.923	26259
803.065	26183
803.208	26271
803.35	26332
803.492	26507
803.635	26438
803.777	26374
803.919	26465
804.061	26724
804.204	26484
804.346	26328
804.488	26385
804.63	26495
804.773	26484
804.915	26446
805.057	26644
805.199	26476
805.341	26389
805.483	26465
805.626	26579
805.768	26545
805.91	26575
806.052	26663
806.194	26530
806.336	26686
806.478	26663
806.62	26541
806.762	26575
806.904	26792
807.046	27043
807.188	27058
807.33	27001
807.472	27104
807.614	26914
807.756	26979
807.898	26918
808.04	26769
808.182	26788
808.324	26697
808.465	26777
808.607	26998
808.749	27173
808.891	27218
809.033	27157
809.174	27332
809.316	27096
809.458	27051
809.6	27077
809.741	27192
809.883	27302
810.025	27427
810.166	27511
810.308	27458
810.45	27408
810.591	27317
810.733	27173
810.875	27245
811.016	27047
811.158	27024
811.299	27233
811.441	27180
811.582	27291
811.724	27100
811.865	27116
812.007	27047
812.148	27032
812.29	27146
812.431	27214
812.573	27302
812.714	27382
812.855	27751
812.997	27595
813.138	27953
813.279	27641
813.421	27652
813.562	27530
813.703	27477
813.845	27226
813.986	27020
814.127	26823
814.268	26758
814.41	26880
814.551	26746
814.692	26842
814.833	26785
814.974	26712
815.115	26777
815.256	26609
815.397	26587
815.539	26663
815.68	26530
815.821	26644
815.962	26488
816.103	26583
816.244	26298
816.385	26450
816.526	26218
816.666	26050
816.807	25993
816.948	26054
817.089	26153
817.23	26062
817.371	25997
817.512	26103
817.653	26065
817.793	25959
817.934	25951
818.075	26088
818.216	26164
818.356	25909
818.497	25921
818.638	25753
818.778	25841
818.919	25780
819.06	25871
819.2	26092
819.341	25746
819.481	26039
819.622	26016
819.762	26332
819.903	26286
820.043	26351
820.184	26221
820.324	26020
820.465	26305
820.605	26126
820.746	26153
820.886	25925
821.026	26119
821.167	26024
821.307	26058
821.447	26115
821.588	25887
821.728	25818
821.868	25693
822.008	25575
822.149	25521
822.289	25422
822.429	25187
822.569	25042
822.709	25088
822.849	25019
822.99	24989
823.13	24909
823.27	24897
823.41	24814
823.55	24681
823.69	24871
823.83	24871
823.97	24665
824.11	24681
824.25	24570
824.389	24616
824.529	24623
824.669	24726
824.809	24741
824.949	24654
825.089	24707
825.228	24582
825.368	24593
825.508	24521
825.648	24494
825.787	24483
825.927	24669
826.067	24483
826.206	24544
826.346	24426
826.485	24627
826.625	24467
826.765	24654
826.904	24448
827.044	24281
827.183	24350
827.323	24205
827.462	24194
827.601	24159
827.741	24106
827.88	24289
828.02	24174
828.159	24171
828.298	24095
828.437	24315
828.577	24125
828.716	24262
828.855	24133
828.994	23859
829.134	23980
829.273	24049
829.412	23908
829.551	23748
829.69	23828
829.829	23942
829.968	23988
830.107	24018
830.246	23752
830.385	23874
830.524	23786
830.663	23821
830.802	23448
830.941	23493
831.08	23410
831.219	23764
831.357	23573
831.496	23855
831.635	23589
831.774	23490
831.913	23459
832.051	23372
832.19	23288
832.329	23318
832.467	23318
832.606	23254
832.744	23117
832.883	23208
833.022	23075
833.16	23216
833.299	23273
833.437	23334
833.576	23242
833.714	23208
833.852	23341
833.991	23280
834.129	23277
834.267	23368
834.406	23356
834.544	23242
834.682	23178
834.821	23269
834.959	23410
835.097	23261
835.235	23280
835.373	23197
835.511	23315
835.65	23159
835.788	23113
835.926	22961
836.064	22938
836.202	22908
836.34	23239
836.478	23113
836.615	23124
836.753	23071
836.891	23159
837.029	23166
837.167	22965
837.305	23079
837.443	23071
837.58	22968
837.718	23025
837.856	23056
837.993	23033
838.131	23025
838.269	22877
838.406	22828
838.544	22767
838.681	22603
838.819	22603
838.956	22466
839.094	22344
839.231	22519
839.369	22637
839.506	22896
839.643	22771
839.781	22489
839.918	22455
840.055	22542
840.193	22451
840.33	22455
840.467	22443
840.604	22390
840.742	22653
840.879	22265
841.016	22409
841.153	22226
841.29	22337
841.427	22379
841.564	22443
841.701	22382
841.838	22181
841.975	22333
842.112	22322
842.249	22265
842.385	22211
842.522	22497
842.659	22223
842.796	22158
842.933	22150
843.069	22051
843.206	22116
843.343	22093
843.479	22116
843.616	22135
843.752	21892
843.889	21899
844.025	21975
844.162	21869
844.298	22036
844.435	21876
844.571	21960
844.708	21907
844.844	22105
844.98	21953
845.117	22032
845.253	21903
845.389	21747
845.525	21781
845.661	21865
845.798	21656
845.934	21690
846.07	21587
846.206	21633
846.342	21720
846.478	21637
846.614	21477
846.75	21408
846.886	21332
847.022	21443
847.158	21428
847.294	21374
847.429	21538
847.565	21370
847.701	21637
847.837	21093
847.972	21013
848.108	21123
848.244	21116
848.379	21013
848.515	20902
848.65	20921
848.786	20925
848.921	20960
849.057	21020
849.192	21207
849.328	20982
849.463	20944
849.598	20762
849.734	20845
849.869	20910
850.004	20716
850.14	20815
850.275	20765
850.41	20571
850.545	20773
850.68	20746
850.815	20800
850.95	20655
851.085	20872
851.22	20849
851.355	20830
851.49	20724
851.625	20629
851.76	20659
851.895	20590
852.03	20644
852.165	20712
852.299	20796
852.434	20899
852.569	20716
852.703	20746
852.838	20811
852.973	20785
853.107	20811
853.242	20556
853.376	20575
853.511	20507
853.645	20469
853.78	20640
853.914	20682
854.048	20503
854.183	20583
854.317	20632
854.451	20762
854.585	20526
854.72	20507
854.854	20678
854.988	20511
855.122	20522
855.256	20404
855.39	20518
855.524	20636
855.658	20590
855.792	20526
855.926	20648
856.06	20625
856.194	20724
856.327	20571
856.461	20526
856.595	20526
856.729	20590
856.862	20693
856.996	20541
857.13	20583
857.263	20667
857.397	20651
857.53	20590
857.664	20575
857.797	20632
857.931	20712
858.064	20590
858.197	20644
858.331	20636
858.464	20552
858.597	20404
858.731	20537
858.864	20575
858.997	20480
859.13	20511
859.263	20560
859.396	20644
859.529	20514
859.662	20568
859.795	20552
859.928	20571
860.061	20701
860.194	20830
860.327	20629
860.46	20503
860.592	20648
860.725	20777
860.858	20583
860.99	20636
861.123	20552
861.256	20499
861.388	20617
861.521	21154
861.653	20476
861.786	20286
861.918	20374
862.05	20488
862.183	20495
862.315	20514
862.447	20571
862.58	20549
862.712	20233
862.844	20225
862.976	20305
863.108	20427
863.24	20678
863.372	20259
863.504	20328
863.636	20267
863.768	20248
863.9	20256
864.032	20172
864.164	20324
864.296	20244
864.428	20301
864.559	20419
864.691	20301
864.823	20317
864.954	20195
865.086	20305
865.217	20210
865.349	20130
865.48	20172
865.612	20168
865.743	20332
865.875	20172
866.006	20145
866.137	20111
866.269	20164
866.4	20206
866.531	20180
866.662	20016
866.793	20126
866.924	20202
867.055	20119
867.186	20157
867.317	20202
867.448	20035
867.579	20107
867.71	20073
867.841	20035
867.972	20115
868.103	20054
868.233	20282
868.364	20122
868.495	20225
868.625	20499
868.756	20396
868.886	20286
869.017	20347
869.147	20522
869.278	20484
869.408	20415
869.539	20328
869.669	20358
869.799	20457
869.929	20522
870.06	20533
870.19	20720
870.32	20785
870.45	20655
870.58	20845
870.71	20902
870.84	20845
870.97	20796
871.1	20655
871.23	20891
871.36	20990
871.489	20925
871.619	21020
871.749	20986
871.879	20967
872.008	21024
872.138	21055
872.267	20887
872.397	20815
872.526	20811
872.656	20857
872.785	20815
872.915	20963
873.044	20971
873.173	20937
873.303	20941
873.432	21047
873.561	21017
873.69	20948
873.819	21051
873.948	21051
874.077	21024
874.206	20918
874.335	20986
874.464	21043
874.593	21192
874.722	21112
874.851	21192
874.979	21283
875.108	21275
875.237	21279
875.365	21135
875.494	21222
875.623	21370
875.751	21332
875.88	21367
876.008	21443
876.136	21458
876.265	21629
876.393	21838
876.521	21625
876.65	21713
876.778	21603
876.906	21610
877.034	21660
877.162	21633
877.29	21538
877.418	21705
877.546	21515
877.674	21751
877.802	21545
877.93	21724
878.058	21614
878.185	21561
878.313	21549
878.441	21568
878.568	21450
878.696	21500
878.824	21606
878.951	21717
879.079	21835
879.206	21793
879.333	21739
879.461	21648
879.588	21724
879.715	21747
879.842	21835
879.97	21717
880.097	21469
880.224	21530
880.351	21507
880.478	21298
880.605	21466
880.732	21431
880.859	21717
880.986	21401
881.112	21492
881.239	21428
881.366	21222
881.493	21104
881.619	21058
881.746	21157
881.872	21017
881.999	20914
882.125	20914
882.252	21051
882.378	20956
882.505	21112
882.631	20853
882.757	20708
882.883	20887
883.01	20731
883.136	20678
883.262	20571
883.388	20609
883.514	20712
883.64	20724
883.766	20598
883.892	20518
884.018	20499
884.143	20636
884.269	20785
884.395	20442
884.52	20393
884.646	20396
884.772	20454
884.897	20301
885.023	20442
885.148	20511
885.274	20560
885.399	20434
885.524	20434
885.65	20484
885.775	20480
885.9	20522
886.025	20404
886.15	20473
886.275	20301
886.4	20259
886.525	20415
886.65	20377
886.775	20214
886.9	20495
887.025	20613
887.149	20309
887.274	20176
887.399	20168
887.523	20191
887.648	20027
887.773	20062
887.897	20252
888.021	20084
888.146	20149
888.27	20244
888.395	20233
888.519	20259
888.643	20202
888.767	20138
888.891	20024
889.015	20043
889.139	19830
889.263	20001
889.387	20031
889.511	20153
889.635	20081
889.759	19849
889.883	20008
890.006	20039
890.13	20111
890.254	19921
890.377	19868
890.501	19803
890.624	19674
890.748	19788
890.871	19715
890.995	19464
891.118	19460
891.241	19563
891.364	19556
891.488	19620
891.611	19597
891.734	19578
891.857	19441
891.98	19480
892.103	19548
892.226	19556
892.349	19464
892.471	19285
892.594	19449
892.717	19476
892.839	19495
892.962	19518
893.085	19594
893.207	19464
893.33	19274
893.452	19426
893.575	19445
893.697	19453
893.819	19578
893.941	19639
894.064	19601
894.186	19483
894.308	19373
894.43	19601
894.552	19514
894.674	19552
894.796	19381
894.918	19419
895.04	19419
895.161	19491
895.283	19578
895.405	19312
895.526	19480
895.648	19434
895.769	19388
895.891	19407
896.012	19480
896.134	19445
896.255	19453
896.376	19274
896.498	19495
896.619	19548
896.74	19457
896.861	19422
896.982	19700
897.103	19845
897.224	19833
897.345	19689
897.466	19502
897.587	19685
897.708	19723
897.828	19632
897.949	19540
898.07	19514
898.19	19776
898.311	19803
898.431	19715
898.552	19708
898.672	19742
898.792	19795
898.913	19662
899.033	19575
899.153	19563
899.273	19434
899.393	19365
899.513	19464
899.633	19460
899.753	19453
899.873	19381
899.993	19350
900.113	19339
900.232	19438
900.352	19247
900.472	19346
900.591	19194
900.711	19179
900.83	19122
900.95	19251
901.069	19346
901.189	19171
901.308	18909
901.427	18935
901.546	18707
901.665	18894
901.784	18897
901.904	18684
902.023	18597
902.141	18418
902.26	18445
902.379	18395
902.498	18334
902.617	18308
902.735	18422
902.854	18429
902.973	18254
903.091	18049
903.21	18068
903.328	18095
903.446	18003
903.565	17874
903.683	17855
903.801	17726
903.919	17802
904.038	17703
904.156	17600
904.274	17638
904.392	17539
904.51	17619
904.627	17562
904.745	17611
904.863	17691
904.981	17490
905.098	17303
905.216	17261
905.334	17318
905.451	17292
905.569	17178
905.686	17330
905.803	17170
905.921	17132
906.038	17200
906.155	17079
906.272	17045
906.389	17003
906.506	16771
906.623	16850
906.74	16824
906.857	16782
906.974	16755
907.091	16862
907.208	16991
907.324	16866
907.441	16797
907.557	16554
907.674	16584
907.79	16550
907.907	16523
908.023	16607
908.139	16622
908.256	16436
908.372	16428
908.488	16371
908.604	16291
908.72	16238
908.836	16261
908.952	16325
909.068	16261
909.184	16322
909.3	16257
909.415	16310
909.531	16173
909.647	16112
909.762	16040
909.878	16051
909.993	15911
910.108	15899
910.224	15964
910.339	15960
910.454	15899
910.57	15770
910.685	15823
910.8	15934
910.915	15888
911.03	15861
911.145	15679
911.259	15614
911.374	15686
911.489	15450
911.604	15485
911.718	15298
911.833	15363
911.947	15325
912.062	15241
912.176	15252
912.291	15378
912.405	15382
912.519	15568
912.633	15595
912.748	15447
912.862	15317
912.976	15108
913.09	15070
913.204	15093
913.318	15184
913.431	15230
913.545	15169
913.659	15207
913.772	15085
913.886	14895
914	15039
914.113	15135
914.226	15043
914.34	15051
914.453	14838
914.566	15062
914.68	14883
914.793	14823
914.906	14655
915.019	14545
915.132	14507
915.245	14526
915.358	14530
915.47	14640
915.583	14602
915.696	14636
915.809	14701
915.921	14659
916.034	14583
916.146	14537
916.259	14480
916.371	14560
916.483	14583
916.595	14385
916.708	14427
916.82	14389
916.932	14317
917.044	14347
917.156	14290
917.268	14294
917.38	14290
917.491	14278
917.603	14355
917.715	14317
917.826	14377
917.938	14195
918.049	14107
918.161	14153
918.272	14301
918.384	14294
918.495	14214
918.606	14123
918.717	13936
918.828	14096
918.939	14092
919.05	13898
919.161	14046
919.272	13902
919.383	13883
919.494	14107
919.604	14172
919.715	14062
919.826	13970
919.936	14027
920.047	14084
920.157	14016
920.267	14164
920.378	13917
920.488	13986
920.598	14130
920.708	14271
920.818	14195
920.928	14092
921.038	14305
921.148	14187
921.258	14012
921.368	13898
921.477	13883
921.587	13738
921.697	13624
921.806	13700
921.916	13674
922.025	13487
922.134	13282
922.244	13464
922.353	13457
922.462	13259
922.571	13183
922.68	13126
922.789	13137
922.898	13099
923.007	12962
923.116	13084
923.224	13084
923.333	13008
923.442	12924
923.55	12894
923.659	12996
923.767	13046
923.876	12840
923.984	12943
924.092	12719
924.201	12768
924.309	12814
924.417	12798
924.525	12753
924.633	12798
924.741	13693
924.849	12574
924.956	12589
925.064	12604
925.172	12452
925.279	12467
925.387	12559
925.494	12608
925.602	12665
925.709	12544
925.816	12433
925.924	12540
926.031	12483
926.138	12365
926.245	12445
926.352	12327
926.459	12486
926.566	12521
926.673	12353
926.779	12254
926.886	12186
926.993	12117
927.099	12163
927.206	12057
927.312	12087
927.419	12190
927.525	12041
927.631	12079
927.737	12019
927.843	11916
927.95	11969
928.056	11904
928.162	11923
928.267	11901
928.373	12433
928.479	12045
928.585	11802
928.69	11836
928.796	11802
928.901	11786
929.007	11714
929.112	11790
929.218	11722
929.323	11684
929.428	11653
929.533	11790
929.638	11562
929.743	11604
929.848	11642
929.953	11539
930.058	11414
930.163	11326
930.267	11376
930.372	11539
930.477	11376
930.581	11471
930.685	11345
930.79	11208
930.894	11231
930.998	11250
931.103	11372
931.207	10965
931.311	10938
931.415	10828
931.519	10615
931.623	10641
