Data from test_V78500241_1192.txt Node
Date: Fri Mar 25 15:18:09 CST 2022
User: usil
Spectrometer: V785-0024
Trigger mode: 0
Integration Time (sec): 4.000000E-1
Scans to average: 1
Nonlinearity correction enabled: false
Boxcar width: 0
Storing dark spectrum: false
XAxis mode: Wavelengths
Number of Pixels in Spectrum: 1024
>>>>>Begin Spectral Data<<<<<
801.071	28055
801.214	27941
801.356	27850
801.499	27686
801.641	27747
801.783	27610
801.926	27690
802.068	27599
802.211	27587
802.353	27454
802.496	27386
802.638	27329
802.78	27264
802.923	27272
803.065	27176
803.208	27230
803.35	27310
803.492	27401
803.635	27583
803.777	27283
803.919	27576
804.061	27732
804.204	27519
804.346	27401
804.488	27332
804.63	27389
804.773	27469
804.915	27549
805.057	27644
805.199	27431
805.341	27511
805.483	27663
805.626	27553
805.768	27504
805.91	27591
806.052	27603
806.194	27507
806.336	27705
806.478	27682
806.62	27713
806.762	27663
806.904	27846
807.046	28124
807.188	27956
807.33	27907
807.472	27972
807.614	27949
807.756	28032
807.898	27945
808.04	27857
808.182	27846
808.324	27823
808.465	28040
808.607	28173
808.749	28196
808.891	28401
809.033	28459
809.174	28268
809.316	28280
809.458	28310
809.6	28249
809.741	28436
809.883	28481
810.025	28493
810.166	28577
810.308	28618
810.45	28493
810.591	28493
810.733	28204
810.875	28230
811.016	28238
811.158	28204
811.299	28333
811.441	28367
811.582	28363
811.724	28257
811.865	28417
812.007	28329
812.148	28470
812.29	28215
812.431	28413
812.573	28531
812.714	28710
812.855	28888
812.997	28885
813.138	28995
813.279	29044
813.421	28896
813.562	28828
813.703	28736
813.845	28603
813.986	28265
814.127	28101
814.268	28036
814.41	27994
814.551	27937
814.692	28139
814.833	27797
814.974	27865
815.115	27941
815.256	27850
815.397	27865
815.539	27911
815.68	27979
815.821	27876
815.962	27823
816.103	27778
816.244	27709
816.385	27595
816.526	27603
816.666	27321
816.807	27306
816.948	27359
817.089	27481
817.23	27233
817.371	27207
817.512	27291
817.653	27150
817.793	27249
817.934	27401
818.075	27317
818.216	27325
818.356	27188
818.497	27058
818.638	26971
818.778	26880
818.919	27051
819.06	27142
819.2	27207
819.341	27207
819.481	27241
819.622	27515
819.762	27766
819.903	27625
820.043	27515
820.184	27424
820.324	27374
820.465	27481
820.605	27439
820.746	27466
820.886	27237
821.026	27530
821.167	27370
821.307	27405
821.447	27325
821.588	27207
821.728	27123
821.868	26876
822.008	26648
822.149	26815
822.289	26769
822.429	26453
822.569	26583
822.709	26393
822.849	26240
822.99	26396
823.13	26187
823.27	26229
823.41	26069
823.55	26153
823.69	26126
823.83	26096
823.97	26005
824.11	25936
824.25	25852
824.389	25932
824.529	26168
824.669	26012
824.809	26103
824.949	26058
825.089	25989
825.228	25856
825.368	25833
825.508	25883
825.648	25807
825.787	25894
825.927	25833
826.067	25822
826.206	25753
826.346	25826
826.485	25833
826.625	25818
826.765	25982
826.904	25902
827.044	25609
827.183	25597
827.323	25609
827.462	25628
827.601	25575
827.741	25472
827.88	25502
828.02	25407
828.159	25483
828.298	25434
828.437	25567
828.577	25495
828.716	25681
828.855	25510
828.994	25263
829.134	25308
829.273	25259
829.412	25285
829.551	25122
829.69	25346
829.829	25190
829.968	25426
830.107	25282
830.246	25156
830.385	25152
830.524	25255
830.663	24981
830.802	24954
830.941	24958
831.08	24897
831.219	24962
831.357	24989
831.496	25034
831.635	24920
831.774	24810
831.913	24764
832.051	24661
832.19	24658
832.329	24684
832.467	24639
832.606	24547
832.744	24357
832.883	24448
833.022	24445
833.16	24547
833.299	24639
833.437	24532
833.576	24574
833.714	24601
833.852	24654
833.991	24673
834.129	24798
834.267	24661
834.406	24665
834.544	24555
834.682	24608
834.821	24574
834.959	24814
835.097	24563
835.235	24650
835.373	24585
835.511	24608
835.65	24479
835.788	24464
835.926	24429
836.064	24281
836.202	24232
836.34	24445
836.478	24528
836.615	24365
836.753	24475
836.891	24597
837.029	24517
837.167	24467
837.305	24342
837.443	24323
837.58	24285
837.718	24391
837.856	24251
837.993	24311
838.131	24197
838.269	24304
838.406	24254
838.544	24117
838.681	23954
838.819	23874
838.956	23843
839.094	23752
839.231	23855
839.369	23965
839.506	24117
839.643	24026
839.781	23771
839.918	23802
840.055	23710
840.193	23668
840.33	23646
840.467	23703
840.604	23668
840.742	23859
840.879	23627
841.016	23608
841.153	23467
841.29	23836
841.427	23535
841.564	23676
841.701	23748
841.838	23551
841.975	23646
842.112	23501
842.249	23539
842.385	23497
842.522	23539
842.659	23531
842.796	23391
842.933	23474
843.069	23330
843.206	23330
843.343	23436
843.479	23452
843.616	23471
843.752	23178
843.889	23216
844.025	23429
844.162	23204
844.298	23280
844.435	23204
844.571	23193
844.708	23197
844.844	23387
844.98	23455
845.117	23341
845.253	23140
845.389	23067
845.525	23128
845.661	23147
845.798	23067
845.934	22991
846.07	23018
846.206	22995
846.342	23071
846.478	22881
846.614	22782
846.75	22622
846.886	22649
847.022	22885
847.158	22713
847.294	22706
847.429	22645
847.565	22588
847.701	22793
847.837	22485
847.972	22329
848.108	22436
848.244	22504
848.379	22314
848.515	22287
848.65	22219
848.786	22337
848.921	22303
849.057	22512
849.192	22379
849.328	22325
849.463	22246
849.598	22242
849.734	22105
849.869	22051
850.004	22036
850.14	21979
850.275	22025
850.41	22010
850.545	22017
850.68	22051
850.815	22101
850.95	22040
851.085	22143
851.22	22055
851.355	21991
851.49	21983
851.625	21953
851.76	21892
851.895	21994
852.03	21934
852.165	22040
852.299	22048
852.434	22082
852.569	22074
852.703	22070
852.838	22051
852.973	22188
853.107	22097
853.242	21888
853.376	21861
853.511	21759
853.645	21816
853.78	21911
853.914	21903
854.048	21774
854.183	21728
854.317	21850
854.451	22131
854.585	21827
854.72	21831
854.854	21922
854.988	21857
855.122	21816
855.256	21736
855.39	21842
855.524	21949
855.658	21850
855.792	21941
855.926	21739
856.06	21934
856.194	21915
856.327	21774
856.461	21907
856.595	21808
856.729	21922
856.862	21994
856.996	21899
857.13	21876
857.263	22059
857.397	21972
857.53	21804
857.664	21854
857.797	21918
857.931	21926
858.064	21819
858.197	21941
858.331	21854
858.464	21759
858.597	21679
858.731	21895
858.864	21819
858.997	21812
859.13	21728
859.263	21793
859.396	21835
859.529	21876
859.662	21816
859.795	21720
859.928	21747
860.061	21964
860.194	21949
860.327	21918
860.46	21755
860.592	21892
860.725	22097
860.858	21945
860.99	21949
861.123	21785
861.256	21823
861.388	21861
861.521	22577
861.653	21724
861.786	21641
861.918	21648
862.05	21759
862.183	21747
862.315	21789
862.447	21823
862.58	21679
862.712	21572
862.844	21469
862.976	21583
863.108	21599
863.24	21869
863.372	21523
863.504	21447
863.636	21454
863.768	21572
863.9	21591
864.032	21435
864.164	21481
864.296	21576
864.428	21572
864.559	21713
864.691	21603
864.823	21549
864.954	21519
865.086	21519
865.217	21481
865.349	21412
865.48	21466
865.612	21466
865.743	21435
865.875	21382
866.006	21416
866.137	21393
866.269	21526
866.4	21492
866.531	21393
866.662	21287
866.793	21382
866.924	21317
867.055	21447
867.186	21408
867.317	21420
867.448	21313
867.579	21344
867.71	21256
867.841	21245
867.972	21359
868.103	21367
868.233	21272
868.364	21237
868.495	21378
868.625	21504
868.756	21679
868.886	21481
869.017	21606
869.147	21591
869.278	21633
869.408	21663
869.539	21507
869.669	21618
869.799	21675
869.929	21690
870.06	21717
870.19	21876
870.32	21876
870.45	21895
870.58	21854
870.71	22063
870.84	22246
870.97	21964
871.1	21907
871.23	22196
871.36	22067
871.489	22093
871.619	22090
871.749	22265
871.879	22169
872.008	22276
872.138	22162
872.267	22154
872.397	22120
872.526	22040
872.656	22048
872.785	22036
872.915	22147
873.044	22272
873.173	22265
873.303	22215
873.432	22188
873.561	22379
873.69	22226
873.819	22185
873.948	22230
874.077	22295
874.206	22287
874.335	22162
874.464	22291
874.593	22348
874.722	22390
874.851	22508
874.979	22417
875.108	22504
875.237	22402
875.365	22276
875.494	22398
875.623	22413
875.751	22299
875.88	22451
876.008	22561
876.136	22569
876.265	22809
876.393	22809
876.521	22850
876.65	22904
876.778	22877
876.906	22774
877.034	22786
877.162	22687
877.29	22691
877.418	22831
877.546	22847
877.674	22778
877.802	22713
877.93	22706
878.058	22763
878.185	22706
878.313	22736
878.441	22675
878.568	22615
878.696	22683
878.824	22782
878.951	22824
879.079	22919
879.206	23006
879.333	22892
879.461	22729
879.588	22976
879.715	22866
879.842	23064
879.97	22778
880.097	22736
880.224	22577
880.351	22679
880.478	22679
880.605	22656
880.732	22584
880.859	22713
880.986	22607
881.112	22641
881.239	22417
881.366	22291
881.493	22139
881.619	22234
881.746	22192
881.872	22173
881.999	22234
882.125	21960
882.252	22150
882.378	22154
882.505	22303
882.631	21937
882.757	21789
882.883	21854
883.01	21968
883.136	21816
883.262	21644
883.388	21671
883.514	21987
883.64	21964
883.766	21759
883.892	21618
884.018	21739
884.143	21800
884.269	21720
884.395	21637
884.52	21515
884.646	21549
884.772	21408
884.897	21408
885.023	21519
885.148	21580
885.274	21583
885.399	21549
885.524	21435
885.65	21603
885.775	21572
885.9	21462
886.025	21523
886.15	21481
886.275	21424
886.4	21412
886.525	21488
886.65	21348
886.775	21485
886.9	21534
887.025	21568
887.149	21511
887.274	21279
887.399	21386
887.523	21207
887.648	21055
887.773	21195
887.897	21382
888.021	21287
888.146	21146
888.27	21329
888.395	21344
888.519	21291
888.643	21180
888.767	21169
888.891	21127
889.015	21039
889.139	21009
889.263	21089
889.387	21135
889.511	21184
889.635	21055
889.759	21028
889.883	20929
890.006	21051
890.13	21100
890.254	21062
890.377	20963
890.501	20792
890.624	20735
890.748	20811
890.871	20731
890.995	20537
891.118	20583
891.241	20556
891.364	20670
891.488	20731
891.611	20606
891.734	20625
891.857	20727
891.98	20541
892.103	20663
892.226	20621
892.349	20533
892.471	20419
892.594	20492
892.717	20469
892.839	20503
892.962	20511
893.085	20556
893.207	20454
893.33	20362
893.452	20461
893.575	20549
893.697	20457
893.819	20636
893.941	20701
894.064	20590
894.186	20404
894.308	20446
894.43	20564
894.552	20552
894.674	20518
894.796	20484
894.918	20522
895.04	20465
895.161	20537
895.283	20564
895.405	20419
895.526	20415
895.648	20492
895.769	20552
895.891	20499
896.012	20564
896.134	20461
896.255	20560
896.376	20511
896.498	20518
896.619	20480
896.74	20442
896.861	20522
896.982	20826
897.103	21047
897.224	20792
897.345	20617
897.466	20571
897.587	20644
897.708	20876
897.828	20758
897.949	20575
898.07	20507
898.19	20625
898.311	20773
898.431	20667
898.552	20640
898.672	20659
898.792	20819
898.913	20632
899.033	20465
899.153	20446
899.273	20469
899.393	20393
899.513	20476
899.633	20560
899.753	20476
899.873	20339
899.993	20503
900.113	20347
900.232	20385
900.352	20320
900.472	20305
900.591	20142
900.711	20259
900.83	20069
900.95	20248
901.069	20374
901.189	19974
901.308	19887
901.427	19704
901.546	19788
901.665	19868
901.784	19852
901.904	19578
902.023	19552
902.141	19304
902.26	19350
902.379	19449
902.498	19236
902.617	19274
902.735	19179
902.854	19324
902.973	19270
903.091	18977
903.21	18943
903.328	18973
903.446	18791
903.565	18795
903.683	18783
903.801	18654
903.919	18776
904.038	18764
904.156	18536
904.274	18589
904.392	18513
904.51	18460
904.627	18486
904.745	18551
904.863	18642
904.981	18289
905.098	18194
905.216	18300
905.334	18205
905.451	18213
905.569	18087
905.686	18102
905.803	18251
905.921	17984
906.038	18114
906.155	18022
906.272	17927
906.389	18068
906.506	17843
906.623	17756
906.74	17733
906.857	17691
906.974	17630
907.091	17855
907.208	17828
907.324	17752
907.441	17615
907.557	17486
907.674	17486
907.79	17387
907.907	17459
908.023	17551
908.139	17425
908.256	17532
908.372	17360
908.488	17303
908.604	17212
908.72	17086
908.836	17204
908.952	17140
909.068	17197
909.184	17349
909.3	17113
909.415	17204
909.531	17235
909.647	16984
909.762	16885
909.878	16885
909.993	16934
910.108	16835
910.224	16873
910.339	16911
910.454	16733
910.57	16577
910.685	16618
910.8	16725
910.915	16782
911.03	16782
911.145	16478
911.259	16428
911.374	16489
911.489	16382
911.604	16306
911.718	16154
911.833	16166
911.947	16013
912.062	15922
912.176	16204
912.291	16109
912.405	16093
912.519	16341
912.633	16329
912.748	16135
912.862	16211
912.976	16116
913.09	15930
913.204	15991
913.318	16013
913.431	16128
913.545	16002
913.659	16071
913.772	15869
913.886	15793
914	15789
914.113	15918
914.226	15808
914.34	15861
914.453	15671
914.566	15880
914.68	15774
914.793	15698
914.906	15466
915.019	15393
915.132	15348
915.245	15401
915.358	15473
915.47	15443
915.583	15450
915.696	15389
915.809	15526
915.921	15443
916.034	15306
916.146	15287
916.259	15378
916.371	15317
916.483	15386
916.595	15214
916.708	15176
916.82	15203
916.932	15135
917.044	15123
917.156	15131
917.268	14986
917.38	14979
917.491	14944
917.603	14990
917.715	15138
917.826	15127
917.938	15055
918.049	14891
918.161	14944
918.272	15176
918.384	15192
918.495	14925
918.606	14853
918.717	14826
918.828	14910
918.939	14773
919.05	14655
919.161	14819
919.272	14575
919.383	14678
919.494	14895
919.604	14952
919.715	14861
919.826	14701
919.936	14735
920.047	14857
920.157	14746
920.267	14948
920.378	14754
920.488	14686
920.598	14937
920.708	15085
920.818	14902
920.928	14853
921.038	15058
921.148	15043
921.258	14754
921.368	14629
921.477	14473
921.587	14488
921.697	14381
921.806	14545
921.916	14393
922.025	14240
922.134	14111
922.244	14031
922.353	14191
922.462	13974
922.571	13940
922.68	13788
922.789	13780
922.898	13826
923.007	13628
923.116	13818
923.224	13738
923.333	13719
923.442	13639
923.55	13491
923.659	13662
923.767	13491
923.876	13685
923.984	13578
924.092	13518
924.201	13422
924.309	13533
924.417	13502
924.525	13365
924.633	13373
924.741	14180
924.849	13202
924.956	13381
925.064	13285
925.172	13019
925.279	13057
925.387	13293
925.494	13118
925.602	13297
925.709	13255
925.816	13156
925.924	13095
926.031	13160
926.138	13050
926.245	13187
926.352	13000
926.459	13126
926.566	13190
926.673	12928
926.779	12886
926.886	12871
926.993	12722
927.099	12726
927.206	12711
927.312	12673
927.419	12783
927.525	12791
927.631	12802
927.737	12608
927.843	12547
927.95	12456
928.056	12528
928.162	12490
928.267	12574
928.373	13118
928.479	12536
928.585	12403
928.69	12528
928.796	12528
928.901	12361
929.007	12258
929.112	12327
929.218	12338
929.323	12342
929.428	12266
929.533	12323
929.638	12190
929.743	12159
929.848	12228
929.953	12209
930.058	12038
930.163	11939
930.267	12007
930.372	12034
930.477	11946
930.581	12079
930.685	12091
930.79	11851
930.894	11752
930.998	11794
931.103	11912
931.207	11627
931.311	11455
931.415	11372
931.519	11235
931.623	11166
