Data from test_V78500241_3534.txt Node
Date: Fri Mar 25 15:34:28 CST 2022
User: usil
Spectrometer: V785-0024
Trigger mode: 0
Integration Time (sec): 4.000000E-1
Scans to average: 1
Nonlinearity correction enabled: false
Boxcar width: 0
Storing dark spectrum: false
XAxis mode: Wavelengths
Number of Pixels in Spectrum: 1024
>>>>>Begin Spectral Data<<<<<
801.071	27348
801.214	27279
801.356	26986
801.499	27100
801.641	26921
801.783	26773
801.926	26979
802.068	26933
802.211	26796
802.353	26644
802.496	26598
802.638	26640
802.78	26552
802.923	26423
803.065	26366
803.208	26446
803.35	26453
803.492	26571
803.635	26758
803.777	26552
803.919	26762
804.061	26952
804.204	26720
804.346	26651
804.488	26648
804.63	26640
804.773	26644
804.915	26693
805.057	26739
805.199	26739
805.341	26746
805.483	26701
805.626	26712
805.768	26746
805.91	26640
806.052	26716
806.194	26712
806.336	26952
806.478	26834
806.62	26727
806.762	26899
806.904	27043
807.046	27199
807.188	27195
807.33	27150
807.472	27241
807.614	27157
807.756	27112
807.898	27047
808.04	26914
808.182	27020
808.324	27058
808.465	27032
808.607	27233
808.749	27317
808.891	27389
809.033	27576
809.174	27511
809.316	27317
809.458	27408
809.6	27302
809.741	27389
809.883	27504
810.025	27595
810.166	27652
810.308	27625
810.45	27595
810.591	27526
810.733	27435
810.875	27310
811.016	27382
811.158	27294
811.299	27412
811.441	27576
811.582	27557
811.724	27325
811.865	27310
812.007	27485
812.148	27401
812.29	27466
812.431	27549
812.573	27739
812.714	27698
812.855	27789
812.997	27888
813.138	28051
813.279	28070
813.421	27876
813.562	27762
813.703	27774
813.845	27690
813.986	27294
814.127	27039
814.268	27017
814.41	27214
814.551	27085
814.692	27119
814.833	26982
814.974	26963
815.115	27081
815.256	26807
815.397	26899
815.539	26963
815.68	26902
815.821	26720
815.962	26960
816.103	26568
816.244	26716
816.385	26621
816.526	26579
816.666	26362
816.807	26450
816.948	26320
817.089	26366
817.23	26187
817.371	26339
817.512	26275
817.653	26263
817.793	26286
817.934	26328
818.075	26199
818.216	26298
818.356	26248
818.497	26103
818.638	26103
818.778	25963
818.919	26084
819.06	26153
819.2	26180
819.341	26385
819.481	26358
819.622	26533
819.762	26663
819.903	26587
820.043	26495
820.184	26366
820.324	26427
820.465	26602
820.605	26355
820.746	26355
820.886	26282
821.026	26332
821.167	26339
821.307	26362
821.447	26286
821.588	26191
821.728	26065
821.868	25986
822.008	25772
822.149	25761
822.289	25765
822.429	25552
822.569	25518
822.709	25601
822.849	25331
822.99	25339
823.13	25171
823.27	25137
823.41	25110
823.55	24924
823.69	25148
823.83	25126
823.97	24977
824.11	24886
824.25	24905
824.389	24852
824.529	24924
824.669	24837
824.809	25004
824.949	25034
825.089	24947
825.228	24905
825.368	24802
825.508	24684
825.648	24760
825.787	24757
825.927	24871
826.067	24817
826.206	24897
826.346	24837
826.485	24871
826.625	24802
826.765	25023
826.904	24890
827.044	24669
827.183	24593
827.323	24467
827.462	24467
827.601	24407
827.741	24391
827.88	24616
828.02	24460
828.159	24452
828.298	24563
828.437	24612
828.577	24494
828.716	24521
828.855	24521
828.994	24232
829.134	24201
829.273	24224
829.412	24186
829.551	24148
829.69	24224
829.829	24034
829.968	24281
830.107	24452
830.246	24174
830.385	24182
830.524	24140
830.663	24144
830.802	23961
830.941	23824
831.08	23771
831.219	23935
831.357	23961
831.496	23939
831.635	23908
831.774	23866
831.913	23699
832.051	23642
832.19	23642
832.329	23661
832.467	23638
832.606	23414
832.744	23512
832.883	23589
833.022	23482
833.16	23433
833.299	23554
833.437	23619
833.576	23547
833.714	23589
833.852	23589
833.991	23615
834.129	23737
834.267	23775
834.406	23668
834.544	23581
834.682	23623
834.821	23592
834.959	23779
835.097	23608
835.235	23558
835.373	23474
835.511	23551
835.65	23383
835.788	23452
835.926	23265
836.064	23414
836.202	23265
836.34	23376
836.478	23501
836.615	23520
836.753	23433
836.891	23440
837.029	23421
837.167	23383
837.305	23353
837.443	23231
837.58	23383
837.718	23376
837.856	23349
837.993	23143
838.131	23368
838.269	23162
838.406	23223
838.544	23136
838.681	22972
838.819	22923
838.956	22752
839.094	22767
839.231	22873
839.369	22934
839.506	23193
839.643	23033
839.781	22717
839.918	22755
840.055	22805
840.193	22698
840.33	22634
840.467	22767
840.604	22744
840.742	22908
840.879	22497
841.016	22557
841.153	22580
841.29	22618
841.427	22687
841.564	22752
841.701	22736
841.838	22706
841.975	22584
842.112	22626
842.249	22516
842.385	22405
842.522	22733
842.659	22508
842.796	22405
842.933	22474
843.069	22417
843.206	22329
843.343	22481
843.479	22504
843.616	22325
843.752	22265
843.889	22287
844.025	22417
844.162	22143
844.298	22295
844.435	22131
844.571	22185
844.708	22337
844.844	22379
844.98	22295
845.117	22344
845.253	22238
845.389	22086
845.525	22158
845.661	22070
845.798	21991
845.934	22006
846.07	21911
846.206	22120
846.342	22074
846.478	21972
846.614	21713
846.75	21686
846.886	21686
847.022	21835
847.158	21686
847.294	21759
847.429	21918
847.565	21694
847.701	21964
847.837	21424
847.972	21462
848.108	21447
848.244	21568
848.379	21355
848.515	21230
848.65	21249
848.786	21222
848.921	21481
849.057	21302
849.192	21287
849.328	21363
849.463	21256
849.598	21230
849.734	21188
849.869	21066
850.004	21024
850.14	21058
850.275	21161
850.41	21051
850.545	21039
850.68	21013
850.815	21203
850.95	21104
851.085	21184
851.22	21218
851.355	21142
851.49	21169
851.625	21028
851.76	20975
851.895	20941
852.03	20971
852.165	21047
852.299	21150
852.434	21112
852.569	21184
852.703	21047
852.838	21142
852.973	21123
853.107	21112
853.242	21013
853.376	20933
853.511	20712
853.645	20807
853.78	20899
853.914	20979
854.048	20849
854.183	20796
854.317	20883
854.451	21005
854.585	20853
854.72	20788
854.854	20963
854.988	20967
855.122	20864
855.256	20781
855.39	20754
855.524	20979
855.658	20849
855.792	20956
855.926	21013
856.06	20823
856.194	21039
856.327	20804
856.461	20937
856.595	20724
856.729	20861
856.862	20914
856.996	20853
857.13	21020
857.263	20960
857.397	20944
857.53	20807
857.664	20864
857.797	20956
857.931	20990
858.064	20899
858.197	20979
858.331	20868
858.464	20781
858.597	20758
858.731	20918
858.864	20781
858.997	20807
859.13	20986
859.263	20948
859.396	20891
859.529	20868
859.662	20918
859.795	20864
859.928	20819
860.061	21085
860.194	21089
860.327	21024
860.46	20967
860.592	20979
860.725	21074
860.858	21055
860.99	20990
861.123	20826
861.256	20792
861.388	20876
861.521	21682
861.653	20735
861.786	20727
861.918	20731
862.05	20781
862.183	20883
862.315	20887
862.447	20876
862.58	20754
862.712	20522
862.844	20545
862.976	20800
863.108	20731
863.24	21017
863.372	20564
863.504	20663
863.636	20526
863.768	20575
863.9	20629
864.032	20484
864.164	20450
864.296	20659
864.428	20746
864.559	20613
864.691	20746
864.823	20678
864.954	20594
865.086	20625
865.217	20454
865.349	20446
865.48	20518
865.612	20655
865.743	20564
865.875	20564
866.006	20552
866.137	20495
866.269	20606
866.4	20446
866.531	20377
866.662	20419
866.793	20423
866.924	20442
867.055	20366
867.186	20560
867.317	20450
867.448	20446
867.579	20446
867.71	20393
867.841	20381
867.972	20495
868.103	20408
868.233	20438
868.364	20480
868.495	20556
868.625	20648
868.756	20754
868.886	20682
869.017	20587
869.147	20743
869.278	20762
869.408	20762
869.539	20648
869.669	20708
869.799	20693
869.929	20895
870.06	20788
870.19	20960
870.32	20952
870.45	21058
870.58	21005
870.71	21241
870.84	21135
870.97	21211
871.1	21009
871.23	21279
871.36	21218
871.489	21207
871.619	21291
871.749	21233
871.879	21264
872.008	21443
872.138	21340
872.267	21279
872.397	21001
872.526	21036
872.656	21165
872.785	21180
872.915	21329
873.044	21408
873.173	21283
873.303	21435
873.432	21389
873.561	21435
873.69	21466
873.819	21310
873.948	21401
874.077	21317
874.206	21363
874.335	21348
874.464	21374
874.593	21603
874.722	21587
874.851	21500
874.979	21641
875.108	21568
875.237	21557
875.365	21481
875.494	21450
875.623	21610
875.751	21553
875.88	21698
876.008	21682
876.136	21766
876.265	21888
876.393	21934
876.521	22093
876.65	21998
876.778	21865
876.906	21956
877.034	21804
877.162	21918
877.29	21800
877.418	21911
877.546	21945
877.674	21972
877.802	21899
877.93	21930
878.058	21842
878.185	21728
878.313	21800
878.441	21922
878.568	21701
878.696	21831
878.824	21831
878.951	21960
879.079	22048
879.206	22390
879.333	22040
879.461	21880
879.588	22090
879.715	22040
879.842	22124
879.97	21987
880.097	21743
880.224	21770
880.351	21637
880.478	21793
880.605	21690
880.732	21865
880.859	21964
880.986	21743
881.112	21789
881.239	21576
881.366	21485
881.493	21268
881.619	21351
881.746	21348
881.872	21294
881.999	21291
882.125	21260
882.252	21389
882.378	21279
882.505	21485
882.631	21138
882.757	21119
882.883	21032
883.01	21123
883.136	20891
883.262	20872
883.388	20849
883.514	21032
883.64	21058
883.766	20807
883.892	20746
884.018	20868
884.143	21043
884.269	21058
884.395	20648
884.52	20571
884.646	20727
884.772	20514
884.897	20587
885.023	20800
885.148	20686
885.274	20743
885.399	20724
885.524	20716
885.65	20644
885.775	20689
885.9	20609
886.025	20712
886.15	20705
886.275	20606
886.4	20552
886.525	20670
886.65	20575
886.775	20457
886.9	20743
887.025	20838
887.149	20556
887.274	20484
887.399	20370
887.523	20412
887.648	20298
887.773	20415
887.897	20575
888.021	20442
888.146	20374
888.27	20461
888.395	20571
888.519	20419
888.643	20465
888.767	20552
888.891	20495
889.015	20237
889.139	20324
889.263	20355
889.387	20351
889.511	20503
889.635	20320
889.759	20050
889.883	20206
890.006	20358
890.13	20328
890.254	20088
890.377	20187
890.501	20115
890.624	19963
890.748	20012
890.871	20005
890.995	19731
891.118	19811
891.241	19871
891.364	19772
891.488	19932
891.611	19890
891.734	19852
891.857	19925
891.98	19791
892.103	19909
892.226	19864
892.349	19708
892.471	19655
892.594	19651
892.717	19780
892.839	19753
892.962	19738
893.085	19791
893.207	19670
893.33	19670
893.452	19609
893.575	19772
893.697	19727
893.819	19814
893.941	19944
894.064	19955
894.186	19772
894.308	19586
894.43	19784
894.552	19928
894.674	19681
894.796	19761
894.918	19685
895.04	19628
895.161	19849
895.283	19757
895.405	19613
895.526	19601
895.648	19708
895.769	19738
895.891	19704
896.012	19811
896.134	19849
896.255	19700
896.376	19670
896.498	19772
896.619	19837
896.74	19746
896.861	19849
896.982	20031
897.103	20176
897.224	19909
897.345	19940
897.466	19940
897.587	19963
897.708	20081
897.828	19997
897.949	19883
898.07	19784
898.19	19879
898.311	19936
898.431	19795
898.552	19978
898.672	19902
898.792	20035
898.913	20020
899.033	19906
899.153	19746
899.273	19719
899.393	19727
899.513	19738
899.633	19757
899.753	19723
899.873	19639
899.993	19772
900.113	19620
900.232	19708
900.352	19597
900.472	19510
900.591	19392
900.711	19396
900.83	19460
900.95	19628
901.069	19624
901.189	19377
901.308	19160
901.427	18947
901.546	19065
901.665	19050
901.784	19129
901.904	19069
902.023	18856
902.141	18665
902.26	18642
902.379	18764
902.498	18585
902.617	18570
902.735	18574
902.854	18559
902.973	18521
903.091	18258
903.21	18243
903.328	18224
903.446	18167
903.565	18007
903.683	18087
903.801	17920
903.919	17946
904.038	18022
904.156	17813
904.274	17923
904.392	17752
904.51	17885
904.627	17794
904.745	17950
904.863	17805
904.981	17737
905.098	17516
905.216	17551
905.334	17486
905.451	17414
905.569	17493
905.686	17520
905.803	17547
905.921	17322
906.038	17402
906.155	17337
906.272	17204
906.389	17178
906.506	17143
906.623	17102
906.74	17117
906.857	16911
906.974	16877
907.091	17064
907.208	17174
907.324	17117
907.441	17006
907.557	16786
907.674	16729
907.79	16778
907.907	16725
908.023	16767
908.139	16816
908.256	16577
908.372	16694
908.488	16713
908.604	16561
908.72	16352
908.836	16440
908.952	16470
909.068	16451
909.184	16573
909.3	16379
909.415	16630
909.531	16497
909.647	16341
909.762	16234
909.878	16074
909.993	16246
910.108	16204
910.224	16196
910.339	16230
910.454	16021
910.57	15975
910.685	15888
910.8	16154
910.915	16173
911.03	16059
911.145	15781
911.259	15812
911.374	15831
911.489	15759
911.604	15614
911.718	15606
911.833	15633
911.947	15606
912.062	15416
912.176	15648
912.291	15576
912.405	15481
912.519	15739
912.633	15736
912.748	15610
912.862	15481
912.976	15397
913.09	15351
913.204	15325
913.318	15382
913.431	15447
913.545	15542
913.659	15488
913.772	15351
913.886	15184
914	15222
914.113	15176
914.226	15256
914.34	15150
914.453	14994
914.566	15230
914.68	15131
914.793	15039
914.906	14762
915.019	14861
915.132	14640
915.245	14788
915.358	14826
915.47	14864
915.583	14762
915.696	14739
915.809	14933
915.921	14895
916.034	14739
916.146	14655
916.259	14670
916.371	14762
916.483	14758
916.595	14598
916.708	14689
916.82	14701
916.932	14632
917.044	14613
917.156	14560
917.268	14522
917.38	14419
917.491	14522
917.603	14495
917.715	14454
917.826	14629
917.938	14412
918.049	14317
918.161	14370
918.272	14583
918.384	14530
918.495	14457
918.606	14237
918.717	14195
918.828	14225
918.939	14252
919.05	14103
919.161	14187
919.272	13936
919.383	14039
919.494	14282
919.604	14381
919.715	14313
919.826	14183
919.936	14240
920.047	14240
920.157	14164
920.267	14355
920.378	14130
920.488	14164
920.598	14476
920.708	14575
920.818	14347
920.928	14370
921.038	14522
921.148	14522
921.258	14180
921.368	14054
921.477	13864
921.587	14008
921.697	13807
921.806	13982
921.916	13738
922.025	13639
922.134	13597
922.244	13499
922.353	13548
922.462	13544
922.571	13411
922.68	13278
922.789	13190
922.898	13263
923.007	13149
923.116	13247
923.224	13236
923.333	13156
923.442	13137
923.55	13019
923.659	13046
923.767	13164
923.876	12985
923.984	13069
924.092	13012
924.201	12954
924.309	12951
924.417	13038
924.525	12920
924.633	12886
924.741	13647
924.849	12692
924.956	12787
925.064	12677
925.172	12711
925.279	12566
925.387	12760
925.494	12684
925.602	12802
925.709	12696
925.816	12540
925.924	12551
926.031	12681
926.138	12540
926.245	12604
926.352	12559
926.459	12669
926.566	12642
926.673	12418
926.779	12475
926.886	12319
926.993	12304
927.099	12296
927.206	12220
927.312	12140
927.419	12300
927.525	12235
927.631	12281
927.737	12178
927.843	12064
927.95	12026
928.056	12049
928.162	12045
928.267	12148
928.373	12612
928.479	12182
928.585	11882
928.69	12060
928.796	12041
928.901	11950
929.007	11771
929.112	11958
929.218	11916
929.323	11882
929.428	11760
929.533	11950
929.638	11805
929.743	11684
929.848	11786
929.953	11786
930.058	11707
930.163	11543
930.267	11497
930.372	11592
930.477	11463
930.581	11718
930.685	11539
930.79	11440
930.894	11379
930.998	11299
931.103	11505
931.207	11121
931.311	11071
931.415	10987
931.519	10790
931.623	10790
