Data from test_V78500241_827.txt Node
Date: Fri Mar 25 15:15:36 CST 2022
User: usil
Spectrometer: V785-0024
Trigger mode: 0
Integration Time (sec): 4.000000E-1
Scans to average: 1
Nonlinearity correction enabled: false
Boxcar width: 0
Storing dark spectrum: false
XAxis mode: Wavelengths
Number of Pixels in Spectrum: 1024
>>>>>Begin Spectral Data<<<<<
801.071	28268
801.214	28310
801.356	27953
801.499	27914
801.641	27869
801.783	27812
801.926	27819
802.068	27793
802.211	27854
802.353	27774
802.496	27435
802.638	27481
802.78	27572
802.923	27542
803.065	27591
803.208	27576
803.35	27675
803.492	27599
803.635	27682
803.777	27736
803.919	27717
804.061	28086
804.204	27705
804.346	27671
804.488	27755
804.63	27663
804.773	27561
804.915	27857
805.057	27770
805.199	27644
805.341	27899
805.483	27914
805.626	27956
805.768	27930
805.91	27686
806.052	27956
806.194	27861
806.336	28082
806.478	27850
806.62	27979
806.762	27888
806.904	28131
807.046	28497
807.188	28421
807.33	28249
807.472	28443
807.614	28398
807.756	28333
807.898	28158
808.04	28207
808.182	28257
808.324	28188
808.465	28421
808.607	28417
808.749	28531
808.891	28626
809.033	28683
809.174	28801
809.316	28618
809.458	28561
809.6	28542
809.741	28729
809.883	28748
810.025	28778
810.166	28839
810.308	28919
810.45	28892
810.591	28774
810.733	28691
810.875	28561
811.016	28386
811.158	28474
811.299	28656
811.441	28828
811.582	28740
811.724	28500
811.865	28550
812.007	28607
812.148	28634
812.29	28538
812.431	28805
812.573	28961
812.714	28976
812.855	29094
812.997	29197
813.138	29455
813.279	29235
813.421	29098
813.562	29151
813.703	28938
813.845	28771
813.986	28588
814.127	28367
814.268	28253
814.41	28295
814.551	28177
814.692	28348
814.833	28265
814.974	28139
815.115	28314
815.256	28223
815.397	28177
815.539	28204
815.68	28109
815.821	28002
815.962	27949
816.103	27960
816.244	27914
816.385	27945
816.526	27854
816.666	27766
816.807	27443
816.948	27751
817.089	27656
817.23	27778
817.371	27648
817.512	27606
817.653	27633
817.793	27595
817.934	27618
818.075	27766
818.216	27648
818.356	27553
818.497	27519
818.638	27401
818.778	27241
818.919	27405
819.06	27447
819.2	27488
819.341	27580
819.481	27564
819.622	27694
819.762	27800
819.903	27823
820.043	27732
820.184	27648
820.324	27907
820.465	27781
820.605	27861
820.746	27876
820.886	27591
821.026	27804
821.167	27690
821.307	27800
821.447	27637
821.588	27545
821.728	27435
821.868	27313
822.008	27245
822.149	27081
822.289	27043
822.429	26838
822.569	26944
822.709	26811
822.849	26617
822.99	26674
823.13	26651
823.27	26412
823.41	26355
823.55	26252
823.69	26408
823.83	26423
823.97	26438
824.11	26168
824.25	26233
824.389	26267
824.529	26282
824.669	26343
824.809	26339
824.949	26233
825.089	26252
825.228	26168
825.368	26020
825.508	26111
825.648	26073
825.787	26229
825.927	26153
826.067	26096
826.206	26024
826.346	26130
826.485	26229
826.625	26107
826.765	26221
826.904	26126
827.044	25986
827.183	25970
827.323	25662
827.462	25811
827.601	25913
827.741	25845
827.88	25887
828.02	25765
828.159	25803
828.298	25925
828.437	25883
828.577	25662
828.716	25837
828.855	25712
828.994	25460
829.134	25533
829.273	25578
829.412	25586
829.551	25396
829.69	25571
829.829	25639
829.968	25597
830.107	25556
830.246	25514
830.385	25464
830.524	25396
830.663	25350
830.802	25209
830.941	25164
831.08	25103
831.219	25209
831.357	25110
831.496	25426
831.635	25152
831.774	25008
831.913	25103
832.051	24932
832.19	25065
832.329	24966
832.467	24890
832.606	24837
832.744	24772
832.883	24757
833.022	24783
833.16	24875
833.299	24916
833.437	24932
833.576	24817
833.714	24859
833.852	24913
833.991	24928
834.129	24958
834.267	25012
834.406	24810
834.544	24878
834.682	24894
834.821	24817
834.959	25019
835.097	24814
835.235	24932
835.373	24852
835.511	24932
835.65	24677
835.788	24783
835.926	24646
836.064	24486
836.202	24517
836.34	24700
836.478	24814
836.615	24741
836.753	24696
836.891	24738
837.029	24658
837.167	24627
837.305	24635
837.443	24475
837.58	24464
837.718	24582
837.856	24677
837.993	24460
838.131	24612
838.269	24323
838.406	24589
838.544	24327
838.681	24133
838.819	24213
838.956	24030
839.094	24003
839.231	24121
839.369	24216
839.506	24422
839.643	24205
839.781	24011
839.918	23908
840.055	23965
840.193	23939
840.33	23870
840.467	23942
840.604	23828
840.742	24148
840.879	23798
841.016	23836
841.153	23786
841.29	24076
841.427	23866
841.564	24041
841.701	23927
841.838	24038
841.975	23760
842.112	23805
842.249	23828
842.385	23695
842.522	23939
842.659	23779
842.796	23630
842.933	23840
843.069	23600
843.206	23535
843.343	23703
843.479	23726
843.616	23615
843.752	23448
843.889	23520
844.025	23627
844.162	23315
844.298	23471
844.435	23296
844.571	23444
844.708	23543
844.844	23577
844.98	23608
845.117	23490
845.253	23315
845.389	23315
845.525	23273
845.661	23334
845.798	23181
845.934	23178
846.07	23212
846.206	23079
846.342	23265
846.478	23098
846.614	22835
846.75	22858
846.886	22904
847.022	22953
847.158	22869
847.294	22908
847.429	22957
847.565	22858
847.701	23132
847.837	22611
847.972	22626
848.108	22729
848.244	22637
848.379	22531
848.515	22546
848.65	22478
848.786	22424
848.921	22413
849.057	22546
849.192	22645
849.328	22478
849.463	22428
849.598	22440
849.734	22348
849.869	22265
850.004	22188
850.14	22280
850.275	22272
850.41	22090
850.545	22086
850.68	22242
850.815	22139
850.95	22268
851.085	22440
851.22	22417
851.355	22394
851.49	22249
851.625	22219
851.76	22131
851.895	22169
852.03	22200
852.165	22234
852.299	22200
852.434	22363
852.569	22200
852.703	22196
852.838	22329
852.973	22284
853.107	22375
853.242	22169
853.376	22109
853.511	21911
853.645	22112
853.78	22291
853.914	22090
854.048	21968
854.183	21983
854.317	22109
854.451	22261
854.585	22044
854.72	22086
854.854	22147
854.988	22059
855.122	22169
855.256	21926
855.39	22059
855.524	22150
855.658	22086
855.792	22070
855.926	22090
856.06	22124
856.194	22025
856.327	22074
856.461	21945
856.595	22063
856.729	22006
856.862	22055
856.996	22109
857.13	22204
857.263	22318
857.397	22166
857.53	22162
857.664	22166
857.797	22200
857.931	22147
858.064	22040
858.197	22158
858.331	22010
858.464	22150
858.597	21915
858.731	22082
858.864	21956
858.997	22029
859.13	22036
859.263	22067
859.396	22112
859.529	21968
859.662	22181
859.795	22143
859.928	22025
860.061	22287
860.194	22234
860.327	22055
860.46	22093
860.592	22310
860.725	22090
860.858	22211
860.99	22048
861.123	22051
861.256	22078
861.388	22040
861.521	22869
861.653	21907
861.786	21930
861.918	22010
862.05	21888
862.183	22010
862.315	22059
862.447	21964
862.58	21953
862.712	21759
862.844	21800
862.976	21915
863.108	21842
863.24	22032
863.372	21732
863.504	21778
863.636	21766
863.768	21861
863.9	21663
864.032	21644
864.164	21823
864.296	21808
864.428	21835
864.559	21812
864.691	21941
864.823	21793
864.954	21789
865.086	21827
865.217	21701
865.349	21545
865.48	21800
865.612	21690
865.743	21888
865.875	21656
866.006	21614
866.137	21633
866.269	21614
866.4	21663
866.531	21610
866.662	21450
866.793	21572
866.924	21587
867.055	21595
867.186	21641
867.317	21454
867.448	21618
867.579	21572
867.71	21542
867.841	21519
867.972	21561
868.103	21526
868.233	21705
868.364	21561
868.495	21728
868.625	21751
868.756	21937
868.886	21800
869.017	21865
869.147	21926
869.278	21865
869.408	21819
869.539	21838
869.669	21918
869.799	21880
869.929	21922
870.06	21785
870.19	22154
870.32	22002
870.45	22154
870.58	22112
870.71	22363
870.84	22306
870.97	22173
871.1	22105
871.23	22306
871.36	22459
871.489	22360
871.619	22344
871.749	22436
871.879	22413
872.008	22573
872.138	22447
872.267	22371
872.397	22200
872.526	22063
872.656	22131
872.785	22234
872.915	22432
873.044	22500
873.173	22367
873.303	22481
873.432	22485
873.561	22538
873.69	22577
873.819	22462
873.948	22451
874.077	22531
874.206	22436
874.335	22314
874.464	22607
874.593	22736
874.722	22554
874.851	22778
874.979	22778
875.108	22824
875.237	22649
875.365	22611
875.494	22596
875.623	22660
875.751	22653
875.88	22611
876.008	22839
876.136	22801
876.265	23029
876.393	23178
876.521	22942
876.65	23128
876.778	23006
876.906	22900
877.034	22942
877.162	23033
877.29	22881
877.418	22984
877.546	22953
877.674	22923
877.802	22972
877.93	22980
878.058	23041
878.185	22831
878.313	22831
878.441	22976
878.568	22801
878.696	22980
878.824	23003
878.951	23109
879.079	23242
879.206	23315
879.333	23220
879.461	23086
879.588	23159
879.715	23147
879.842	23235
879.97	23147
880.097	22809
880.224	22835
880.351	22778
880.478	22877
880.605	22691
880.732	22847
880.859	23102
880.986	22786
881.112	22748
881.239	22615
881.366	22611
881.493	22618
881.619	22352
881.746	22322
881.872	22379
881.999	22474
882.125	22284
882.252	22436
882.378	22284
882.505	22436
882.631	22147
882.757	22040
882.883	22169
883.01	21953
883.136	22029
883.262	22002
883.388	21846
883.514	22200
883.64	22105
883.766	21907
883.892	21747
884.018	21823
884.143	21979
884.269	22169
884.395	21705
884.52	21660
884.646	21743
884.772	21641
884.897	21633
885.023	21694
885.148	21766
885.274	21781
885.399	21766
885.524	21713
885.65	21660
885.775	21629
885.9	21713
886.025	21774
886.15	21838
886.275	21686
886.4	21553
886.525	21637
886.65	21622
886.775	21610
886.9	21739
887.025	21899
887.149	21618
887.274	21553
887.399	21469
887.523	21504
887.648	21405
887.773	21325
887.897	21557
888.021	21447
888.146	21431
888.27	21405
888.395	21561
888.519	21412
888.643	21447
888.767	21401
888.891	21230
889.015	21245
889.139	21279
889.263	21142
889.387	21313
889.511	21618
889.635	21367
889.759	21218
889.883	21195
890.006	21275
890.13	21462
890.254	21043
890.377	21093
890.501	20998
890.624	20880
890.748	20979
890.871	20880
890.995	20838
891.118	20731
891.241	20743
891.364	20887
891.488	20899
891.611	20739
891.734	20819
891.857	20777
891.98	20781
892.103	20956
892.226	20792
892.349	20800
892.471	20705
892.594	20754
892.717	20785
892.839	20754
892.962	20845
893.085	20811
893.207	20689
893.33	20579
893.452	20602
893.575	20769
893.697	20727
893.819	20902
893.941	20902
894.064	20693
894.186	20552
894.308	20625
894.43	20758
894.552	20754
894.674	20712
894.796	20617
894.918	20674
895.04	20598
895.161	20796
895.283	20693
895.405	20663
895.526	20530
895.648	20602
895.769	20644
895.891	20720
896.012	20758
896.134	20788
896.255	20663
896.376	20571
896.498	20678
896.619	20632
896.74	20724
896.861	20739
896.982	21081
897.103	21207
897.224	20944
897.345	20872
897.466	20830
897.587	20838
897.708	20941
897.828	20960
897.949	20735
898.07	20682
898.19	20762
898.311	20872
898.431	20724
898.552	20899
898.672	20925
898.792	20986
898.913	20895
899.033	20648
899.153	20807
899.273	20568
899.393	20629
899.513	20655
899.633	20609
899.753	20724
899.873	20518
899.993	20594
900.113	20473
900.232	20507
900.352	20469
900.472	20415
900.591	20480
900.711	20442
900.83	20305
900.95	20476
901.069	20503
901.189	20225
901.308	20081
901.427	19928
901.546	19879
901.665	20031
901.784	19955
901.904	19780
902.023	19822
902.141	19651
902.26	19521
902.379	19575
902.498	19559
902.617	19480
902.735	19480
902.854	19487
902.973	19301
903.091	19107
903.21	19156
903.328	19019
903.446	19031
903.565	18943
903.683	18916
903.801	18878
903.919	18863
904.038	18897
904.156	18635
904.274	18768
904.392	18673
904.51	18673
904.627	18677
904.745	18764
904.863	18741
904.981	18593
905.098	18452
905.216	18429
905.334	18365
905.451	18330
905.569	18357
905.686	18460
905.803	18315
905.921	18205
906.038	18369
906.155	18213
906.272	18110
906.389	18091
906.506	17863
906.623	17805
906.74	17946
906.857	17764
906.974	17878
907.091	17832
907.208	17958
907.324	17828
907.441	17756
907.557	17642
907.674	17627
907.79	17585
907.907	17649
908.023	17668
908.139	17665
908.256	17474
908.372	17429
908.488	17482
908.604	17299
908.72	17284
908.836	17463
908.952	17273
909.068	17341
909.184	17368
909.3	17261
909.415	17356
909.531	17368
909.647	17132
909.762	17102
909.878	16999
909.993	16980
910.108	17052
910.224	17018
910.339	16976
910.454	16858
910.57	16755
910.685	16740
910.8	17189
910.915	17010
911.03	16809
911.145	16679
911.259	16599
911.374	16618
911.489	16485
911.604	16531
911.718	16375
911.833	16379
911.947	16268
912.062	16101
912.176	16284
912.291	16314
912.405	16303
912.519	16538
912.633	16481
912.748	16268
912.862	16344
912.976	16230
913.09	16036
913.204	16147
913.318	16181
913.431	16303
913.545	16284
913.659	16200
913.772	16105
913.886	16036
914	16078
914.113	16063
914.226	16109
914.34	15991
914.453	15895
914.566	15926
914.68	15846
914.793	15819
914.906	15686
915.019	15584
915.132	15515
915.245	15603
915.358	15526
915.47	15652
915.583	15488
915.696	15564
915.809	15553
915.921	15736
916.034	15507
916.146	15454
916.259	15473
916.371	15424
916.483	15458
916.595	15370
916.708	15443
916.82	15351
916.932	15294
917.044	15268
917.156	15378
917.268	15188
917.38	15222
917.491	15272
917.603	15192
917.715	15211
917.826	15233
917.938	15161
918.049	14971
918.161	15138
918.272	15294
918.384	15275
918.495	15112
918.606	14990
918.717	14944
918.828	15017
918.939	14937
919.05	14929
919.161	14914
919.272	14651
919.383	14735
919.494	14982
919.604	15169
919.715	15009
919.826	14750
919.936	14861
920.047	14979
920.157	14948
920.267	15070
920.378	14937
920.488	14929
920.598	15093
920.708	15214
920.818	15001
920.928	14925
921.038	15150
921.148	15142
921.258	14880
921.368	14750
921.477	14682
921.587	14610
921.697	14549
921.806	14587
921.916	14484
922.025	14347
922.134	14355
922.244	14168
922.353	14271
922.462	14115
922.571	14134
922.68	14016
922.789	13921
922.898	13906
923.007	13856
923.116	13936
923.224	13940
923.333	13902
923.442	13750
923.55	13693
923.659	13643
923.767	13845
923.876	13674
923.984	13776
924.092	13559
924.201	13674
924.309	13582
924.417	13601
924.525	13502
924.633	13521
924.741	14233
924.849	13362
924.956	13510
925.064	13362
925.172	13240
925.279	13266
925.387	13396
925.494	13350
925.602	13438
925.709	13320
925.816	13175
925.924	13206
926.031	13312
926.138	13202
926.245	13331
926.352	13149
926.459	13228
926.566	13270
926.673	13149
926.779	13031
926.886	13034
926.993	12943
927.099	12806
927.206	12810
927.312	12745
927.419	12935
927.525	12837
927.631	12970
927.737	12677
927.843	12703
927.95	12563
928.056	12646
928.162	12616
928.267	12753
928.373	13232
928.479	12741
928.585	12490
928.69	12658
928.796	12658
928.901	12471
929.007	12353
929.112	12494
929.218	12540
929.323	12391
929.428	12350
929.533	12540
929.638	12342
929.743	12361
929.848	12327
929.953	12353
930.058	12224
930.163	12060
930.267	12049
930.372	12167
930.477	12026
930.581	12197
930.685	12144
930.79	11973
930.894	11988
930.998	11950
931.103	12068
931.207	11623
931.311	11577
931.415	11493
931.519	11372
931.623	11265
