Data from test_V78500241_109.txt Node
Date: Fri Mar 25 15:10:37 CST 2022
User: usil
Spectrometer: V785-0024
Trigger mode: 0
Integration Time (sec): 4.000000E-1
Scans to average: 1
Nonlinearity correction enabled: false
Boxcar width: 0
Storing dark spectrum: false
XAxis mode: Wavelengths
Number of Pixels in Spectrum: 1024
>>>>>Begin Spectral Data<<<<<
801.071	28055
801.214	28082
801.356	27918
801.499	27785
801.641	27629
801.783	27679
801.926	27755
802.068	27580
802.211	27644
802.353	27534
802.496	27336
802.638	27332
802.78	27344
802.923	27074
803.065	27199
803.208	27287
803.35	27272
803.492	27294
803.635	27351
803.777	27287
803.919	27386
804.061	27545
804.204	27485
804.346	27268
804.488	27245
804.63	27348
804.773	27306
804.915	27344
805.057	27370
805.199	27222
805.341	27313
805.483	27545
805.626	27283
805.768	27237
805.91	27443
806.052	27447
806.194	27359
806.336	27641
806.478	27473
806.62	27439
806.762	27504
806.904	27557
807.046	27876
807.188	27892
807.33	27720
807.472	27911
807.614	27549
807.756	27755
807.898	27663
808.04	27469
808.182	27576
808.324	27603
808.465	27576
808.607	27747
808.749	27895
808.891	27884
809.033	28029
809.174	27857
809.316	28006
809.458	27793
809.6	27766
809.741	27968
809.883	27918
810.025	28124
810.166	28124
810.308	28154
810.45	28090
810.591	28025
810.733	27937
810.875	27907
811.016	27778
811.158	27682
811.299	27816
811.441	27831
811.582	27926
811.724	27774
811.865	27800
812.007	27720
812.148	27831
812.29	27816
812.431	28154
812.573	28086
812.714	28219
812.855	28249
812.997	28596
813.138	28592
813.279	28531
813.421	28291
813.562	28120
813.703	28086
813.845	27960
813.986	27713
814.127	27648
814.268	27606
814.41	27454
814.551	27481
814.692	27557
814.833	27542
814.974	27374
815.115	27447
815.256	27435
815.397	27310
815.539	27310
815.68	27127
815.821	27062
815.962	27058
816.103	27237
816.244	27043
816.385	26944
816.526	26880
816.666	26815
816.807	26575
816.948	26807
817.089	26663
817.23	26644
817.371	26594
817.512	26617
817.653	26571
817.793	26488
817.934	26590
818.075	26712
818.216	26636
818.356	26450
818.497	26412
818.638	26263
818.778	26221
818.919	26290
819.06	26336
819.2	26351
819.341	26549
819.481	26632
819.622	26705
819.762	26842
819.903	26693
820.043	26739
820.184	26609
820.324	26613
820.465	26735
820.605	26480
820.746	26659
820.886	26484
821.026	26545
821.167	26476
821.307	26571
821.447	26541
821.588	26473
821.728	26240
821.868	26062
822.008	26031
822.149	25887
822.289	25868
822.429	25708
822.569	25750
822.709	25651
822.849	25533
822.99	25312
823.13	25434
823.27	25358
823.41	25228
823.55	24970
823.69	25240
823.83	25187
823.97	25228
824.11	25072
824.25	25179
824.389	25012
824.529	25061
824.669	25019
824.809	25103
824.949	24996
825.089	25129
825.228	25061
825.368	24791
825.508	24821
825.648	24791
825.787	24901
825.927	24863
826.067	24867
826.206	24719
826.346	24791
826.485	24985
826.625	24829
826.765	25072
826.904	24890
827.044	24525
827.183	24521
827.323	24505
827.462	24490
827.601	24616
827.741	24445
827.88	24452
828.02	24357
828.159	24456
828.298	24578
828.437	24517
828.577	24414
828.716	24547
828.855	24536
828.994	24247
829.134	24079
829.273	24304
829.412	24152
829.551	24133
829.69	24057
829.829	24148
829.968	24190
830.107	24213
830.246	24224
830.385	24034
830.524	24015
830.663	23942
830.802	23733
830.941	23760
831.08	23699
831.219	23824
831.357	23733
831.496	23961
831.635	23634
831.774	23604
831.913	23490
832.051	23455
832.19	23387
832.329	23478
832.467	23429
832.606	23444
832.744	23372
832.883	23235
833.022	23440
833.16	23402
833.299	23440
833.437	23421
833.576	23387
833.714	23497
833.852	23417
833.991	23467
834.129	23516
834.267	23474
834.406	23269
834.544	23421
834.682	23360
834.821	23490
834.959	23543
835.097	23254
835.235	23433
835.373	23235
835.511	23311
835.65	23185
835.788	23322
835.926	23071
836.064	23003
836.202	23121
836.34	23044
836.478	23284
836.615	23075
836.753	23113
836.891	23102
837.029	23292
837.167	23128
837.305	23098
837.443	23102
837.58	23006
837.718	23227
837.856	23041
837.993	23033
838.131	23075
838.269	22949
838.406	22946
838.544	22801
838.681	22599
838.819	22618
838.956	22398
839.094	22519
839.231	22577
839.369	22675
839.506	22877
839.643	22649
839.781	22447
839.918	22432
840.055	22466
840.193	22512
840.33	22314
840.467	22390
840.604	22462
840.742	22634
840.879	22291
841.016	22348
841.153	22261
841.29	22352
841.427	22375
841.564	22443
841.701	22188
841.838	22333
841.975	22360
842.112	22230
842.249	22185
842.385	22086
842.522	22459
842.659	22147
842.796	22116
842.933	22143
843.069	21911
843.206	21998
843.343	22177
843.479	22044
843.616	21926
843.752	21926
843.889	21926
844.025	22036
844.162	21743
844.298	21907
844.435	21755
844.571	21793
844.708	21835
844.844	21956
844.98	21991
845.117	21926
845.253	21736
845.389	21675
845.525	21789
845.661	21534
845.798	21641
845.934	21629
846.07	21500
846.206	21637
846.342	21564
846.478	21568
846.614	21374
846.75	21214
846.886	21294
847.022	21382
847.158	21203
847.294	21306
847.429	21325
847.565	21218
847.701	21572
847.837	21013
847.972	21001
848.108	21116
848.244	21093
848.379	20807
848.515	20895
848.65	20712
848.786	20853
848.921	20895
849.057	21005
849.192	20906
849.328	20899
849.463	20819
849.598	20830
849.734	20667
849.869	20682
850.004	20602
850.14	20590
850.275	20511
850.41	20408
850.545	20667
850.68	20541
850.815	20739
850.95	20636
851.085	20644
851.22	20621
851.355	20541
851.49	20579
851.625	20434
851.76	20579
851.895	20415
852.03	20366
852.165	20530
852.299	20629
852.434	20667
852.569	20514
852.703	20492
852.838	20629
852.973	20644
853.107	20697
853.242	20575
853.376	20419
853.511	20225
853.645	20317
853.78	20381
853.914	20332
854.048	20400
854.183	20328
854.317	20366
854.451	20594
854.585	20309
854.72	20434
854.854	20442
854.988	20134
855.122	20332
855.256	20339
855.39	20366
855.524	20431
855.658	20309
855.792	20301
855.926	20355
856.06	20450
856.194	20499
856.327	20492
856.461	20389
856.595	20343
856.729	20343
856.862	20404
856.996	20377
857.13	20328
857.263	20434
857.397	20431
857.53	20336
857.664	20343
857.797	20457
857.931	20400
858.064	20301
858.197	20419
858.331	20267
858.464	20191
858.597	20164
858.731	20191
858.864	20290
858.997	20206
859.13	20305
859.263	20256
859.396	20457
859.529	20332
859.662	20313
859.795	20263
859.928	20233
860.061	20530
860.194	20488
860.327	20454
860.46	20358
860.592	20431
860.725	20465
860.858	20328
860.99	20221
861.123	20138
861.256	20229
861.388	20275
861.521	20937
861.653	20187
861.786	20046
861.918	20164
862.05	20389
862.183	20309
862.315	20263
862.447	20385
862.58	20339
862.712	20134
862.844	20069
862.976	20149
863.108	20088
863.24	20518
863.372	19970
863.504	20005
863.636	19925
863.768	20092
863.9	19940
864.032	19898
864.164	19955
864.296	19944
864.428	20100
864.559	20069
864.691	19993
864.823	20103
864.954	20115
865.086	20001
865.217	19898
865.349	19856
865.48	19944
865.612	19951
865.743	20142
865.875	19993
866.006	19894
866.137	20050
866.269	19856
866.4	19928
866.531	19807
866.662	19852
866.793	19708
866.924	19731
867.055	19864
867.186	19890
867.317	19883
867.448	19666
867.579	19811
867.71	19780
867.841	19704
867.972	19772
868.103	19852
868.233	19940
868.364	19826
868.495	19932
868.625	19986
868.756	20100
868.886	19940
869.017	20100
869.147	20107
869.278	20073
869.408	20081
869.539	20043
869.669	20084
869.799	20180
869.929	20149
870.06	20183
870.19	20381
870.32	20271
870.45	20412
870.58	20423
870.71	20587
870.84	20488
870.97	20469
871.1	20389
871.23	20583
871.36	20621
871.489	20552
871.619	20716
871.749	20621
871.879	20754
872.008	20777
872.138	20712
872.267	20613
872.397	20533
872.526	20541
872.656	20465
872.785	20431
872.915	20731
873.044	20762
873.173	20735
873.303	20777
873.432	20769
873.561	20815
873.69	20644
873.819	20655
873.948	20811
874.077	20693
874.206	20571
874.335	20674
874.464	20853
874.593	20937
874.722	20849
874.851	20861
874.979	20963
875.108	21020
875.237	20944
875.365	20849
875.494	20982
875.623	21047
875.751	20895
875.88	20982
876.008	21043
876.136	21096
876.265	21291
876.393	21523
876.521	21272
876.65	21336
876.778	21431
876.906	21294
877.034	21268
877.162	21237
877.29	21241
877.418	21408
877.546	21195
877.674	21397
877.802	21252
877.93	21272
878.058	21260
878.185	21230
878.313	21287
878.441	21329
878.568	21188
878.696	21336
878.824	21344
878.951	21428
879.079	21515
879.206	21583
879.333	21587
879.461	21332
879.588	21386
879.715	21454
879.842	21511
879.97	21340
880.097	21142
880.224	21070
880.351	21154
880.478	21176
880.605	21005
880.732	21074
880.859	21336
880.986	21173
881.112	21252
881.239	21020
881.366	20842
881.493	20815
881.619	20712
881.746	20720
881.872	20830
881.999	20606
882.125	20659
882.252	20689
882.378	20792
882.505	20933
882.631	20590
882.757	20522
882.883	20549
883.01	20465
883.136	20450
883.262	20347
883.388	20240
883.514	20583
883.64	20473
883.766	20351
883.892	20259
884.018	20317
884.143	20396
884.269	20431
884.395	20240
884.52	20046
884.646	20157
884.772	20039
884.897	19959
885.023	20168
885.148	20107
885.274	20168
885.399	20195
885.524	20058
885.65	20130
885.775	20187
885.9	20050
886.025	20164
886.15	20164
886.275	20065
886.4	19993
886.525	20039
886.65	19940
886.775	19974
886.9	20142
887.025	20256
887.149	20142
887.274	19875
887.399	19871
887.523	19746
887.648	19814
887.773	19708
887.897	20016
888.021	19860
888.146	19788
888.27	19871
888.395	19902
888.519	19982
888.643	19875
888.767	19875
888.891	19738
889.015	19677
889.139	19761
889.263	19666
889.387	19769
889.511	19830
889.635	19799
889.759	19647
889.883	19632
890.006	19628
890.13	19704
890.254	19590
890.377	19616
890.501	19441
890.624	19350
890.748	19426
890.871	19381
890.995	19107
891.118	19206
891.241	19255
891.364	19168
891.488	19324
891.611	19240
891.734	19278
891.857	19179
891.98	19236
892.103	19198
892.226	19278
892.349	19217
892.471	19042
892.594	19240
892.717	19263
892.839	19084
892.962	19164
893.085	19232
893.207	19152
893.33	18996
893.452	18909
893.575	19209
893.697	19038
893.819	19316
893.941	19468
894.064	19244
894.186	19008
894.308	18947
894.43	19331
894.552	19343
894.674	19236
894.796	19053
894.918	19126
895.04	19209
895.161	19129
895.283	19145
895.405	19141
895.526	19270
895.648	19137
895.769	19129
895.891	19171
896.012	19278
896.134	19240
896.255	19266
896.376	19225
896.498	19263
896.619	19289
896.74	19244
896.861	19388
896.982	19480
897.103	19723
897.224	19559
897.345	19460
897.466	19327
897.587	19453
897.708	19449
897.828	19316
897.949	19369
898.07	19358
898.19	19346
898.311	19403
898.431	19331
898.552	19411
898.672	19483
898.792	19377
898.913	19419
899.033	19221
899.153	19175
899.273	19080
899.393	19148
899.513	19217
899.633	19145
899.753	19076
899.873	19126
899.993	19198
900.113	19091
900.232	19088
900.352	19095
900.472	18981
900.591	18802
900.711	19065
900.83	18882
900.95	18977
901.069	19057
901.189	18840
901.308	18669
901.427	18608
901.546	18456
901.665	18604
901.784	18612
901.904	18490
902.023	18327
902.141	18174
902.26	18148
902.379	18129
902.498	18034
902.617	17999
902.735	18117
902.854	18003
902.973	18064
903.091	17733
903.21	17619
903.328	17748
903.446	17608
903.565	17623
903.683	17573
903.801	17436
903.919	17433
904.038	17535
904.156	17280
904.274	17311
904.392	17353
904.51	17296
904.627	17246
904.745	17288
904.863	17398
904.981	17113
905.098	17018
905.216	16942
905.334	16885
905.451	17003
905.569	16854
905.686	17006
905.803	16961
905.921	16698
906.038	16919
906.155	16725
906.272	16717
906.389	16763
906.506	16485
906.623	16554
906.74	16618
906.857	16523
906.974	16478
907.091	16649
907.208	16584
907.324	16504
907.441	16455
907.557	16211
907.674	16196
907.79	16177
907.907	16105
908.023	16188
908.139	16200
908.256	16135
908.372	16074
908.488	16082
908.604	15930
908.72	15873
908.836	15911
908.952	15876
909.068	15968
909.184	16040
909.3	15861
909.415	15880
909.531	15975
909.647	15618
909.762	15663
909.878	15523
909.993	15709
910.108	15618
910.224	15526
910.339	15641
910.454	15408
910.57	15519
910.685	15382
910.8	15713
910.915	15644
911.03	15412
911.145	15233
911.259	15089
911.374	15127
911.489	15127
911.604	15047
911.718	14952
911.833	14990
911.947	14689
912.062	14750
912.176	14910
912.291	15036
912.405	14925
912.519	15089
912.633	15055
912.748	15013
912.862	14864
912.976	14823
913.09	14556
913.204	14743
913.318	14781
913.431	14826
913.545	14746
913.659	14937
913.772	14754
913.886	14602
914	14549
914.113	14629
914.226	14651
914.34	14724
914.453	14518
914.566	14590
914.68	14533
914.793	14450
914.906	14294
915.019	14259
915.132	14176
915.245	14183
915.358	14218
915.47	14275
915.583	14187
915.696	14161
915.809	14370
915.921	14412
916.034	14138
916.146	14183
916.259	14153
916.371	14278
916.483	14100
916.595	14043
916.708	14058
916.82	13921
916.932	13963
917.044	14027
917.156	14005
917.268	13849
917.38	13871
917.491	13849
917.603	13928
917.715	13986
917.826	13978
917.938	13837
918.049	13708
918.161	13906
918.272	13978
918.384	13993
918.495	13822
918.606	13685
918.717	13540
918.828	13723
918.939	13636
919.05	13529
919.161	13620
919.272	13407
919.383	13506
919.494	13746
919.604	13875
919.715	13643
919.826	13586
919.936	13677
920.047	13715
920.157	13609
920.267	13753
920.378	13655
920.488	13563
920.598	13791
920.708	13982
920.818	13746
920.928	13727
921.038	13826
921.148	13811
921.258	13677
921.368	13430
921.477	13464
921.587	13331
921.697	13316
921.806	13396
921.916	13308
922.025	13065
922.134	13065
922.244	12962
922.353	13145
922.462	12939
922.571	12840
922.68	12753
922.789	12722
922.898	12700
923.007	12631
923.116	12623
923.224	12658
923.333	12616
923.442	12494
923.55	12467
923.659	12460
923.767	12506
923.876	12395
923.984	12555
924.092	12418
924.201	12452
924.309	12414
924.417	12471
924.525	12403
924.633	12395
924.741	13164
924.849	12144
924.956	12315
925.064	12171
925.172	11980
925.279	12060
925.387	12083
925.494	12110
925.602	12315
925.709	12171
925.816	11984
925.924	12019
926.031	12281
926.138	12136
926.245	12182
926.352	11939
926.459	12178
926.566	12140
926.673	11908
926.779	11843
926.886	11893
926.993	11790
927.099	11676
927.206	11703
927.312	11566
927.419	11703
927.525	11684
927.631	11752
927.737	11608
927.843	11619
927.95	11490
928.056	11524
928.162	11505
928.267	11611
928.373	12140
928.479	11581
928.585	11444
928.69	11459
928.796	11524
928.901	11478
929.007	11296
929.112	11452
929.218	11402
929.323	11261
929.428	11280
929.533	11421
929.638	11189
929.743	11303
929.848	11303
929.953	11242
930.058	11121
930.163	10999
930.267	11048
930.372	11246
930.477	10972
930.581	11239
930.685	11079
930.79	10862
930.894	10968
930.998	10885
931.103	11079
931.207	10660
931.311	10542
931.415	10451
931.519	10268
931.623	10284
