Data from test_V78500241_2522.txt Node
Date: Fri Mar 25 15:27:25 CST 2022
User: usil
Spectrometer: V785-0024
Trigger mode: 0
Integration Time (sec): 4.000000E-1
Scans to average: 1
Nonlinearity correction enabled: false
Boxcar width: 0
Storing dark spectrum: false
XAxis mode: Wavelengths
Number of Pixels in Spectrum: 1024
>>>>>Begin Spectral Data<<<<<
801.071	27184
801.214	27093
801.356	26792
801.499	26670
801.641	26583
801.783	26602
801.926	26724
802.068	26644
802.211	26537
802.353	26438
802.496	26370
802.638	26138
802.78	26320
802.923	26046
803.065	26073
803.208	26122
803.35	26240
803.492	26389
803.635	26469
803.777	26450
803.919	26434
804.061	26693
804.204	26552
804.346	26358
804.488	26332
804.63	26446
804.773	26343
804.915	26332
805.057	26499
805.199	26324
805.341	26343
805.483	26560
805.626	26488
805.768	26351
805.91	26431
806.052	26541
806.194	26469
806.336	26590
806.478	26476
806.62	26446
806.762	26556
806.904	26891
807.046	27043
807.188	27020
807.33	26967
807.472	26937
807.614	26876
807.756	26823
807.898	26689
808.04	26621
808.182	26731
808.324	26785
808.465	26853
808.607	26937
808.749	27036
808.891	27161
809.033	27207
809.174	27104
809.316	27070
809.458	27138
809.6	27150
809.741	27150
809.883	27138
810.025	27435
810.166	27424
810.308	27382
810.45	27275
810.591	27252
810.733	27142
810.875	26956
811.016	26952
811.158	27001
811.299	27291
811.441	27252
811.582	27329
811.724	27192
811.865	26998
812.007	27074
812.148	26956
812.29	27066
812.431	27150
812.573	27321
812.714	27492
812.855	27496
812.997	27793
813.138	27846
813.279	27679
813.421	27641
813.562	27637
813.703	27321
813.845	27291
813.986	26940
814.127	26853
814.268	26777
814.41	26864
814.551	26762
814.692	26712
814.833	26617
814.974	26682
815.115	26864
815.256	26651
815.397	26632
815.539	26583
815.68	26484
815.821	26499
815.962	26446
816.103	26518
816.244	26339
816.385	26275
816.526	26191
816.666	26084
816.807	25951
816.948	26062
817.089	26065
817.23	26130
817.371	25974
817.512	26096
817.653	25944
817.793	25864
817.934	25864
818.075	25898
818.216	25932
818.356	25982
818.497	25978
818.638	25559
818.778	25795
818.919	25776
819.06	25761
819.2	25837
819.341	26001
819.481	25890
819.622	26157
819.762	26240
819.903	26309
820.043	26043
820.184	26005
820.324	26176
820.465	26134
820.605	26161
820.746	26050
820.886	25909
821.026	26043
821.167	25883
821.307	26107
821.447	26092
821.588	25864
821.728	25738
821.868	25529
822.008	25438
822.149	25590
822.289	25331
822.429	25244
822.569	25110
822.709	25126
822.849	24992
822.99	24985
823.13	25038
823.27	24875
823.41	24764
823.55	24521
823.69	24734
823.83	24829
823.97	24646
824.11	24589
824.25	24642
824.389	24540
824.529	24616
824.669	24585
824.809	24757
824.949	24700
825.089	24715
825.228	24582
825.368	24589
825.508	24505
825.648	24517
825.787	24540
825.927	24517
826.067	24429
826.206	24467
826.346	24532
826.485	24528
826.625	24471
826.765	24544
826.904	24505
827.044	24232
827.183	24167
827.323	24133
827.462	24296
827.601	24258
827.741	24201
827.88	24247
828.02	24015
828.159	24224
828.298	24163
828.437	24228
828.577	24178
828.716	24330
828.855	23893
828.994	23840
829.134	23813
829.273	23999
829.412	23843
829.551	23912
829.69	23870
829.829	23973
829.968	23965
830.107	23916
830.246	23958
830.385	23912
830.524	23794
830.663	23798
830.802	23676
830.941	23512
831.08	23509
831.219	23646
831.357	23741
831.496	23642
831.635	23486
831.774	23421
831.913	23444
832.051	23220
832.19	23231
832.329	23322
832.467	23178
832.606	23064
832.744	23140
832.883	23254
833.022	23132
833.16	23235
833.299	23216
833.437	23231
833.576	23284
833.714	23288
833.852	23299
833.991	23349
834.129	23402
834.267	23273
834.406	23292
834.544	23216
834.682	23261
834.821	23151
834.959	23398
835.097	23121
835.235	23334
835.373	23258
835.511	23250
835.65	23113
835.788	23064
835.926	23128
836.064	22987
836.202	23014
836.34	23189
836.478	23181
836.615	23075
836.753	23117
836.891	23170
837.029	22946
837.167	22915
837.305	23014
837.443	23170
837.58	22946
837.718	22961
837.856	23014
837.993	22881
838.131	22915
838.269	22733
838.406	22835
838.544	22748
838.681	22596
838.819	22683
838.956	22443
839.094	22428
839.231	22489
839.369	22653
839.506	22831
839.643	22599
839.781	22409
839.918	22436
840.055	22508
840.193	22363
840.33	22337
840.467	22443
840.604	22580
840.742	22615
840.879	22253
841.016	22318
841.153	22276
841.29	22580
841.427	22268
841.564	22318
841.701	22268
841.838	22409
841.975	22398
842.112	22249
842.249	22299
842.385	22253
842.522	22474
842.659	22169
842.796	22055
842.933	22150
843.069	22158
843.206	22101
843.343	22147
843.479	22086
843.616	22158
843.752	21945
843.889	21922
844.025	22070
844.162	21869
844.298	22044
844.435	21835
844.571	21907
844.708	22017
844.844	22074
844.98	22078
845.117	22036
845.253	21842
845.389	21789
845.525	21770
845.661	21747
845.798	21580
845.934	21698
846.07	21564
846.206	21610
846.342	21816
846.478	21485
846.614	21523
846.75	21370
846.886	21469
847.022	21526
847.158	21344
847.294	21458
847.429	21473
847.565	21389
847.701	21587
847.837	21070
847.972	21043
848.108	21199
848.244	21165
848.379	20948
848.515	20948
848.65	21058
848.786	21017
848.921	20918
849.057	21024
849.192	21058
849.328	20982
849.463	20956
849.598	20944
849.734	20902
849.869	20807
850.004	20712
850.14	20868
850.275	20769
850.41	20750
850.545	20613
850.68	20762
850.815	20731
850.95	20773
851.085	20834
851.22	20872
851.355	20701
851.49	20625
851.625	20708
851.76	20686
851.895	20686
852.03	20636
852.165	20762
852.299	20842
852.434	20899
852.569	20807
852.703	20830
852.838	20857
852.973	20861
853.107	20785
853.242	20678
853.376	20476
853.511	20552
853.645	20476
853.78	20644
853.914	20720
854.048	20545
854.183	20533
854.317	20636
854.451	20701
854.585	20674
854.72	20575
854.854	20697
854.988	20564
855.122	20480
855.256	20545
855.39	20514
855.524	20606
855.658	20602
855.792	20621
855.926	20613
856.06	20644
856.194	20689
856.327	20617
856.461	20461
856.595	20495
856.729	20594
856.862	20678
856.996	20579
857.13	20609
857.263	20552
857.397	20606
857.53	20537
857.664	20682
857.797	20583
857.931	20735
858.064	20594
858.197	20587
858.331	20579
858.464	20568
858.597	20530
858.731	20571
858.864	20503
858.997	20560
859.13	20602
859.263	20598
859.396	20575
859.529	20571
859.662	20552
859.795	20461
859.928	20549
860.061	20686
860.194	20743
860.327	20484
860.46	20579
860.592	20758
860.725	20682
860.858	20640
860.99	20552
861.123	20473
861.256	20560
861.388	20648
861.521	21306
861.653	20480
861.786	20374
861.918	20282
862.05	20507
862.183	20552
862.315	20442
862.447	20594
862.58	20412
862.712	20263
862.844	20294
862.976	20419
863.108	20309
863.24	20788
863.372	20282
863.504	20275
863.636	20370
863.768	20484
863.9	20286
864.032	20271
864.164	20278
864.296	20351
864.428	20370
864.559	20370
864.691	20218
864.823	20278
864.954	20343
865.086	20180
865.217	20271
865.349	20206
865.48	20126
865.612	20195
865.743	20328
865.875	20221
866.006	20157
866.137	20214
866.269	20069
866.4	20237
866.531	20134
866.662	20081
866.793	20161
866.924	20168
867.055	20149
867.186	20248
867.317	20092
867.448	20043
867.579	20191
867.71	20016
867.841	20107
867.972	20240
868.103	20054
868.233	20176
868.364	20100
868.495	20176
868.625	20381
868.756	20446
868.886	20374
869.017	20301
869.147	20556
869.278	20514
869.408	20412
869.539	20347
869.669	20594
869.799	20415
869.929	20514
870.06	20396
870.19	20663
870.32	20754
870.45	20663
870.58	20701
870.71	20826
870.84	20956
870.97	20686
871.1	20826
871.23	20921
871.36	21013
871.489	20807
871.619	21001
871.749	20914
871.879	21127
872.008	21131
872.138	21009
872.267	21020
872.397	20727
872.526	20811
872.656	20842
872.785	20826
872.915	21055
873.044	20986
873.173	21116
873.303	21043
873.432	21127
873.561	21192
873.69	21123
873.819	20952
873.948	21123
874.077	20960
874.206	20971
874.335	21028
874.464	21119
874.593	21252
874.722	21237
874.851	21344
874.979	21245
875.108	21279
875.237	21199
875.365	21226
875.494	21249
875.623	21279
875.751	21226
875.88	21230
876.008	21466
876.136	21454
876.265	21694
876.393	21797
876.521	21724
876.65	21899
876.778	21701
876.906	21660
877.034	21572
877.162	21603
877.29	21454
877.418	21622
877.546	21545
877.674	21667
877.802	21504
877.93	21595
878.058	21511
878.185	21439
878.313	21652
878.441	21629
878.568	21378
878.696	21485
878.824	21667
878.951	21739
879.079	21922
879.206	21956
879.333	21823
879.461	21580
879.588	21739
879.715	21747
879.842	21854
879.97	21720
880.097	21443
880.224	21450
880.351	21500
880.478	21458
880.605	21359
880.732	21370
880.859	21545
880.986	21481
881.112	21534
881.239	21260
881.366	21340
881.493	21066
881.619	21066
881.746	20921
881.872	20982
881.999	21070
882.125	20986
882.252	21047
882.378	20990
882.505	21100
882.631	20815
882.757	20796
882.883	20849
883.01	20712
883.136	20651
883.262	20617
883.388	20609
883.514	20655
883.64	20804
883.766	20636
883.892	20511
884.018	20583
884.143	20598
884.269	20750
884.395	20408
884.52	20415
884.646	20301
884.772	20309
884.897	20218
885.023	20415
885.148	20560
885.274	20632
885.399	20404
885.524	20271
885.65	20347
885.775	20457
885.9	20473
886.025	20636
886.15	20476
886.275	20336
886.4	20259
886.525	20355
886.65	20324
886.775	20286
886.9	20438
887.025	20495
887.149	20362
887.274	20305
887.399	20142
887.523	20199
887.648	20024
887.773	20069
887.897	20199
888.021	20058
888.146	20122
888.27	20210
888.395	20126
888.519	20172
888.643	20206
888.767	20142
888.891	20073
889.015	20027
889.139	20039
889.263	19917
889.387	20043
889.511	20187
889.635	20077
889.759	19951
889.883	19909
890.006	20035
890.13	20062
890.254	19921
890.377	20005
890.501	19807
890.624	19616
890.748	19776
890.871	19624
890.995	19468
891.118	19510
891.241	19521
891.364	19514
891.488	19723
891.611	19502
891.734	19529
891.857	19666
891.98	19567
892.103	19578
892.226	19529
892.349	19518
892.471	19343
892.594	19502
892.717	19487
892.839	19419
892.962	19373
893.085	19419
893.207	19434
893.33	19468
893.452	19312
893.575	19518
893.697	19499
893.819	19590
893.941	19765
894.064	19605
894.186	19472
894.308	19331
894.43	19548
894.552	19696
894.674	19510
894.796	19354
894.918	19381
895.04	19514
895.161	19506
895.283	19487
895.405	19392
895.526	19464
895.648	19438
895.769	19521
895.891	19499
896.012	19499
896.134	19510
896.255	19419
896.376	19518
896.498	19559
896.619	19457
896.74	19430
896.861	19502
896.982	19772
897.103	19959
897.224	19753
897.345	19693
897.466	19628
897.587	19727
897.708	19833
897.828	19799
897.949	19639
898.07	19578
898.19	19609
898.311	19871
898.431	19689
898.552	19632
898.672	19731
898.792	19795
898.913	19769
899.033	19681
899.153	19544
899.273	19453
899.393	19521
899.513	19586
899.633	19453
899.753	19438
899.873	19422
899.993	19521
900.113	19426
900.232	19373
900.352	19381
900.472	19362
900.591	19107
900.711	19255
900.83	19274
900.95	19441
901.069	19263
901.189	19168
901.308	18913
901.427	18798
901.546	18840
901.665	18749
901.784	18802
901.904	18684
902.023	18730
902.141	18456
902.26	18376
902.379	18475
902.498	18330
902.617	18369
902.735	18395
902.854	18334
902.973	18361
903.091	18015
903.21	18041
903.328	17977
903.446	17984
903.565	17882
903.683	17897
903.801	17722
903.919	17783
904.038	17767
904.156	17680
904.274	17634
904.392	17573
904.51	17558
904.627	17638
904.745	17649
904.863	17672
904.981	17433
905.098	17318
905.216	17299
905.334	17341
905.451	17356
905.569	17147
905.686	17269
905.803	17200
905.921	17090
906.038	17220
906.155	17045
906.272	16987
906.389	17033
906.506	16877
906.623	16831
906.74	16782
906.857	16717
906.974	16774
907.091	16824
907.208	16824
907.324	16797
907.441	16656
907.557	16508
907.674	16603
907.79	16424
907.907	16466
908.023	16554
908.139	16474
908.256	16440
908.372	16493
908.488	16367
908.604	16348
908.72	16291
908.836	16337
908.952	16276
909.068	16314
909.184	16428
909.3	16310
909.415	16249
909.531	16162
909.647	16036
909.762	15930
909.878	15865
909.993	15895
910.108	15968
910.224	15968
910.339	15949
910.454	15880
910.57	15778
910.685	15652
910.8	16021
910.915	15945
911.03	15800
911.145	15599
911.259	15599
911.374	15511
911.489	15488
911.604	15454
911.718	15241
911.833	15469
911.947	15336
912.062	15302
912.176	15431
912.291	15428
912.405	15408
912.519	15648
912.633	15519
912.748	15420
912.862	15313
912.976	15146
913.09	15150
913.204	15116
913.318	15241
913.431	15233
913.545	15264
913.659	15306
913.772	15074
913.886	14975
914	14994
914.113	15039
914.226	15138
914.34	15055
914.453	14849
914.566	15005
914.68	14830
914.793	14781
914.906	14670
915.019	14564
915.132	14621
915.245	14571
915.358	14640
915.47	14575
915.583	14518
915.696	14606
915.809	14689
915.921	14746
916.034	14575
916.146	14450
916.259	14514
916.371	14495
916.483	14461
916.595	14389
916.708	14427
916.82	14473
916.932	14400
917.044	14412
917.156	14374
917.268	14351
917.38	14404
917.491	14324
917.603	14271
917.715	14324
917.826	14336
917.938	14180
918.049	14103
918.161	14168
918.272	14332
918.384	14252
918.495	14229
918.606	14096
918.717	13967
918.828	14035
918.939	14035
919.05	14062
919.161	14001
919.272	13883
919.383	13970
919.494	14096
919.604	14229
919.715	13997
919.826	13955
919.936	13925
920.047	14081
920.157	14027
920.267	14218
920.378	14031
920.488	14020
920.598	14248
920.708	14339
920.818	14062
920.928	14164
921.038	14271
921.148	14313
921.258	13868
921.368	13864
921.477	13788
921.587	13742
921.697	13552
921.806	13715
921.916	13571
922.025	13419
922.134	13403
922.244	13304
922.353	13537
922.462	13297
922.571	13187
922.68	13099
922.789	13152
922.898	13107
923.007	13031
923.116	13129
923.224	12981
923.333	13012
923.442	12890
923.55	12920
923.659	12901
923.767	13015
923.876	12810
923.984	12875
924.092	12951
924.201	12810
924.309	12722
924.417	12882
924.525	12730
924.633	12700
924.741	13620
924.849	12551
924.956	12753
925.064	12528
925.172	12448
925.279	12528
925.387	12509
925.494	12490
925.602	12604
925.709	12551
925.816	12395
925.924	12475
926.031	12517
926.138	12532
926.245	12540
926.352	12403
926.459	12490
926.566	12483
926.673	12376
926.779	12201
926.886	12319
926.993	12095
927.099	12079
927.206	12003
927.312	12045
927.419	12060
927.525	12076
927.631	12182
927.737	11935
927.843	11935
927.95	11790
928.056	11866
928.162	11999
928.267	11988
928.373	12578
928.479	11908
928.585	11847
928.69	11916
928.796	11973
928.901	11851
929.007	11619
929.112	11733
929.218	11824
929.323	11737
929.428	11600
929.533	11661
929.638	11486
929.743	11570
929.848	11649
929.953	11653
930.058	11566
930.163	11261
930.267	11330
930.372	11520
930.477	11353
930.581	11638
930.685	11395
930.79	11193
930.894	11258
930.998	11269
931.103	11402
931.207	11003
931.311	10896
931.415	10797
931.519	10634
931.623	10752
