Data from test_V78500241_3353.txt Node
Date: Fri Mar 25 15:33:12 CST 2022
User: usil
Spectrometer: V785-0024
Trigger mode: 0
Integration Time (sec): 4.000000E-1
Scans to average: 1
Nonlinearity correction enabled: false
Boxcar width: 0
Storing dark spectrum: false
XAxis mode: Wavelengths
Number of Pixels in Spectrum: 1024
>>>>>Begin Spectral Data<<<<<
801.071	27302
801.214	27077
801.356	26887
801.499	26906
801.641	26575
801.783	26724
801.926	26838
802.068	26686
802.211	26655
802.353	26617
802.496	26442
802.638	26446
802.78	26328
802.923	26362
803.065	26183
803.208	26408
803.35	26408
803.492	26381
803.635	26370
803.777	26396
803.919	26427
804.061	26670
804.204	26609
804.346	26290
804.488	26362
804.63	26526
804.773	26385
804.915	26522
805.057	26758
805.199	26446
805.341	26549
805.483	26636
805.626	26613
805.768	26507
805.91	26625
806.052	26606
806.194	26396
806.336	26724
806.478	26636
806.62	26609
806.762	26792
806.904	26937
807.046	27070
807.188	27085
807.33	27070
807.472	27036
807.614	27013
807.756	26929
807.898	26921
808.04	26762
808.182	26750
808.324	26663
808.465	26819
808.607	26914
808.749	27089
808.891	27268
809.033	27260
809.174	27306
809.316	27188
809.458	27138
809.6	27093
809.741	27264
809.883	27458
810.025	27545
810.166	27355
810.308	27332
810.45	27382
810.591	27382
810.733	27317
810.875	27207
811.016	27093
811.158	27123
811.299	27237
811.441	27363
811.582	27435
811.724	27188
811.865	27108
812.007	27142
812.148	27066
812.29	27195
812.431	27264
812.573	27488
812.714	27587
812.855	27690
812.997	27743
813.138	27846
813.279	27682
813.421	27629
813.562	27610
813.703	27431
813.845	27363
813.986	27131
814.127	27013
814.268	26899
814.41	26792
814.551	26823
814.692	26921
814.833	26750
814.974	26758
815.115	26785
815.256	26724
815.397	26606
815.539	26617
815.68	26587
815.821	26514
815.962	26545
816.103	26568
816.244	26518
816.385	26362
816.526	26351
816.666	26103
816.807	26088
816.948	26119
817.089	25993
817.23	26107
817.371	26088
817.512	26062
817.653	25932
817.793	25986
817.934	26062
818.075	25871
818.216	26107
818.356	25993
818.497	25894
818.638	25803
818.778	25799
818.919	25807
819.06	25833
819.2	26111
819.341	25944
819.481	26035
819.622	26229
819.762	26412
819.903	26309
820.043	26210
820.184	26107
820.324	26218
820.465	26119
820.605	26115
820.746	26142
820.886	25993
821.026	26168
821.167	26191
821.307	26164
821.447	26077
821.588	25830
821.728	25883
821.868	25632
822.008	25639
822.149	25540
822.289	25601
822.429	25285
822.569	25152
822.709	25247
822.849	24909
822.99	25061
823.13	24882
823.27	24871
823.41	24859
823.55	24703
823.69	24859
823.83	24738
823.97	24715
824.11	24620
824.25	24589
824.389	24703
824.529	24719
824.669	24547
824.809	24726
824.949	24726
825.089	24734
825.228	24589
825.368	24395
825.508	24509
825.648	24551
825.787	24486
825.927	24768
826.067	24437
826.206	24490
826.346	24460
826.485	24574
826.625	24612
826.765	24597
826.904	24692
827.044	24372
827.183	24388
827.323	24266
827.462	24357
827.601	24289
827.741	24197
827.88	24186
828.02	24258
828.159	24186
828.298	24319
828.437	24296
828.577	24136
828.716	24304
828.855	24148
828.994	23779
829.134	23980
829.273	23916
829.412	23973
829.551	23817
829.69	24068
829.829	23958
829.968	24117
830.107	23958
830.246	23950
830.385	23912
830.524	23794
830.663	23840
830.802	23668
830.941	23417
831.08	23467
831.219	23699
831.357	23619
831.496	23889
831.635	23589
831.774	23596
831.913	23421
832.051	23322
832.19	23178
832.329	23311
832.467	23326
832.606	23166
832.744	23208
832.883	23178
833.022	23208
833.16	23193
833.299	23174
833.437	23269
833.576	23265
833.714	23231
833.852	23235
833.991	23265
834.129	23322
834.267	23421
834.406	23360
834.544	23379
834.682	23318
834.821	23440
834.959	23490
835.097	23151
835.235	23395
835.373	23299
835.511	23208
835.65	23193
835.788	23189
835.926	23060
836.064	22984
836.202	23064
836.34	23181
836.478	23307
836.615	23014
836.753	23151
836.891	23277
837.029	23193
837.167	23048
837.305	23155
837.443	23067
837.58	22904
837.718	23086
837.856	23048
837.993	22938
838.131	23052
838.269	22961
838.406	23014
838.544	22831
838.681	22672
838.819	22683
838.956	22466
839.094	22634
839.231	22470
839.369	22653
839.506	22843
839.643	22873
839.781	22546
839.918	22440
840.055	22485
840.193	22436
840.33	22599
840.467	22394
840.604	22481
840.742	22702
840.879	22363
841.016	22379
841.153	22367
841.29	22500
841.427	22402
841.564	22481
841.701	22341
841.838	22314
841.975	22280
842.112	22272
842.249	22124
842.385	22211
842.522	22367
842.659	22356
842.796	22215
842.933	22268
843.069	22196
843.206	22086
843.343	22287
843.479	22188
843.616	22238
843.752	22059
843.889	21895
844.025	22048
844.162	21934
844.298	22097
844.435	22013
844.571	21846
844.708	21975
844.844	22169
844.98	22181
845.117	21953
845.253	21937
845.389	21720
845.525	21819
845.661	21816
845.798	21736
845.934	21736
846.07	21713
846.206	21789
846.342	21838
846.478	21644
846.614	21561
846.75	21302
846.886	21557
847.022	21477
847.158	21523
847.294	21378
847.429	21545
847.565	21382
847.701	21686
847.837	21192
847.972	21169
848.108	21260
848.244	21237
848.379	21081
848.515	21085
848.65	21051
848.786	21062
848.921	21024
849.057	21116
849.192	21127
849.328	21161
849.463	21108
849.598	21032
849.734	20948
849.869	20876
850.004	20815
850.14	20834
850.275	20880
850.41	20819
850.545	20727
850.68	20788
850.815	20815
850.95	20807
851.085	21024
851.22	20990
851.355	20800
851.49	20758
851.625	20804
851.76	20777
851.895	20712
852.03	20724
852.165	20857
852.299	20883
852.434	20925
852.569	20785
852.703	20834
852.838	20788
852.973	20975
853.107	20902
853.242	20727
853.376	20594
853.511	20465
853.645	20530
853.78	20629
853.914	20701
854.048	20705
854.183	20560
854.317	20613
854.451	20807
854.585	20750
854.72	20682
854.854	20701
854.988	20488
855.122	20617
855.256	20617
855.39	20674
855.524	20678
855.658	20667
855.792	20560
855.926	20670
856.06	20667
856.194	20785
856.327	20571
856.461	20488
856.595	20457
856.729	20636
856.862	20670
856.996	20705
857.13	20648
857.263	20705
857.397	20727
857.53	20598
857.664	20705
857.797	20689
857.931	20659
858.064	20640
858.197	20735
858.331	20503
858.464	20545
858.597	20465
858.731	20705
858.864	20606
858.997	20560
859.13	20644
859.263	20754
859.396	20629
859.529	20659
859.662	20609
859.795	20549
859.928	20632
860.061	20754
860.194	20925
860.327	20731
860.46	20670
860.592	20727
860.725	20834
860.858	20800
860.99	20769
861.123	20575
861.256	20476
861.388	20632
861.521	21355
861.653	20492
861.786	20446
861.918	20541
862.05	20507
862.183	20530
862.315	20659
862.447	20602
862.58	20476
862.712	20355
862.844	20423
862.976	20480
863.108	20404
863.24	20845
863.372	20305
863.504	20309
863.636	20446
863.768	20473
863.9	20290
864.032	20119
864.164	20237
864.296	20473
864.428	20488
864.559	20370
864.691	20412
864.823	20396
864.954	20305
865.086	20431
865.217	20263
865.349	20164
865.48	20168
865.612	20347
865.743	20412
865.875	20259
866.006	20145
866.137	20256
866.269	20339
866.4	20275
866.531	20214
866.662	20157
866.793	20119
866.924	20142
867.055	20172
867.186	20244
867.317	20225
867.448	20058
867.579	20210
867.71	20027
867.841	20115
867.972	20267
868.103	20202
868.233	20225
868.364	20271
868.495	20317
868.625	20381
868.756	20488
868.886	20374
869.017	20446
869.147	20541
869.278	20492
869.408	20594
869.539	20587
869.669	20476
869.799	20526
869.929	20693
870.06	20499
870.19	20689
870.32	20781
870.45	20762
870.58	20880
870.71	20925
870.84	21009
870.97	20804
871.1	20876
871.23	21024
871.36	20941
871.489	20902
871.619	20994
871.749	20990
871.879	21036
872.008	21192
872.138	21142
872.267	20971
872.397	20918
872.526	20762
872.656	20796
872.785	20864
872.915	21188
873.044	21146
873.173	21043
873.303	21051
873.432	21127
873.561	21146
873.69	21055
873.819	21047
873.948	21131
874.077	21017
874.206	21112
874.335	20960
874.464	21188
874.593	21336
874.722	21306
874.851	21378
874.979	21237
875.108	21401
875.237	21256
875.365	21150
875.494	21279
875.623	21355
875.751	21325
875.88	21408
876.008	21462
876.136	21511
876.265	21663
876.393	21846
876.521	21759
876.65	21743
876.778	21781
876.906	21622
877.034	21595
877.162	21778
877.29	21599
877.418	21808
877.546	21591
877.674	21766
877.802	21614
877.93	21641
878.058	21603
878.185	21587
878.313	21568
878.441	21694
878.568	21496
878.696	21561
878.824	21713
878.951	21755
879.079	21701
879.206	21956
879.333	21892
879.461	21739
879.588	21709
879.715	21998
879.842	21918
879.97	21770
880.097	21564
880.224	21496
880.351	21492
880.478	21618
880.605	21469
880.732	21507
880.859	21915
880.986	21454
881.112	21622
881.239	21408
881.366	21252
881.493	21173
881.619	21074
881.746	21081
881.872	21077
881.999	21024
882.125	21009
882.252	21138
882.378	21036
882.505	21184
882.631	20990
882.757	20765
882.883	20880
883.01	20727
883.136	20762
883.262	20670
883.388	20648
883.514	20743
883.64	20777
883.766	20845
883.892	20476
884.018	20541
884.143	20735
884.269	20807
884.395	20526
884.52	20393
884.646	20499
884.772	20381
884.897	20339
885.023	20366
885.148	20571
885.274	20575
885.399	20484
885.524	20434
885.65	20412
885.775	20499
885.9	20412
886.025	20514
886.15	20450
886.275	20457
886.4	20362
886.525	20469
886.65	20431
886.775	20263
886.9	20571
887.025	20575
887.149	20377
887.274	20221
887.399	20111
887.523	20275
887.648	20153
887.773	20161
887.897	20377
888.021	20168
888.146	20176
888.27	20256
888.395	20195
888.519	20103
888.643	20191
888.767	20221
888.891	20138
889.015	20016
889.139	20119
889.263	20005
889.387	20157
889.511	20164
889.635	20145
889.759	19936
889.883	20035
890.006	20012
890.13	20088
890.254	19944
890.377	20012
890.501	19731
890.624	19731
890.748	19795
890.871	19601
890.995	19537
891.118	19434
891.241	19529
891.364	19575
891.488	19658
891.611	19495
891.734	19510
891.857	19575
891.98	19537
892.103	19685
892.226	19556
892.349	19438
892.471	19381
892.594	19457
892.717	19460
892.839	19483
892.962	19620
893.085	19502
893.207	19518
893.33	19358
893.452	19430
893.575	19540
893.697	19495
893.819	19738
893.941	19761
894.064	19597
894.186	19381
894.308	19358
894.43	19693
894.552	19651
894.674	19571
894.796	19464
894.918	19472
895.04	19506
895.161	19575
895.283	19590
895.405	19445
895.526	19518
895.648	19540
895.769	19609
895.891	19525
896.012	19643
896.134	19632
896.255	19601
896.376	19510
896.498	19537
896.619	19483
896.74	19499
896.861	19502
896.982	19871
897.103	19940
897.224	19746
897.345	19856
897.466	19677
897.587	19807
897.708	19727
897.828	19780
897.949	19746
898.07	19586
898.19	19582
898.311	19894
898.431	19685
898.552	19765
898.672	19852
898.792	19871
898.913	19674
899.033	19647
899.153	19422
899.273	19480
899.393	19510
899.513	19548
899.633	19537
899.753	19567
899.873	19388
899.993	19533
900.113	19403
900.232	19514
900.352	19388
900.472	19453
900.591	19293
900.711	19187
900.83	19118
900.95	19460
901.069	19331
901.189	19133
901.308	19004
901.427	18825
901.546	18924
901.665	18840
901.784	18852
901.904	18696
902.023	18673
902.141	18471
902.26	18365
902.379	18475
902.498	18391
902.617	18300
902.735	18521
902.854	18448
902.973	18361
903.091	18087
903.21	18041
903.328	18205
903.446	17950
903.565	17920
903.683	17908
903.801	17771
903.919	17897
904.038	17901
904.156	17745
904.274	17691
904.392	17657
904.51	17592
904.627	17615
904.745	17684
904.863	17653
904.981	17520
905.098	17406
905.216	17334
905.334	17406
905.451	17318
905.569	17208
905.686	17345
905.803	17280
905.921	17208
906.038	17216
906.155	17155
906.272	17048
906.389	17045
906.506	16793
906.623	16900
906.74	16889
906.857	16733
906.974	16637
907.091	16858
907.208	16972
907.324	16858
907.441	16748
907.557	16668
907.674	16588
907.79	16561
907.907	16565
908.023	16565
908.139	16622
908.256	16626
908.372	16436
908.488	16443
908.604	16432
908.72	16234
908.836	16306
908.952	16337
909.068	16306
909.184	16413
909.3	16379
909.415	16424
909.531	16268
909.647	16101
909.762	16055
909.878	15975
909.993	15972
910.108	16063
910.224	15934
910.339	15968
910.454	15888
910.57	15842
910.685	15831
910.8	15945
910.915	15873
911.03	15823
911.145	15694
911.259	15523
911.374	15606
911.489	15500
911.604	15534
911.718	15424
911.833	15302
911.947	15214
912.062	15302
912.176	15378
912.291	15428
912.405	15287
912.519	15500
912.633	15610
912.748	15363
912.862	15287
912.976	15211
913.09	15074
913.204	15108
913.318	15233
913.431	15351
913.545	15283
913.659	15287
913.772	15093
913.886	15047
914	14941
914.113	15085
914.226	15188
914.34	15081
914.453	14933
914.566	15043
914.68	14921
914.793	14941
914.906	14701
915.019	14625
915.132	14670
915.245	14610
915.358	14518
915.47	14644
915.583	14552
915.696	14667
915.809	14807
915.921	14773
916.034	14648
916.146	14530
916.259	14606
916.371	14594
916.483	14552
916.595	14518
916.708	14488
916.82	14469
916.932	14431
917.044	14450
917.156	14324
917.268	14370
917.38	14412
917.491	14278
917.603	14336
917.715	14301
917.826	14412
917.938	14252
918.049	14206
918.161	14263
918.272	14347
918.384	14366
918.495	14233
918.606	14115
918.717	13959
918.828	14046
918.939	14069
919.05	13967
919.161	14081
919.272	13887
919.383	13887
919.494	14073
919.604	14191
919.715	14069
919.826	13925
919.936	14054
920.047	14027
920.157	14081
920.267	14267
920.378	14111
920.488	13928
920.598	14199
920.708	14412
920.818	14153
920.928	14134
921.038	14328
921.148	14229
921.258	13909
921.368	13909
921.477	13791
921.587	13864
921.697	13677
921.806	13814
921.916	13765
922.025	13578
922.134	13453
922.244	13422
922.353	13457
922.462	13381
922.571	13247
922.68	13179
922.789	13080
922.898	13171
923.007	12973
923.116	13065
923.224	13034
923.333	12958
923.442	12859
923.55	12993
923.659	12947
923.767	12993
923.876	12863
923.984	12966
924.092	12821
924.201	12905
924.309	12764
924.417	12859
924.525	12814
924.633	12776
924.741	13674
924.849	12555
924.956	12764
925.064	12623
925.172	12448
925.279	12566
925.387	12612
925.494	12589
925.602	12654
925.709	12559
925.816	12426
925.924	12437
926.031	12544
926.138	12475
926.245	12467
926.352	12319
926.459	12528
926.566	12513
926.673	12391
926.779	12228
926.886	12315
926.993	12201
927.099	12083
927.206	12045
927.312	12011
927.419	12197
927.525	12011
927.631	12106
927.737	11996
927.843	11977
927.95	11874
928.056	11958
928.162	11893
928.267	11999
928.373	12498
928.479	11973
928.585	11813
928.69	11885
928.796	11931
928.901	11851
929.007	11707
929.112	11779
929.218	11760
929.323	11718
929.428	11611
929.533	11802
929.638	11688
929.743	11577
929.848	11668
929.953	11718
930.058	11429
930.163	11368
930.267	11360
930.372	11471
930.477	11353
930.581	11509
930.685	11444
930.79	11288
930.894	11376
930.998	11216
931.103	11330
931.207	11010
931.311	10972
931.415	10847
931.519	10546
931.623	10733
