Data from test_V78500241_1516.txt Node
Date: Fri Mar 25 15:20:24 CST 2022
User: usil
Spectrometer: V785-0024
Trigger mode: 0
Integration Time (sec): 4.000000E-1
Scans to average: 1
Nonlinearity correction enabled: false
Boxcar width: 0
Storing dark spectrum: false
XAxis mode: Wavelengths
Number of Pixels in Spectrum: 1024
>>>>>Begin Spectral Data<<<<<
801.071	28090
801.214	27960
801.356	27793
801.499	27709
801.641	27519
801.783	27450
801.926	27583
802.068	27629
802.211	27481
802.353	27534
802.496	27321
802.638	27249
802.78	27226
802.923	27230
803.065	27017
803.208	27085
803.35	27256
803.492	27389
803.635	27427
803.777	27184
803.919	27500
804.061	27762
804.204	27496
804.346	27485
804.488	27367
804.63	27401
804.773	27260
804.915	27515
805.057	27443
805.199	27424
805.341	27515
805.483	27538
805.626	27526
805.768	27568
805.91	27587
806.052	27622
806.194	27557
806.336	27698
806.478	27644
806.62	27526
806.762	27652
806.904	27793
807.046	28063
807.188	28044
807.33	27907
807.472	28070
807.614	27934
807.756	28025
807.898	27850
808.04	27819
808.182	27804
808.324	28017
808.465	27937
808.607	27941
808.749	28276
808.891	28246
809.033	28295
809.174	28348
809.316	28299
809.458	28223
809.6	28173
809.741	28268
809.883	28405
810.025	28493
810.166	28466
810.308	28428
810.45	28478
810.591	28519
810.733	28238
810.875	28242
811.016	28185
811.158	28086
811.299	28314
811.441	28462
811.582	28371
811.724	28097
811.865	28234
812.007	28295
812.148	28230
812.29	28318
812.431	28451
812.573	28421
812.714	28645
812.855	28797
812.997	28850
813.138	28927
813.279	28980
813.421	28877
813.562	28653
813.703	28535
813.845	28325
813.986	28158
814.127	28131
814.268	28021
814.41	28002
814.551	27854
814.692	27960
814.833	27838
814.974	27972
815.115	27930
815.256	27793
815.397	27736
815.539	27797
815.68	27610
815.821	27770
815.962	27682
816.103	27747
816.244	27667
816.385	27572
816.526	27424
816.666	27363
816.807	27252
816.948	27226
817.089	27184
817.23	27176
817.371	27203
817.512	27245
817.653	27146
817.793	27001
817.934	27317
818.075	27211
818.216	27245
818.356	27226
818.497	27176
818.638	26883
818.778	26975
818.919	26929
819.06	26967
819.2	27131
819.341	27184
819.481	27066
819.622	27443
819.762	27488
819.903	27359
820.043	27321
820.184	27382
820.324	27317
820.465	27310
820.605	27340
820.746	27222
820.886	27070
821.026	27135
821.167	27176
821.307	27355
821.447	27116
821.588	27096
821.728	26857
821.868	26880
822.008	26823
822.149	26667
822.289	26659
822.429	26362
822.569	26347
822.709	26332
822.849	26138
822.99	26172
823.13	26145
823.27	26073
823.41	26043
823.55	25932
823.69	26065
823.83	25887
823.97	25883
824.11	25757
824.25	25712
824.389	25757
824.529	25970
824.669	25803
824.809	25841
824.949	25887
825.089	25955
825.228	25799
825.368	25734
825.508	25559
825.648	25601
825.787	25590
825.927	25670
826.067	25571
826.206	25647
826.346	25700
826.485	25753
826.625	25582
826.765	25742
826.904	25772
827.044	25396
827.183	25426
827.323	25441
827.462	25407
827.601	25381
827.741	25381
827.88	25434
828.02	25236
828.159	25346
828.298	25445
828.437	25506
828.577	25247
828.716	25438
828.855	25331
828.994	24981
829.134	25061
829.273	25152
829.412	24973
829.551	24989
829.69	25206
829.829	25080
829.968	25198
830.107	25175
830.246	25175
830.385	25004
830.524	24939
830.663	24814
830.802	24745
830.941	24661
831.08	24741
831.219	24719
831.357	24722
831.496	24913
831.635	24650
831.774	24688
831.913	24578
832.051	24582
832.19	24502
832.329	24467
832.467	24372
832.606	24372
832.744	24289
832.883	24220
833.022	24163
833.16	24372
833.299	24410
833.437	24300
833.576	24410
833.714	24308
833.852	24445
833.991	24388
834.129	24608
834.267	24593
834.406	24410
834.544	24433
834.682	24395
834.821	24338
834.959	24551
835.097	24441
835.235	24502
835.373	24372
835.511	24243
835.65	24270
835.788	24262
835.926	24114
836.064	24072
836.202	24068
836.34	24292
836.478	24346
836.615	24266
836.753	24262
836.891	24308
837.029	24136
837.167	24224
837.305	24247
837.443	24030
837.58	24030
837.718	24087
837.856	24083
837.993	24011
838.131	23980
838.269	23977
838.406	24022
838.544	23935
838.681	23695
838.819	23649
838.956	23524
839.094	23448
839.231	23630
839.369	23794
839.506	23874
839.643	23840
839.781	23516
839.918	23490
840.055	23570
840.193	23581
840.33	23440
840.467	23474
840.604	23604
840.742	23707
840.879	23345
841.016	23254
841.153	23467
841.29	23691
841.427	23566
841.564	23414
841.701	23562
841.838	23398
841.975	23296
842.112	23334
842.249	23235
842.385	23132
842.522	23501
842.659	23254
842.796	23284
842.933	23193
843.069	23170
843.206	23143
843.343	23299
843.479	23307
843.616	23246
843.752	23003
843.889	23121
844.025	22976
844.162	22938
844.298	23052
844.435	22942
844.571	22873
844.708	23044
844.844	23048
844.98	23079
845.117	23041
845.253	22930
845.389	22774
845.525	22820
845.661	22843
845.798	22748
845.934	22797
846.07	22668
846.206	22630
846.342	22919
846.478	22641
846.614	22500
846.75	22447
846.886	22367
847.022	22588
847.158	22405
847.294	22348
847.429	22546
847.565	22424
847.701	22691
847.837	22154
847.972	22135
848.108	22226
848.244	22356
848.379	22158
848.515	22032
848.65	22090
848.786	22055
848.921	22078
849.057	22124
849.192	22188
849.328	22124
849.463	21998
849.598	21960
849.734	21865
849.869	21884
850.004	21895
850.14	21819
850.275	21751
850.41	21698
850.545	21743
850.68	21865
850.815	21785
850.95	21720
851.085	21968
851.22	21918
851.355	21743
851.49	21819
851.625	21865
851.76	21793
851.895	21804
852.03	21705
852.165	21793
852.299	21838
852.434	21857
852.569	21884
852.703	21835
852.838	21873
852.973	21911
853.107	21876
853.242	21682
853.376	21663
853.511	21500
853.645	21660
853.78	21701
853.914	21713
854.048	21701
854.183	21660
854.317	21660
854.451	21819
854.585	21663
854.72	21606
854.854	21667
854.988	21542
855.122	21610
855.256	21576
855.39	21679
855.524	21545
855.658	21663
855.792	21603
855.926	21679
856.06	21663
856.194	21679
856.327	21580
856.461	21519
856.595	21481
856.729	21549
856.862	21755
856.996	21576
857.13	21610
857.263	21743
857.397	21739
857.53	21553
857.664	21625
857.797	21739
857.931	21622
858.064	21713
858.197	21701
858.331	21656
858.464	21553
858.597	21485
858.731	21641
858.864	21667
858.997	21549
859.13	21587
859.263	21587
859.396	21690
859.529	21534
859.662	21610
859.795	21641
859.928	21629
860.061	21736
860.194	21774
860.327	21667
860.46	21530
860.592	21751
860.725	21778
860.858	21709
860.99	21652
861.123	21504
861.256	21595
861.388	21545
861.521	22246
861.653	21462
861.786	21420
861.918	21469
862.05	21458
862.183	21561
862.315	21553
862.447	21488
862.58	21549
862.712	21340
862.844	21348
862.976	21466
863.108	21481
863.24	21724
863.372	21138
863.504	21340
863.636	21363
863.768	21424
863.9	21355
864.032	21252
864.164	21321
864.296	21348
864.428	21447
864.559	21424
864.691	21447
864.823	21367
864.954	21272
865.086	21405
865.217	21214
865.349	21184
865.48	21058
865.612	21226
865.743	21424
865.875	21230
866.006	21260
866.137	21176
866.269	21256
866.4	21112
866.531	21150
866.662	21195
866.793	21047
866.924	21135
867.055	21184
867.186	21085
867.317	21104
867.448	21047
867.579	21066
867.71	21127
867.841	21108
867.972	21161
868.103	21108
868.233	21249
868.364	21146
868.495	21336
868.625	21359
868.756	21393
868.886	21294
869.017	21237
869.147	21431
869.278	21492
869.408	21469
869.539	21332
869.669	21428
869.799	21622
869.929	21507
870.06	21511
870.19	21747
870.32	21736
870.45	21835
870.58	21709
870.71	21964
870.84	21869
870.97	21736
871.1	21789
871.23	21960
871.36	22059
871.489	21816
871.619	21915
871.749	21960
871.879	22055
872.008	22116
872.138	22017
872.267	21972
872.397	21915
872.526	21816
872.656	21816
872.785	21823
872.915	21915
873.044	22093
873.173	21918
873.303	22002
873.432	22139
873.561	22173
873.69	22013
873.819	21926
873.948	22059
874.077	22006
874.206	21934
874.335	21994
874.464	22017
874.593	22177
874.722	22147
874.851	22261
874.979	22291
875.108	22196
875.237	22169
875.365	22101
875.494	22200
875.623	22249
875.751	22166
875.88	22147
876.008	22333
876.136	22455
876.265	22755
876.393	22729
876.521	22653
876.65	22675
876.778	22679
876.906	22417
877.034	22428
877.162	22584
877.29	22470
877.418	22618
877.546	22599
877.674	22527
877.802	22497
877.93	22523
878.058	22523
878.185	22432
878.313	22500
878.441	22592
878.568	22443
878.696	22466
878.824	22512
878.951	22611
879.079	22538
879.206	22752
879.333	22767
879.461	22565
879.588	22694
879.715	22713
879.842	22809
879.97	22683
880.097	22344
880.224	22276
880.351	22523
880.478	22409
880.605	22337
880.732	22337
880.859	22569
880.986	22447
881.112	22474
881.239	22154
881.366	22105
881.493	22006
881.619	21895
881.746	22082
881.872	21857
881.999	21949
882.125	21953
882.252	21964
882.378	21865
882.505	21895
882.631	21759
882.757	21717
882.883	21717
883.01	21675
883.136	21648
883.262	21568
883.388	21443
883.514	21564
883.64	21690
883.766	21530
883.892	21344
884.018	21428
884.143	21667
884.269	21587
884.395	21355
884.52	21237
884.646	21268
884.772	21249
884.897	21093
885.023	21306
885.148	21264
885.274	21523
885.399	21359
885.524	21211
885.65	21462
885.775	21287
885.9	21180
886.025	21408
886.15	21340
886.275	21355
886.4	21127
886.525	21264
886.65	21104
886.775	21138
886.9	21397
887.025	21660
887.149	21264
887.274	20998
887.399	21070
887.523	21028
887.648	21161
887.773	20998
887.897	21150
888.021	21009
888.146	20998
888.27	21009
888.395	21195
888.519	21009
888.643	21070
888.767	21169
888.891	20986
889.015	20739
889.139	20815
889.263	20853
889.387	20925
889.511	21047
889.635	20956
889.759	20731
889.883	20895
890.006	20857
890.13	20914
890.254	20849
890.377	20678
890.501	20499
890.624	20625
890.748	20670
890.871	20556
890.995	20404
891.118	20339
891.241	20446
891.364	20427
891.488	20473
891.611	20385
891.734	20499
891.857	20476
891.98	20404
892.103	20427
892.226	20442
892.349	20294
892.471	20244
892.594	20301
892.717	20362
892.839	20252
892.962	20377
893.085	20404
893.207	20248
893.33	20096
893.452	20278
893.575	20377
893.697	20191
893.819	20446
893.941	20499
894.064	20347
894.186	20256
894.308	20157
894.43	20450
894.552	20514
894.674	20389
894.796	20301
894.918	20305
895.04	20298
895.161	20423
895.283	20366
895.405	20229
895.526	20180
895.648	20221
895.769	20374
895.891	20221
896.012	20446
896.134	20286
896.255	20317
896.376	20309
896.498	20278
896.619	20431
896.74	20324
896.861	20442
896.982	20663
897.103	20800
897.224	20556
897.345	20526
897.466	20583
897.587	20514
897.708	20609
897.828	20431
897.949	20358
898.07	20278
898.19	20377
898.311	20636
898.431	20450
898.552	20503
898.672	20583
898.792	20655
898.913	20461
899.033	20423
899.153	20434
899.273	20214
899.393	20168
899.513	20263
899.633	20252
899.753	20408
899.873	20142
899.993	20218
900.113	20221
900.232	20214
900.352	20134
900.472	20031
900.591	20050
900.711	20088
900.83	20008
900.95	20172
901.069	20081
901.189	20027
901.308	19700
901.427	19594
901.546	19696
901.665	19685
901.784	19609
901.904	19430
902.023	19430
902.141	19244
902.26	19099
902.379	19202
902.498	19110
902.617	19027
902.735	19084
902.854	19126
902.973	19057
903.091	18749
903.21	18810
903.328	18791
903.446	18722
903.565	18711
903.683	18635
903.801	18490
903.919	18532
904.038	18509
904.156	18433
904.274	18330
904.392	18277
904.51	18418
904.627	18456
904.745	18384
904.863	18342
904.981	18186
905.098	17999
905.216	18030
905.334	18262
905.451	18041
905.569	17980
905.686	18007
905.803	17904
905.921	17847
906.038	17851
906.155	17790
906.272	17733
906.389	17767
906.506	17619
906.623	17684
906.74	17608
906.857	17425
906.974	17524
907.091	17566
907.208	17783
907.324	17551
907.441	17459
907.557	17261
907.674	17265
907.79	17208
907.907	17258
908.023	17292
908.139	17337
908.256	17265
908.372	17189
908.488	17200
908.604	17064
908.72	16976
908.836	16957
908.952	16991
909.068	17064
909.184	17143
909.3	17003
909.415	17037
909.531	17037
909.647	16668
909.762	16736
909.878	16649
909.993	16809
910.108	16649
910.224	16717
910.339	16679
910.454	16698
910.57	16500
910.685	16360
910.8	16660
910.915	16694
911.03	16451
911.145	16409
911.259	16379
911.374	16341
911.489	16207
911.604	16234
911.718	16101
911.833	16097
911.947	16059
912.062	15789
912.176	16029
912.291	15941
912.405	15941
912.519	16143
912.633	16215
912.748	16013
912.862	16029
912.976	15854
913.09	15705
913.204	15819
913.318	15857
913.431	15983
913.545	15903
913.659	15903
913.772	15854
913.886	15694
914	15686
914.113	15785
914.226	15884
914.34	15698
914.453	15595
914.566	15705
914.68	15542
914.793	15435
914.906	15332
915.019	15279
915.132	15214
915.245	15256
915.358	15218
915.47	15310
915.583	15211
915.696	15252
915.809	15355
915.921	15382
916.034	15188
916.146	15104
916.259	15058
916.371	15272
916.483	15218
916.595	15013
916.708	15131
916.82	15142
916.932	15138
917.044	15043
917.156	15013
917.268	14902
917.38	14819
917.491	14830
917.603	14883
917.715	15032
917.826	14925
917.938	14785
918.049	14788
918.161	14849
918.272	14960
918.384	14975
918.495	14815
918.606	14674
918.717	14610
918.828	14727
918.939	14792
919.05	14556
919.161	14617
919.272	14514
919.383	14450
919.494	14686
919.604	14811
919.715	14636
919.826	14514
919.936	14511
920.047	14655
920.157	14648
920.267	14739
920.378	14670
920.488	14560
920.598	14689
920.708	14880
920.818	14765
920.928	14689
921.038	14918
921.148	14777
921.258	14526
921.368	14541
921.477	14362
921.587	14419
921.697	14286
921.806	14317
921.916	14176
922.025	14020
922.134	13967
922.244	13830
922.353	14027
922.462	13944
922.571	13776
922.68	13597
922.789	13639
922.898	13651
923.007	13521
923.116	13597
923.224	13662
923.333	13601
923.442	13457
923.55	13502
923.659	13487
923.767	13525
923.876	13422
923.984	13400
924.092	13381
924.201	13377
924.309	13339
924.417	13358
924.525	13255
924.633	13282
924.741	14024
924.849	13076
924.956	13133
925.064	13107
925.172	13069
925.279	13110
925.387	13137
925.494	13095
925.602	13133
925.709	13069
925.816	12890
925.924	13023
926.031	12996
926.138	13004
926.245	13095
926.352	12962
926.459	13046
926.566	13004
926.673	12837
926.779	12772
926.886	12726
926.993	12688
927.099	12585
927.206	12578
927.312	12601
927.419	12570
927.525	12582
927.631	12574
927.737	12517
927.843	12422
927.95	12399
928.056	12380
928.162	12384
928.267	12521
928.373	13065
928.479	12391
928.585	12300
928.69	12388
928.796	12407
928.901	12281
929.007	12167
929.112	12273
929.218	12258
929.323	12182
929.428	12311
929.533	12292
929.638	11992
929.743	12152
929.848	12178
929.953	12129
930.058	11999
930.163	11870
930.267	11843
930.372	11965
930.477	11794
930.581	12095
930.685	11805
930.79	11775
930.894	11695
930.998	11699
931.103	11824
931.207	11478
931.311	11360
931.415	11261
931.519	11113
931.623	11056
