Data from test_V78500241_446.txt Node
Date: Fri Mar 25 15:12:57 CST 2022
User: usil
Spectrometer: V785-0024
Trigger mode: 0
Integration Time (sec): 4.000000E-1
Scans to average: 1
Nonlinearity correction enabled: false
Boxcar width: 0
Storing dark spectrum: false
XAxis mode: Wavelengths
Number of Pixels in Spectrum: 1024
>>>>>Begin Spectral Data<<<<<
801.071	27214
801.214	27188
801.356	26876
801.499	26857
801.641	26560
801.783	26682
801.926	26663
802.068	26750
802.211	26537
802.353	26598
802.496	26332
802.638	26381
802.78	26370
802.923	26389
803.065	26290
803.208	26343
803.35	26271
803.492	26537
803.635	26533
803.777	26381
803.919	26583
804.061	26765
804.204	26492
804.346	26476
804.488	26514
804.63	26438
804.773	26237
804.915	26480
805.057	26511
805.199	26511
805.341	26568
805.483	26598
805.626	26541
805.768	26427
805.91	26602
806.052	26708
806.194	26629
806.336	26682
806.478	26549
806.62	26575
806.762	26727
806.904	26910
807.046	27142
807.188	26986
807.33	26842
807.472	26994
807.614	26902
807.756	26906
807.898	26807
808.04	26796
808.182	26796
808.324	26788
808.465	26998
808.607	27051
808.749	27005
808.891	27214
809.033	27351
809.174	27203
809.316	27131
809.458	27119
809.6	27081
809.741	27085
809.883	27241
810.025	27458
810.166	27378
810.308	27294
810.45	27420
810.591	27447
810.733	27176
810.875	27150
811.016	27138
811.158	27005
811.299	27207
811.441	27382
811.582	27329
811.724	27104
811.865	27173
812.007	27047
812.148	26979
812.29	27150
812.431	27268
812.573	27416
812.714	27542
812.855	27694
812.997	27903
813.138	28010
813.279	27739
813.421	27583
813.562	27599
813.703	27458
813.845	27408
813.986	27123
814.127	26990
814.268	26785
814.41	26906
814.551	26693
814.692	26823
814.833	26777
814.974	26800
815.115	26868
815.256	26594
815.397	26655
815.539	26708
815.68	26568
815.821	26492
815.962	26731
816.103	26568
816.244	26438
816.385	26495
816.526	26324
816.666	26240
816.807	26115
816.948	26157
817.089	26286
817.23	26206
817.371	26244
817.512	26187
817.653	26115
817.793	26046
817.934	26130
818.075	26065
818.216	26020
818.356	26088
818.497	25902
818.638	25989
818.778	25719
818.919	25761
819.06	25826
819.2	25970
819.341	26256
819.481	26062
819.622	26275
819.762	26461
819.903	26355
820.043	26248
820.184	26240
820.324	26107
820.465	26240
820.605	26183
820.746	26199
820.886	26001
821.026	26214
821.167	26084
821.307	26195
821.447	26115
821.588	26020
821.728	25883
821.868	25655
822.008	25708
822.149	25597
822.289	25559
822.429	25320
822.569	25263
822.709	25232
822.849	25194
822.99	25004
823.13	24966
823.27	24951
823.41	24871
823.55	24749
823.69	24817
823.83	24996
823.97	24817
824.11	24707
824.25	24703
824.389	24551
824.529	24757
824.669	24566
824.809	24890
824.949	24681
825.089	24681
825.228	24684
825.368	24578
825.508	24467
825.648	24566
825.787	24597
825.927	24559
826.067	24490
826.206	24551
826.346	24604
826.485	24616
826.625	24555
826.765	24547
826.904	24646
827.044	24357
827.183	24528
827.323	24125
827.462	24365
827.601	24330
827.741	24182
827.88	24243
828.02	24167
828.159	24323
828.298	24327
828.437	24197
828.577	24296
828.716	24346
828.855	24285
828.994	23999
829.134	24106
829.273	24064
829.412	23980
829.551	23992
829.69	23977
829.829	24053
829.968	24129
830.107	24049
830.246	23847
830.385	23939
830.524	23965
830.663	23794
830.802	23767
830.941	23592
831.08	23619
831.219	23665
831.357	23767
831.496	23718
831.635	23554
831.774	23562
831.913	23554
832.051	23459
832.19	23444
832.329	23486
832.467	23368
832.606	23307
832.744	23349
832.883	23277
833.022	23288
833.16	23326
833.299	23307
833.437	23353
833.576	23353
833.714	23395
833.852	23345
833.991	23345
834.129	23490
834.267	23372
834.406	23417
834.544	23474
834.682	23421
834.821	23372
834.959	23524
835.097	23337
835.235	23337
835.373	23417
835.511	23303
835.65	23220
835.788	23296
835.926	22999
836.064	23094
836.202	23037
836.34	23242
836.478	23227
836.615	23143
836.753	23208
836.891	23200
837.029	23212
837.167	23136
837.305	23185
837.443	22995
837.58	23159
837.718	23166
837.856	22987
837.993	23052
838.131	23067
838.269	22934
838.406	23014
838.544	22843
838.681	22713
838.819	22672
838.956	22577
839.094	22634
839.231	22580
839.369	22660
839.506	22892
839.643	22752
839.781	22550
839.918	22493
840.055	22481
840.193	22443
840.33	22504
840.467	22565
840.604	22348
840.742	22759
840.879	22341
841.016	22371
841.153	22440
841.29	22641
841.427	22459
841.564	22481
841.701	22443
841.838	22341
841.975	22367
842.112	22303
842.249	22234
842.385	22215
842.522	22459
842.659	22306
842.796	22337
842.933	22261
843.069	22120
843.206	22109
843.343	22234
843.479	22265
843.616	22242
843.752	21918
843.889	22082
844.025	22219
844.162	21915
844.298	22070
844.435	21964
844.571	21926
844.708	22124
844.844	22097
844.98	22150
845.117	22070
845.253	21918
845.389	21960
845.525	21922
845.661	21823
845.798	21728
845.934	21865
846.07	21743
846.206	21736
846.342	21949
846.478	21759
846.614	21500
846.75	21523
846.886	21458
847.022	21466
847.158	21534
847.294	21507
847.429	21568
847.565	21431
847.701	21736
847.837	21222
847.972	21203
848.108	21317
848.244	21256
848.379	21074
848.515	21093
848.65	21154
848.786	21074
848.921	21070
849.057	21093
849.192	21017
849.328	21081
849.463	21089
849.598	20982
849.734	20979
849.869	20918
850.004	20838
850.14	20823
850.275	20967
850.41	20883
850.545	20777
850.68	20785
850.815	20982
850.95	20853
851.085	21001
851.22	20921
851.355	20967
851.49	20830
851.625	20929
851.76	20804
851.895	20701
852.03	20663
852.165	20880
852.299	20800
852.434	20941
852.569	20853
852.703	20842
852.838	20826
852.973	20967
853.107	20895
853.242	20788
853.376	20712
853.511	20571
853.645	20773
853.78	20895
853.914	20602
854.048	20648
854.183	20701
854.317	20693
854.451	21005
854.585	20636
854.72	20705
854.854	20785
854.988	20617
855.122	20655
855.256	20571
855.39	20621
855.524	20819
855.658	20762
855.792	20792
855.926	20735
856.06	20750
856.194	20796
856.327	20750
856.461	20708
856.595	20648
856.729	20651
856.862	20731
856.996	20781
857.13	20796
857.263	20834
857.397	20853
857.53	20556
857.664	20621
857.797	20686
857.931	20663
858.064	20674
858.197	20811
858.331	20785
858.464	20552
858.597	20606
858.731	20670
858.864	20632
858.997	20739
859.13	20606
859.263	20743
859.396	20659
859.529	20594
859.662	20609
859.795	20727
859.928	20549
860.061	20838
860.194	20910
860.327	20708
860.46	20750
860.592	20849
860.725	20769
860.858	20864
860.99	20613
861.123	20568
861.256	20659
861.388	20655
861.521	21386
861.653	20526
861.786	20465
861.918	20461
862.05	20476
862.183	20484
862.315	20632
862.447	20659
862.58	20598
862.712	20408
862.844	20393
862.976	20495
863.108	20514
863.24	20906
863.372	20336
863.504	20457
863.636	20438
863.768	20339
863.9	20355
864.032	20298
864.164	20393
864.296	20530
864.428	20533
864.559	20419
864.691	20476
864.823	20324
864.954	20419
865.086	20412
865.217	20309
865.349	20290
865.48	20366
865.612	20248
865.743	20370
865.875	20240
866.006	20202
866.137	20286
866.269	20221
866.4	20320
866.531	20271
866.662	20210
866.793	20237
866.924	20259
867.055	20374
867.186	20218
867.317	20115
867.448	20240
867.579	20248
867.71	20161
867.841	20134
867.972	20256
868.103	20157
868.233	20305
868.364	20244
868.495	20374
868.625	20541
868.756	20488
868.886	20370
869.017	20454
869.147	20537
869.278	20545
869.408	20412
869.539	20446
869.669	20552
869.799	20651
869.929	20583
870.06	20579
870.19	20804
870.32	20792
870.45	20686
870.58	20758
870.71	21036
870.84	20941
870.97	20849
871.1	20967
871.23	20971
871.36	20948
871.489	20838
871.619	21013
871.749	21066
871.879	21085
872.008	21226
872.138	21146
872.267	21096
872.397	20979
872.526	20929
872.656	20845
872.785	20902
872.915	21051
873.044	21169
873.173	21154
873.303	21013
873.432	21165
873.561	21096
873.69	21020
873.819	21108
873.948	21051
874.077	21074
874.206	21036
874.335	21070
874.464	21272
874.593	21450
874.722	21332
874.851	21405
874.979	21310
875.108	21420
875.237	21283
875.365	21161
875.494	21329
875.623	21256
875.751	21321
875.88	21336
876.008	21530
876.136	21492
876.265	21709
876.393	21846
876.521	21732
876.65	21846
876.778	21717
876.906	21747
877.034	21671
877.162	21701
877.29	21641
877.418	21736
877.546	21800
877.674	21564
877.802	21694
877.93	21656
878.058	21561
878.185	21492
878.313	21732
878.441	21591
878.568	21511
878.696	21671
878.824	21629
878.951	21797
879.079	21903
879.206	21960
879.333	21770
879.461	21766
879.588	21922
879.715	21812
879.842	21960
879.97	21793
880.097	21477
880.224	21530
880.351	21618
880.478	21614
880.605	21507
880.732	21500
880.859	21793
880.986	21458
881.112	21561
881.239	21264
881.366	21237
881.493	21154
881.619	21036
881.746	21096
881.872	21157
881.999	21039
882.125	20963
882.252	21169
882.378	21089
882.505	21275
882.631	20929
882.757	20769
882.883	20929
883.01	20872
883.136	20762
883.262	20674
883.388	20530
883.514	20857
883.64	20727
883.766	20655
883.892	20602
884.018	20648
884.143	20792
884.269	20857
884.395	20507
884.52	20282
884.646	20457
884.772	20431
884.897	20469
885.023	20480
885.148	20670
885.274	20716
885.399	20640
885.524	20381
885.65	20590
885.775	20336
885.9	20408
886.025	20564
886.15	20484
886.275	20389
886.4	20385
886.525	20404
886.65	20412
886.775	20457
886.9	20594
887.025	20602
887.149	20427
887.274	20176
887.399	20244
887.523	20305
887.648	20229
887.773	20138
887.897	20415
888.021	20324
888.146	20176
888.27	20343
888.395	20271
888.519	20355
888.643	20267
888.767	20290
888.891	20149
889.015	19986
889.139	19993
889.263	20115
889.387	20221
889.511	20278
889.635	20271
889.759	20024
889.883	19989
890.006	20001
890.13	20130
890.254	20031
890.377	19951
890.501	19852
890.624	19807
890.748	19909
890.871	19818
890.995	19613
891.118	19518
891.241	19658
891.364	19696
891.488	19738
891.611	19632
891.734	19670
891.857	19708
891.98	19677
892.103	19746
892.226	19620
892.349	19601
892.471	19430
892.594	19586
892.717	19635
892.839	19609
892.962	19514
893.085	19658
893.207	19556
893.33	19411
893.452	19396
893.575	19548
893.697	19563
893.819	19822
893.941	19791
894.064	19712
894.186	19457
894.308	19533
894.43	19655
894.552	19651
894.674	19708
894.796	19460
894.918	19476
895.04	19601
895.161	19674
895.283	19567
895.405	19438
895.526	19571
895.648	19521
895.769	19567
895.891	19647
896.012	19628
896.134	19677
896.255	19521
896.376	19525
896.498	19476
896.619	19635
896.74	19635
896.861	19540
896.982	19875
897.103	19925
897.224	19894
897.345	19841
897.466	19750
897.587	19909
897.708	19944
897.828	19738
897.949	19765
898.07	19681
898.19	19738
898.311	19890
898.431	19765
898.552	19765
898.672	19890
898.792	19932
898.913	19807
899.033	19723
899.153	19518
899.273	19533
899.393	19464
899.513	19616
899.633	19605
899.753	19487
899.873	19571
899.993	19518
900.113	19540
900.232	19510
900.352	19476
900.472	19476
900.591	19255
900.711	19350
900.83	19289
900.95	19506
901.069	19396
901.189	19244
901.308	19046
901.427	18932
901.546	18905
901.665	18977
901.784	18859
901.904	18859
902.023	18585
902.141	18486
902.26	18494
902.379	18544
902.498	18467
902.617	18479
902.735	18490
902.854	18395
902.973	18304
903.091	18247
903.21	18045
903.328	18178
903.446	18087
903.565	17958
903.683	18060
903.801	17878
903.919	17992
904.038	17767
904.156	17668
904.274	17897
904.392	17680
904.51	17627
904.627	17710
904.745	17764
904.863	17699
904.981	17501
905.098	17360
905.216	17364
905.334	17452
905.451	17440
905.569	17318
905.686	17425
905.803	17383
905.921	17178
906.038	17376
906.155	17181
906.272	17136
906.389	17045
906.506	16877
906.623	16961
906.74	17029
906.857	16835
906.974	16847
907.091	16911
907.208	16976
907.324	16995
907.441	16835
907.557	16740
907.674	16687
907.79	16630
907.907	16656
908.023	16508
908.139	16672
908.256	16660
908.372	16455
908.488	16451
908.604	16424
908.72	16284
908.836	16386
908.952	16337
909.068	16356
909.184	16402
909.3	16318
909.415	16325
909.531	16322
909.647	16105
909.762	16086
909.878	16105
909.993	16059
910.108	16051
910.224	15941
910.339	16071
910.454	15930
910.57	15934
910.685	15861
910.8	16128
910.915	15983
911.03	15899
911.145	15778
911.259	15705
911.374	15614
911.489	15568
911.604	15595
911.718	15469
911.833	15386
911.947	15264
912.062	15321
912.176	15473
912.291	15416
912.405	15511
912.519	15633
912.633	15542
912.748	15348
912.862	15313
912.976	15249
913.09	15230
913.204	15097
913.318	15214
913.431	15431
913.545	15268
913.659	15298
913.772	15119
913.886	15009
914	15013
914.113	15184
914.226	15237
914.34	15100
914.453	14918
914.566	15108
914.68	14971
914.793	14948
914.906	14689
915.019	14731
915.132	14556
915.245	14617
915.358	14674
915.47	14598
915.583	14716
915.696	14678
915.809	14796
915.921	14800
916.034	14545
916.146	14610
916.259	14545
916.371	14674
916.483	14590
916.595	14610
916.708	14469
916.82	14499
916.932	14461
917.044	14442
917.156	14438
917.268	14355
917.38	14328
917.491	14290
917.603	14324
917.715	14339
917.826	14320
917.938	14301
918.049	14180
918.161	14180
918.272	14461
918.384	14469
918.495	14317
918.606	14103
918.717	14088
918.828	14096
918.939	14142
919.05	14054
919.161	14100
919.272	13932
919.383	13970
919.494	14119
919.604	14278
919.715	14054
919.826	13989
919.936	14081
920.047	14168
920.157	14103
920.267	14237
920.378	14214
920.488	13951
920.598	14210
920.708	14358
920.818	14282
920.928	14218
921.038	14396
921.148	14286
921.258	14069
921.368	13947
921.477	13814
921.587	13814
921.697	13727
921.806	13784
921.916	13712
922.025	13548
922.134	13586
922.244	13396
922.353	13510
922.462	13430
922.571	13270
922.68	13202
922.789	13190
922.898	13152
923.007	13103
923.116	13095
923.224	13164
923.333	13015
923.442	12985
923.55	12916
923.659	12916
923.767	13046
923.876	12947
923.984	13004
924.092	12909
924.201	12966
924.309	12882
924.417	12913
924.525	12814
924.633	12791
924.741	13750
924.849	12612
924.956	12688
925.064	12597
925.172	12464
925.279	12494
925.387	12593
925.494	12585
925.602	12658
925.709	12578
925.816	12551
925.924	12551
926.031	12608
926.138	12566
926.245	12547
926.352	12429
926.459	12616
926.566	12551
926.673	12426
926.779	12403
926.886	12327
926.993	12216
927.099	12235
927.206	12121
927.312	12148
927.419	12262
927.525	12205
927.631	12144
927.737	12072
927.843	11942
927.95	11893
928.056	11965
928.162	11935
928.267	11984
928.373	12658
928.479	12076
928.585	11843
928.69	11950
928.796	11973
928.901	11809
929.007	11649
929.112	11836
929.218	11851
929.323	11760
929.428	11695
929.533	11798
929.638	11630
929.743	11653
929.848	11748
929.953	11691
930.058	11577
930.163	11429
930.267	11471
930.372	11566
930.477	11395
930.581	11577
930.685	11383
930.79	11242
930.894	11288
930.998	11242
931.103	11391
931.207	11071
931.311	11014
931.415	10904
931.519	10721
931.623	10733
