Data from test_V78500241_2642.txt Node
Date: Fri Mar 25 15:28:15 CST 2022
User: usil
Spectrometer: V785-0024
Trigger mode: 0
Integration Time (sec): 4.000000E-1
Scans to average: 1
Nonlinearity correction enabled: false
Boxcar width: 0
Storing dark spectrum: false
XAxis mode: Wavelengths
Number of Pixels in Spectrum: 1024
>>>>>Begin Spectral Data<<<<<
801.071	27306
801.214	27184
801.356	26975
801.499	26960
801.641	26754
801.783	26743
801.926	26720
802.068	26868
802.211	26758
802.353	26678
802.496	26427
802.638	26514
802.78	26343
802.923	26309
803.065	26122
803.208	26415
803.35	26427
803.492	26453
803.635	26678
803.777	26473
803.919	26541
804.061	26944
804.204	26659
804.346	26450
804.488	26484
804.63	26450
804.773	26427
804.915	26575
805.057	26629
805.199	26492
805.341	26552
805.483	26613
805.626	26674
805.768	26587
805.91	26621
806.052	26826
806.194	26507
806.336	26731
806.478	26659
806.62	26556
806.762	26861
806.904	26940
807.046	27070
807.188	27249
807.33	26994
807.472	27066
807.614	27062
807.756	26849
807.898	26804
808.04	26834
808.182	26906
808.324	26990
808.465	27024
808.607	27028
808.749	27195
808.891	27336
809.033	27340
809.174	27233
809.316	27302
809.458	27359
809.6	27203
809.741	27367
809.883	27321
810.025	27462
810.166	27454
810.308	27530
810.45	27447
810.591	27477
810.733	27252
810.875	27123
811.016	27188
811.158	27241
811.299	27367
811.441	27359
811.582	27302
811.724	27241
811.865	27279
812.007	27157
812.148	27268
812.29	27272
812.431	27382
812.573	27473
812.714	27549
812.855	27614
812.997	27743
813.138	28017
813.279	27869
813.421	27774
813.562	27774
813.703	27454
813.845	27447
813.986	27081
814.127	27009
814.268	26902
814.41	26880
814.551	26880
814.692	26883
814.833	26838
814.974	26765
815.115	26750
815.256	26777
815.397	26819
815.539	26781
815.68	26682
815.821	26579
815.962	26663
816.103	26682
816.244	26556
816.385	26396
816.526	26419
816.666	26282
816.807	26073
816.948	26263
817.089	26195
817.23	26290
817.371	26119
817.512	26115
817.653	26206
817.793	26043
817.934	26081
818.075	26298
818.216	26221
818.356	26149
818.497	26092
818.638	25925
818.778	25902
818.919	25951
819.06	26027
819.2	26016
819.341	26225
819.481	26176
819.622	26294
819.762	26514
819.903	26457
820.043	26278
820.184	26324
820.324	26290
820.465	26248
820.605	26218
820.746	26183
820.886	26081
821.026	26115
821.167	26237
821.307	26221
821.447	26134
821.588	26024
821.728	25868
821.868	25868
822.008	25605
822.149	25666
822.289	25605
822.429	25365
822.569	25225
822.709	25247
822.849	25080
822.99	25312
823.13	25057
823.27	24966
823.41	24916
823.55	24875
823.69	24894
823.83	24992
823.97	24798
824.11	24817
824.25	24677
824.389	24795
824.529	24738
824.669	24852
824.809	24757
824.949	24749
825.089	24894
825.228	24837
825.368	24589
825.508	24620
825.648	24521
825.787	24589
825.927	24753
826.067	24681
826.206	24650
826.346	24726
826.485	24734
826.625	24627
826.765	24631
826.904	24620
827.044	24540
827.183	24445
827.323	24342
827.462	24460
827.601	24464
827.741	24262
827.88	24380
828.02	24258
828.159	24323
828.298	24281
828.437	24429
828.577	24308
828.716	24410
828.855	24247
828.994	24045
829.134	24041
829.273	24049
829.412	23920
829.551	24015
829.69	24022
829.829	24152
829.968	24068
830.107	24045
830.246	24060
830.385	24038
830.524	23824
830.663	23847
830.802	23836
830.941	23707
831.08	23589
831.219	23714
831.357	23668
831.496	23882
831.635	23813
831.774	23543
831.913	23676
832.051	23345
832.19	23490
832.329	23547
832.467	23288
832.606	23334
832.744	23334
832.883	23318
833.022	23166
833.16	23376
833.299	23383
833.437	23288
833.576	23398
833.714	23543
833.852	23528
833.991	23463
834.129	23566
834.267	23512
834.406	23531
834.544	23497
834.682	23524
834.821	23478
834.959	23566
835.097	23379
835.235	23528
835.373	23421
835.511	23410
835.65	23189
835.788	23318
835.926	23117
836.064	22915
836.202	23128
836.34	23132
836.478	23311
836.615	23292
836.753	23216
836.891	23212
837.029	23189
837.167	23208
837.305	23223
837.443	23189
837.58	23056
837.718	23132
837.856	22976
837.993	23136
838.131	23181
838.269	22972
838.406	22965
838.544	22923
838.681	22801
838.819	22721
838.956	22622
839.094	22618
839.231	22573
839.369	22763
839.506	23048
839.643	22786
839.781	22626
839.918	22698
840.055	22649
840.193	22599
840.33	22596
840.467	22569
840.604	22588
840.742	22767
840.879	22386
841.016	22424
841.153	22447
841.29	22504
841.427	22497
841.564	22557
841.701	22542
841.838	22470
841.975	22398
842.112	22402
842.249	22363
842.385	22367
842.522	22607
842.659	22333
842.796	22265
842.933	22360
843.069	22375
843.206	22131
843.343	22329
843.479	22390
843.616	22226
843.752	22040
843.889	22154
844.025	22059
844.162	22063
844.298	22101
844.435	22055
844.571	22051
844.708	22166
844.844	22185
844.98	22128
845.117	22143
845.253	21987
845.389	21884
845.525	21937
845.661	21937
845.798	21812
845.934	21781
846.07	21667
846.206	21800
846.342	21831
846.478	21789
846.614	21656
846.75	21511
846.886	21507
847.022	21603
847.158	21534
847.294	21519
847.429	21523
847.565	21485
847.701	21728
847.837	21180
847.972	21233
848.108	21348
848.244	21351
848.379	21165
848.515	21131
848.65	21009
848.786	21161
848.921	21157
849.057	21195
849.192	21214
849.328	21077
849.463	21055
849.598	21074
849.734	21009
849.869	20982
850.004	20872
850.14	20990
850.275	20914
850.41	20773
850.545	20834
850.68	20853
850.815	20758
850.95	20895
851.085	21146
851.22	20887
851.355	20876
851.49	20842
851.625	20849
851.76	20826
851.895	20800
852.03	20842
852.165	20906
852.299	20998
852.434	20971
852.569	20944
852.703	20857
852.838	21047
852.973	21036
853.107	21005
853.242	20826
853.376	20708
853.511	20602
853.645	20609
853.78	20796
853.914	20659
854.048	20724
854.183	20731
854.317	20785
854.451	20952
854.585	20663
854.72	20724
854.854	20777
854.988	20613
855.122	20678
855.256	20522
855.39	20754
855.524	20823
855.658	20724
855.792	20823
855.926	20727
856.06	20731
856.194	20773
856.327	20594
856.461	20648
856.595	20590
856.729	20743
856.862	20929
856.996	20693
857.13	20712
857.263	20701
857.397	20750
857.53	20552
857.664	20667
857.797	20754
857.931	20788
858.064	20754
858.197	20838
858.331	20609
858.464	20545
858.597	20541
858.731	20705
858.864	20743
858.997	20590
859.13	20606
859.263	20750
859.396	20754
859.529	20769
859.662	20701
859.795	20724
859.928	20724
860.061	20842
860.194	20990
860.327	20739
860.46	20727
860.592	20796
860.725	20899
860.858	20739
860.99	20705
861.123	20552
861.256	20579
861.388	20777
861.521	21405
861.653	20533
861.786	20651
861.918	20571
862.05	20689
862.183	20552
862.315	20705
862.447	20655
862.58	20678
862.712	20533
862.844	20366
862.976	20556
863.108	20530
863.24	20956
863.372	20381
863.504	20400
863.636	20431
863.768	20351
863.9	20370
864.032	20355
864.164	20404
864.296	20518
864.428	20670
864.559	20522
864.691	20507
864.823	20533
864.954	20526
865.086	20423
865.217	20423
865.349	20305
865.48	20210
865.612	20328
865.743	20290
865.875	20343
866.006	20263
866.137	20225
866.269	20419
866.4	20271
866.531	20298
866.662	20237
866.793	20229
866.924	20214
867.055	20294
867.186	20210
867.317	20168
867.448	20172
867.579	20358
867.71	20229
867.841	20069
867.972	20324
868.103	20214
868.233	20191
868.364	20237
868.495	20286
868.625	20423
868.756	20568
868.886	20484
869.017	20549
869.147	20613
869.278	20549
869.408	20438
869.539	20571
869.669	20693
869.799	20587
869.929	20689
870.06	20613
870.19	20899
870.32	20838
870.45	20861
870.58	20864
870.71	20994
870.84	21051
870.97	20796
871.1	20880
871.23	21009
871.36	21108
871.489	20956
871.619	21116
871.749	21157
871.879	21192
872.008	21211
872.138	21135
872.267	21135
872.397	21135
872.526	20906
872.656	20941
872.785	21066
872.915	21112
873.044	21138
873.173	21135
873.303	21184
873.432	21214
873.561	21298
873.69	21093
873.819	21081
873.948	21180
874.077	21070
874.206	21142
874.335	21077
874.464	21272
874.593	21397
874.722	21332
874.851	21492
874.979	21298
875.108	21462
875.237	21310
875.365	21264
875.494	21332
875.623	21393
875.751	21325
875.88	21473
876.008	21450
876.136	21637
876.265	21876
876.393	21876
876.521	21869
876.65	21778
876.778	21770
876.906	21797
877.034	21663
877.162	21766
877.29	21557
877.418	21652
877.546	21800
877.674	21770
877.802	21660
877.93	21701
878.058	21774
878.185	21576
878.313	21679
878.441	21660
878.568	21526
878.696	21614
878.824	21812
878.951	21823
879.079	21937
879.206	22067
879.333	21812
879.461	21759
879.588	21827
879.715	21831
879.842	21926
879.97	21816
880.097	21568
880.224	21561
880.351	21557
880.478	21523
880.605	21656
880.732	21568
880.859	21854
880.986	21587
881.112	21458
881.239	21450
881.366	21344
881.493	21154
881.619	21188
881.746	21142
881.872	21104
881.999	21043
882.125	21188
882.252	20979
882.378	21093
882.505	21154
882.631	20971
882.757	20857
882.883	20887
883.01	20796
883.136	20781
883.262	20765
883.388	20716
883.514	20891
883.64	20807
883.766	20830
883.892	20606
884.018	20712
884.143	20769
884.269	20838
884.395	20594
884.52	20507
884.646	20514
884.772	20438
884.897	20389
885.023	20568
885.148	20556
885.274	20705
885.399	20632
885.524	20419
885.65	20651
885.775	20499
885.9	20503
886.025	20613
886.15	20678
886.275	20332
886.4	20355
886.525	20530
886.65	20446
886.775	20377
886.9	20537
887.025	20674
887.149	20507
887.274	20343
887.399	20278
887.523	20309
887.648	20305
887.773	20149
887.897	20256
888.021	20355
888.146	20130
888.27	20362
888.395	20317
888.519	20298
888.643	20294
888.767	20259
888.891	20225
889.015	20012
889.139	20130
889.263	19986
889.387	20119
889.511	20301
889.635	20339
889.759	20081
889.883	20050
890.006	20050
890.13	20016
890.254	20005
890.377	19932
890.501	19795
890.624	19757
890.748	19898
890.871	19658
890.995	19613
891.118	19514
891.241	19655
891.364	19670
891.488	19837
891.611	19685
891.734	19597
891.857	19765
891.98	19715
892.103	19635
892.226	19727
892.349	19651
892.471	19506
892.594	19544
892.717	19563
892.839	19506
892.962	19559
893.085	19559
893.207	19502
893.33	19403
893.452	19510
893.575	19571
893.697	19419
893.819	19628
893.941	19685
894.064	19772
894.186	19381
894.308	19434
894.43	19578
894.552	19757
894.674	19609
894.796	19453
894.918	19495
895.04	19567
895.161	19696
895.283	19616
895.405	19521
895.526	19677
895.648	19597
895.769	19487
895.891	19624
896.012	19647
896.134	19666
896.255	19639
896.376	19464
896.498	19521
896.619	19559
896.74	19438
896.861	19639
896.982	19799
897.103	19974
897.224	19814
897.345	19982
897.466	19780
897.587	19875
897.708	19940
897.828	19784
897.949	19742
898.07	19647
898.19	19708
898.311	19845
898.431	19662
898.552	19814
898.672	19925
898.792	19932
898.913	19826
899.033	19708
899.153	19616
899.273	19499
899.393	19590
899.513	19590
899.633	19643
899.753	19704
899.873	19457
899.993	19632
900.113	19464
900.232	19609
900.352	19400
900.472	19350
900.591	19293
900.711	19365
900.83	19308
900.95	19449
901.069	19365
901.189	19225
901.308	18989
901.427	18905
901.546	18977
901.665	19031
901.784	18966
901.904	18867
902.023	18650
902.141	18456
902.26	18471
902.379	18494
902.498	18395
902.617	18445
902.735	18521
902.854	18391
902.973	18441
903.091	18251
903.21	18106
903.328	18106
903.446	18091
903.565	17912
903.683	17973
903.801	17939
903.919	17901
904.038	17961
904.156	17779
904.274	17790
904.392	17802
904.51	17619
904.627	17695
904.745	17710
904.863	17665
904.981	17543
905.098	17455
905.216	17368
905.334	17334
905.451	17433
905.569	17368
905.686	17425
905.803	17429
905.921	17075
906.038	17258
906.155	17162
906.272	17185
906.389	17071
906.506	17014
906.623	16999
906.74	16923
906.857	16816
906.974	16752
907.091	17045
907.208	16953
907.324	16984
907.441	16748
907.557	16634
907.674	16736
907.79	16577
907.907	16512
908.023	16622
908.139	16687
908.256	16618
908.372	16500
908.488	16554
908.604	16436
908.72	16303
908.836	16470
908.952	16306
909.068	16379
909.184	16459
909.3	16352
909.415	16386
909.531	16268
909.647	16166
909.762	16196
909.878	16097
909.993	16105
910.108	15994
910.224	16063
910.339	16006
910.454	15941
910.57	15850
910.685	15861
910.8	16120
910.915	16048
911.03	15907
911.145	15732
911.259	15728
911.374	15728
911.489	15606
911.604	15667
911.718	15454
911.833	15496
911.947	15416
912.062	15317
912.176	15530
912.291	15469
912.405	15553
912.519	15701
912.633	15724
912.748	15412
912.862	15477
912.976	15272
913.09	15188
913.204	15195
913.318	15268
913.431	15256
913.545	15199
913.659	15401
913.772	15108
913.886	15108
914	15093
914.113	15138
914.226	15237
914.34	15146
914.453	14960
914.566	15123
914.68	14941
914.793	14872
914.906	14785
915.019	14590
915.132	14636
915.245	14750
915.358	14769
915.47	14667
915.583	14678
915.696	14708
915.809	14712
915.921	14788
916.034	14613
916.146	14587
916.259	14575
916.371	14648
916.483	14526
916.595	14480
916.708	14522
916.82	14587
916.932	14488
917.044	14419
917.156	14431
917.268	14328
917.38	14278
917.491	14290
917.603	14423
917.715	14423
917.826	14484
917.938	14332
918.049	14210
918.161	14305
918.272	14434
918.384	14442
918.495	14267
918.606	14191
918.717	14008
918.828	14195
918.939	14119
919.05	14077
919.161	14119
919.272	13982
919.383	14031
919.494	14252
919.604	14240
919.715	14153
919.826	14016
919.936	14100
920.047	14263
920.157	14050
920.267	14237
920.378	14077
920.488	13970
920.598	14336
920.708	14366
920.818	14282
920.928	14172
921.038	14362
921.148	14271
921.258	14027
921.368	13978
921.477	13780
921.587	13750
921.697	13750
921.806	13818
921.916	13685
922.025	13521
922.134	13514
922.244	13434
922.353	13590
922.462	13396
922.571	13293
922.68	13160
922.789	13152
922.898	13232
923.007	13149
923.116	13145
923.224	13103
923.333	13114
923.442	12993
923.55	12966
923.659	13015
923.767	13042
923.876	12901
923.984	12947
924.092	12916
924.201	12932
924.309	12871
924.417	12920
924.525	12783
924.633	12753
924.741	13750
924.849	12551
924.956	12684
925.064	12589
925.172	12597
925.279	12582
925.387	12639
925.494	12608
925.602	12684
925.709	12631
925.816	12471
925.924	12506
926.031	12635
926.138	12494
926.245	12608
926.352	12437
926.459	12502
926.566	12528
926.673	12433
926.779	12327
926.886	12376
926.993	12114
927.099	12136
927.206	12171
927.312	12133
927.419	12213
927.525	12136
927.631	12133
927.737	12057
927.843	12007
927.95	11889
928.056	11988
928.162	12026
928.267	12068
928.373	12547
928.479	12060
928.585	11824
928.69	11931
928.796	11927
928.901	11817
929.007	11668
929.112	11817
929.218	11786
929.323	11764
929.428	11718
929.533	11836
929.638	11596
929.743	11668
929.848	11676
929.953	11722
930.058	11547
930.163	11406
930.267	11490
930.372	11551
930.477	11398
930.581	11661
930.685	11497
930.79	11303
930.894	11421
930.998	11318
931.103	11395
931.207	10987
931.311	10984
931.415	10892
931.519	10706
931.623	10706
