Data from test_V78500241_26.txt Node
Date: Fri Mar 25 15:10:02 CST 2022
User: usil
Spectrometer: V785-0024
Trigger mode: 0
Integration Time (sec): 4.000000E-1
Scans to average: 1
Nonlinearity correction enabled: false
Boxcar width: 0
Storing dark spectrum: false
XAxis mode: Wavelengths
Number of Pixels in Spectrum: 1024
>>>>>Begin Spectral Data<<<<<
801.071	28462
801.214	28322
801.356	28177
801.499	28215
801.641	28010
801.783	27911
801.926	27953
802.068	27983
802.211	27747
802.353	27823
802.496	27698
802.638	27682
802.78	27614
802.923	27397
803.065	27466
803.208	27488
803.35	27572
803.492	27595
803.635	27583
803.777	27660
803.919	27751
804.061	27945
804.204	27660
804.346	27595
804.488	27568
804.63	27606
804.773	27523
804.915	27564
805.057	27625
805.199	27507
805.341	27732
805.483	27842
805.626	27595
805.768	27656
805.91	27682
806.052	27743
806.194	27679
806.336	27770
806.478	27770
806.62	27717
806.762	27838
806.904	27937
807.046	28021
807.188	28055
807.33	27918
807.472	28006
807.614	28017
807.756	27922
807.898	27850
808.04	27835
808.182	27831
808.324	27778
808.465	27667
808.607	27991
808.749	28002
808.891	28105
809.033	28379
809.174	28177
809.316	28154
809.458	28002
809.6	28010
809.741	28185
809.883	28124
810.025	28314
810.166	28504
810.308	28196
810.45	28291
810.591	28173
810.733	27983
810.875	28143
811.016	27838
811.158	27937
811.299	28013
811.441	28166
811.582	28154
811.724	28040
811.865	28006
812.007	27987
812.148	27998
812.29	28040
812.431	28200
812.573	28299
812.714	28371
812.855	28382
812.997	28481
813.138	28611
813.279	28656
813.421	28531
813.562	28489
813.703	28196
813.845	28158
813.986	27949
814.127	27793
814.268	27648
814.41	27629
814.551	27595
814.692	27713
814.833	27424
814.974	27500
815.115	27572
815.256	27401
815.397	27431
815.539	27275
815.68	27397
815.821	27245
815.962	27291
816.103	27264
816.244	27123
816.385	26998
816.526	26952
816.666	26944
816.807	26708
816.948	26754
817.089	26834
817.23	26670
817.371	26708
817.512	26720
817.653	26678
817.793	26701
817.934	26781
818.075	26823
818.216	26758
818.356	26701
818.497	26438
818.638	26362
818.778	26434
818.919	26457
819.06	26488
819.2	26377
819.341	26720
819.481	26697
819.622	26811
819.762	26880
819.903	26861
820.043	26887
820.184	26716
820.324	26705
820.465	26701
820.605	26781
820.746	26659
820.886	26400
821.026	26606
821.167	26590
821.307	26640
821.447	26571
821.588	26598
821.728	26328
821.868	26180
822.008	26195
822.149	26107
822.289	26020
822.429	25780
822.569	25712
822.709	25906
822.849	25613
822.99	25559
823.13	25483
823.27	25320
823.41	25301
823.55	25293
823.69	25388
823.83	25396
823.97	25206
824.11	25137
824.25	25004
824.389	25008
824.529	25050
824.669	25012
824.809	25110
824.949	25099
825.089	25122
825.228	25107
825.368	24863
825.508	24791
825.648	24863
825.787	24916
825.927	24924
826.067	24897
826.206	24916
826.346	24875
826.485	24958
826.625	24856
826.765	24897
826.904	24901
827.044	24608
827.183	24555
827.323	24540
827.462	24661
827.601	24418
827.741	24433
827.88	24627
828.02	24323
828.159	24426
828.298	24593
828.437	24654
828.577	24544
828.716	24585
828.855	24513
828.994	24277
829.134	24315
829.273	24197
829.412	24194
829.551	24224
829.69	24121
829.829	24125
829.968	24273
830.107	24194
830.246	24243
830.385	24247
830.524	24095
830.663	23931
830.802	23897
830.941	23714
831.08	23615
831.219	23764
831.357	23752
831.496	23939
831.635	23714
831.774	23760
831.913	23592
832.051	23463
832.19	23372
832.329	23539
832.467	23376
832.606	23235
832.744	23452
832.883	23341
833.022	23330
833.16	23379
833.299	23296
833.437	23330
833.576	23376
833.714	23356
833.852	23452
833.991	23402
834.129	23501
834.267	23448
834.406	23330
834.544	23395
834.682	23383
834.821	23402
834.959	23463
835.097	23315
835.235	23299
835.373	23303
835.511	23303
835.65	23128
835.788	23311
835.926	23041
836.064	22831
836.202	22965
836.34	23155
836.478	23220
836.615	23044
836.753	23155
836.891	23200
837.029	23143
837.167	23208
837.305	23151
837.443	23105
837.58	22980
837.718	22976
837.856	23143
837.993	23086
838.131	23041
838.269	23041
838.406	23018
838.544	22790
838.681	22706
838.819	22546
838.956	22413
839.094	22504
839.231	22424
839.369	22523
839.506	22812
839.643	22771
839.781	22413
839.918	22417
840.055	22500
840.193	22253
840.33	22242
840.467	22333
840.604	22314
840.742	22527
840.879	22158
841.016	22261
841.153	22261
841.29	22466
841.427	22265
841.564	22211
841.701	22207
841.838	22371
841.975	22162
842.112	22238
842.249	22078
842.385	21922
842.522	22223
842.659	22109
842.796	21926
842.933	22032
843.069	21846
843.206	21926
843.343	22002
843.479	21949
843.616	21937
843.752	21694
843.889	21751
844.025	21930
844.162	21686
844.298	21865
844.435	21770
844.571	21652
844.708	21709
844.844	21880
844.98	21785
845.117	21949
845.253	21603
845.389	21637
845.525	21507
845.661	21496
845.798	21458
845.934	21477
846.07	21416
846.206	21469
846.342	21408
846.478	21367
846.614	21176
846.75	21203
846.886	21154
847.022	21256
847.158	21077
847.294	21188
847.429	21313
847.565	21157
847.701	21397
847.837	20887
847.972	20800
848.108	20883
848.244	20899
848.379	20735
848.515	20727
848.65	20781
848.786	20762
848.921	20629
849.057	20826
849.192	20918
849.328	20769
849.463	20731
849.598	20708
849.734	20659
849.869	20507
850.004	20488
850.14	20514
850.275	20446
850.41	20362
850.545	20450
850.68	20393
850.815	20484
850.95	20332
851.085	20590
851.22	20522
851.355	20457
851.49	20370
851.625	20415
851.76	20317
851.895	20248
852.03	20271
852.165	20385
852.299	20415
852.434	20545
852.569	20446
852.703	20446
852.838	20454
852.973	20556
853.107	20526
853.242	20351
853.376	20214
853.511	20206
853.645	20225
853.78	20385
853.914	20286
854.048	20161
854.183	20180
854.317	20168
854.451	20358
854.585	20282
854.72	20225
854.854	20218
854.988	20199
855.122	20096
855.256	20103
855.39	20259
855.524	20434
855.658	20252
855.792	20153
855.926	20256
856.06	20278
856.194	20267
856.327	20164
856.461	20244
856.595	20180
856.729	20157
856.862	20324
856.996	20172
857.13	20259
857.263	20263
857.397	20126
857.53	20195
857.664	20107
857.797	20278
857.931	20393
858.064	20130
858.197	20202
858.331	20077
858.464	20176
858.597	20050
858.731	20142
858.864	20221
858.997	20081
859.13	20168
859.263	20191
859.396	20161
859.529	20081
859.662	20046
859.795	20103
859.928	20210
860.061	20252
860.194	20336
860.327	20062
860.46	20035
860.592	20225
860.725	20202
860.858	20259
860.99	20001
861.123	19928
861.256	20008
861.388	20153
861.521	20648
861.653	19959
861.786	19936
861.918	20005
862.05	20081
862.183	20119
862.315	20248
862.447	20225
862.58	20149
862.712	19932
862.844	19868
862.976	20001
863.108	19986
863.24	20298
863.372	19852
863.504	19875
863.636	19826
863.768	19856
863.9	19784
864.032	19849
864.164	19681
864.296	19841
864.428	19898
864.559	19959
864.691	19856
864.823	19887
864.954	19761
865.086	19837
865.217	19761
865.349	19605
865.48	19723
865.612	19776
865.743	19879
865.875	19784
866.006	19704
866.137	19693
866.269	19746
866.4	19639
866.531	19670
866.662	19586
866.793	19681
866.924	19624
867.055	19647
867.186	19651
867.317	19632
867.448	19605
867.579	19578
867.71	19468
867.841	19556
867.972	19712
868.103	19700
868.233	19643
868.364	19578
868.495	19788
868.625	19845
868.756	19913
868.886	19723
869.017	19830
869.147	19947
869.278	20016
869.408	19993
869.539	19864
869.669	19947
869.799	19997
869.929	19970
870.06	19925
870.19	20161
870.32	20153
870.45	20195
870.58	20210
870.71	20377
870.84	20332
870.97	20256
871.1	20282
871.23	20495
871.36	20503
871.489	20282
871.619	20461
871.749	20412
871.879	20575
872.008	20613
872.138	20579
872.267	20450
872.397	20389
872.526	20248
872.656	20214
872.785	20240
872.915	20514
873.044	20590
873.173	20579
873.303	20549
873.432	20488
873.561	20701
873.69	20427
873.819	20469
873.948	20590
874.077	20454
874.206	20492
874.335	20465
874.464	20644
874.593	20902
874.722	20636
874.851	20743
874.979	20735
875.108	20811
875.237	20735
875.365	20686
875.494	20758
875.623	20804
875.751	20670
875.88	20849
876.008	20727
876.136	20872
876.265	21062
876.393	21325
876.521	21252
876.65	21241
876.778	21268
876.906	21123
877.034	20998
877.162	21165
877.29	21093
877.418	21085
877.546	21013
877.674	21100
877.802	21108
877.93	21207
878.058	21028
878.185	20990
878.313	21077
878.441	21096
878.568	20899
878.696	20975
878.824	21157
878.951	21051
879.079	21237
879.206	21336
879.333	21367
879.461	21176
879.588	21260
879.715	21211
879.842	21363
879.97	21116
880.097	20990
880.224	20800
880.351	20906
880.478	20990
880.605	20838
880.732	20883
880.859	21176
880.986	20933
881.112	21001
881.239	20887
881.366	20762
881.493	20526
881.619	20484
881.746	20434
881.872	20427
881.999	20442
882.125	20408
882.252	20640
882.378	20549
882.505	20575
882.631	20450
882.757	20332
882.883	20233
883.01	20244
883.136	20244
883.262	20256
883.388	20168
883.514	20389
883.64	20393
883.766	20164
883.892	20069
884.018	20050
884.143	20195
884.269	20511
884.395	20088
884.52	19997
884.646	19955
884.772	19868
884.897	19795
885.023	19909
885.148	20145
885.274	20130
885.399	20077
885.524	19970
885.65	19875
885.775	19883
885.9	19932
886.025	19955
886.15	20001
886.275	19913
886.4	19761
886.525	19909
886.65	19807
886.775	19852
886.9	19936
887.025	20039
887.149	19818
887.274	19757
887.399	19639
887.523	19670
887.648	19696
887.773	19438
887.897	19795
888.021	19632
888.146	19552
888.27	19616
888.395	19776
888.519	19594
888.643	19738
888.767	19632
888.891	19609
889.015	19506
889.139	19468
889.263	19457
889.387	19620
889.511	19613
889.635	19533
889.759	19358
889.883	19441
890.006	19377
890.13	19540
890.254	19274
890.377	19377
890.501	19148
890.624	19240
890.748	19354
890.871	19156
890.995	18943
891.118	18897
891.241	18958
891.364	19019
891.488	19228
891.611	19061
891.734	18989
891.857	19072
891.98	19076
892.103	19129
892.226	18958
892.349	18993
892.471	18951
892.594	18973
892.717	19023
892.839	19088
892.962	18981
893.085	18996
893.207	18882
893.33	18821
893.452	18947
893.575	19042
893.697	19008
893.819	19080
893.941	19175
894.064	19179
894.186	18878
894.308	18909
894.43	19091
894.552	19187
894.674	19122
894.796	18863
894.918	18905
895.04	18825
895.161	19137
895.283	18996
895.405	18954
895.526	19095
895.648	18993
895.769	19057
895.891	19061
896.012	19103
896.134	18962
896.255	19103
896.376	19034
896.498	19038
896.619	19023
896.74	19012
896.861	19133
896.982	19411
897.103	19575
897.224	19335
897.345	19293
897.466	19308
897.587	19308
897.708	19392
897.828	19358
897.949	19118
898.07	19099
898.19	19213
898.311	19346
898.431	19091
898.552	19282
898.672	19255
898.792	19407
898.913	19183
899.033	19042
899.153	19156
899.273	18829
899.393	18943
899.513	18962
899.633	18916
899.753	18905
899.873	18920
899.993	19031
900.113	18958
900.232	18905
900.352	18920
900.472	18882
900.591	18700
900.711	18787
900.83	18734
900.95	18859
901.069	18806
901.189	18646
901.308	18547
901.427	18346
901.546	18330
901.665	18353
901.784	18292
901.904	18273
902.023	18019
902.141	17882
902.26	17935
902.379	17996
902.498	17840
902.617	17786
902.735	17908
902.854	17836
902.973	17855
903.091	17558
903.21	17471
903.328	17528
903.446	17512
903.565	17292
903.683	17337
903.801	17299
903.919	17349
904.038	17356
904.156	17098
904.274	17216
904.392	17109
904.51	17124
904.627	17143
904.745	17170
904.863	17143
904.981	16858
905.098	16793
905.216	16828
905.334	16835
905.451	16786
905.569	16729
905.686	16843
905.803	16824
905.921	16523
906.038	16656
906.155	16733
906.272	16512
906.389	16428
906.506	16329
906.623	16303
906.74	16379
906.857	16314
906.974	16230
907.091	16371
907.208	16451
907.324	16280
907.441	16257
907.557	16063
907.674	16059
907.79	15994
907.907	15911
908.023	16017
908.139	15960
908.256	15945
908.372	15831
908.488	15945
908.604	15667
908.72	15584
908.836	15656
908.952	15690
909.068	15694
909.184	15831
909.3	15701
909.415	15846
909.531	15660
909.647	15534
909.762	15405
909.878	15450
909.993	15348
910.108	15393
910.224	15340
910.339	15408
910.454	15298
910.57	15306
910.685	15142
910.8	15397
910.915	15359
911.03	15233
911.145	15123
911.259	15020
911.374	15020
911.489	14967
911.604	14899
911.718	14739
911.833	14838
911.947	14670
912.062	14644
912.176	14750
912.291	14762
912.405	14712
912.519	15051
912.633	14971
912.748	14796
912.862	14754
912.976	14492
913.09	14488
913.204	14522
913.318	14545
913.431	14746
913.545	14629
913.659	14617
913.772	14488
913.886	14461
914	14381
914.113	14507
914.226	14480
914.34	14499
914.453	14206
914.566	14457
914.68	14225
914.793	14237
914.906	14111
915.019	14050
915.132	14005
915.245	14039
915.358	14130
915.47	14092
915.583	14084
915.696	14088
915.809	14107
915.921	14084
916.034	13963
916.146	13982
916.259	13955
916.371	13978
916.483	13974
916.595	13856
916.708	13917
916.82	13906
916.932	13811
917.044	13830
917.156	13856
917.268	13742
917.38	13750
917.491	13689
917.603	13803
917.715	13906
917.826	13833
917.938	13662
918.049	13514
918.161	13677
918.272	13875
918.384	13856
918.495	13662
918.606	13533
918.717	13426
918.828	13460
918.939	13533
919.05	13411
919.161	13426
919.272	13293
919.383	13304
919.494	13491
919.604	13727
919.715	13571
919.826	13384
919.936	13438
920.047	13480
920.157	13430
920.267	13628
920.378	13495
920.488	13426
920.598	13601
920.708	13750
920.818	13544
920.928	13483
921.038	13685
921.148	13651
921.258	13377
921.368	13255
921.477	13175
921.587	13247
921.697	13164
921.806	13122
921.916	13050
922.025	12901
922.134	12905
922.244	12791
922.353	12890
922.462	12711
922.571	12639
922.68	12555
922.789	12441
922.898	12509
923.007	12475
923.116	12452
923.224	12513
923.333	12395
923.442	12315
923.55	12319
923.659	12429
923.767	12403
923.876	12334
923.984	12357
924.092	12247
924.201	12292
924.309	12243
924.417	12209
924.525	12201
924.633	12152
924.741	12947
924.849	12057
924.956	12060
925.064	11977
925.172	11920
925.279	11977
925.387	11954
925.494	11992
925.602	12095
925.709	12049
925.816	11836
925.924	11927
926.031	12068
926.138	12022
926.245	11977
926.352	11817
926.459	12019
926.566	12015
926.673	11923
926.779	11821
926.886	11703
926.993	11509
927.099	11577
927.206	11406
927.312	11478
927.419	11642
927.525	11551
927.631	11661
927.737	11490
927.843	11452
927.95	11349
928.056	11406
928.162	11478
928.267	11497
928.373	12076
928.479	11547
928.585	11296
928.69	11364
928.796	11337
928.901	11303
929.007	11136
929.112	11303
929.218	11223
929.323	11231
929.428	11147
929.533	11288
929.638	11033
929.743	11132
929.848	11113
929.953	11136
930.058	10968
930.163	10839
930.267	10835
930.372	10923
930.477	10862
930.581	11010
930.685	10953
930.79	10820
930.894	10683
930.998	10653
931.103	10812
931.207	10504
931.311	10409
931.415	10337
931.519	10150
931.623	10135
