Data from test_V78500241_1834.txt Node
Date: Fri Mar 25 15:22:37 CST 2022
User: usil
Spectrometer: V785-0024
Trigger mode: 0
Integration Time (sec): 4.000000E-1
Scans to average: 1
Nonlinearity correction enabled: false
Boxcar width: 0
Storing dark spectrum: false
XAxis mode: Wavelengths
Number of Pixels in Spectrum: 1024
>>>>>Begin Spectral Data<<<<<
801.071	27934
801.214	27709
801.356	27542
801.499	27462
801.641	27439
801.783	27230
801.926	27515
802.068	27439
802.211	27291
802.353	27184
802.496	27070
802.638	27058
802.78	26956
802.923	26921
803.065	26883
803.208	26861
803.35	27047
803.492	27074
803.635	27249
803.777	27112
803.919	27192
804.061	27462
804.204	27332
804.346	27329
804.488	27104
804.63	27226
804.773	27146
804.915	27161
805.057	27279
805.199	27245
805.341	27283
805.483	27317
805.626	27252
805.768	27211
805.91	27431
806.052	27443
806.194	27370
806.336	27485
806.478	27252
806.62	27245
806.762	27439
806.904	27675
807.046	27888
807.188	27766
807.33	27637
807.472	27827
807.614	27660
807.756	27583
807.898	27644
808.04	27682
808.182	27606
808.324	27641
808.465	27667
808.607	27770
808.749	27884
808.891	28067
809.033	28067
809.174	27949
809.316	27850
809.458	27991
809.6	27846
809.741	28059
809.883	28090
810.025	28242
810.166	28139
810.308	28238
810.45	28181
810.591	28219
810.733	27926
810.875	27960
811.016	27812
811.158	27827
811.299	27994
811.441	28036
811.582	28101
811.724	27793
811.865	27907
812.007	27922
812.148	28029
812.29	27823
812.431	28200
812.573	28196
812.714	28234
812.855	28519
812.997	28645
813.138	28618
813.279	28626
813.421	28485
813.562	28341
813.703	28303
813.845	28211
813.986	27789
814.127	27572
814.268	27629
814.41	27610
814.551	27625
814.692	27690
814.833	27564
814.974	27660
815.115	27736
815.256	27526
815.397	27412
815.539	27603
815.68	27431
815.821	27306
815.962	27351
816.103	27466
816.244	27310
816.385	27283
816.526	27116
816.666	27024
816.807	26952
816.948	26929
817.089	27070
817.23	26986
817.371	26826
817.512	26952
817.653	26861
817.793	26785
817.934	26815
818.075	26948
818.216	26895
818.356	26838
818.497	26773
818.638	26651
818.778	26781
818.919	26739
819.06	26606
819.2	26910
819.341	26838
819.481	26986
819.622	27028
819.762	27211
819.903	27211
820.043	27028
820.184	27013
820.324	27047
820.465	27108
820.605	27036
820.746	27096
820.886	26918
821.026	27104
821.167	27085
821.307	26963
821.447	26849
821.588	26956
821.728	26708
821.868	26469
822.008	26396
822.149	26328
822.289	26419
822.429	26119
822.569	26054
822.709	26077
822.849	25917
822.99	25887
823.13	25830
823.27	25837
823.41	25750
823.55	25613
823.69	25734
823.83	25651
823.97	25628
824.11	25643
824.25	25415
824.389	25369
824.529	25575
824.669	25483
824.809	25578
824.949	25628
825.089	25548
825.228	25605
825.368	25415
825.508	25434
825.648	25487
825.787	25476
825.927	25422
826.067	25426
826.206	25392
826.346	25373
826.485	25483
826.625	25381
826.765	25499
826.904	25426
827.044	25168
827.183	25126
827.323	25145
827.462	25187
827.601	25183
827.741	25069
827.88	25076
828.02	25042
828.159	25160
828.298	25263
828.437	25217
828.577	25072
828.716	25206
828.855	24977
828.994	24966
829.134	24935
829.273	24897
829.412	24833
829.551	24779
829.69	24738
829.829	24848
829.968	24970
830.107	24890
830.246	24814
830.385	24878
830.524	24711
830.663	24684
830.802	24688
830.941	24467
831.08	24490
831.219	24612
831.357	24559
831.496	24764
831.635	24521
831.774	24490
831.913	24445
832.051	24289
832.19	24140
832.329	24300
832.467	24155
832.606	24178
832.744	24140
832.883	24079
833.022	24167
833.16	24213
833.299	24289
833.437	24235
833.576	24148
833.714	24072
833.852	24235
833.991	24300
834.129	24194
834.267	24319
834.406	24388
834.544	24235
834.682	24254
834.821	24186
834.959	24460
835.097	24178
835.235	24182
835.373	24213
835.511	24201
835.65	24045
835.788	24163
835.926	23832
836.064	23851
836.202	23942
836.34	24053
836.478	24091
836.615	24049
836.753	24106
836.891	24106
837.029	23893
837.167	24072
837.305	24007
837.443	23863
837.58	23958
837.718	23961
837.856	23980
837.993	23882
838.131	23828
838.269	23840
838.406	23775
838.544	23592
838.681	23543
838.819	23551
838.956	23364
839.094	23402
839.231	23406
839.369	23490
839.506	23733
839.643	23710
839.781	23356
839.918	23280
840.055	23482
840.193	23307
840.33	23204
840.467	23368
840.604	23425
840.742	23554
840.879	23075
841.016	23136
841.153	23296
841.29	23577
841.427	23376
841.564	23341
841.701	23242
841.838	23117
841.975	23197
842.112	23090
842.249	23014
842.385	23071
842.522	23239
842.659	23006
842.796	23067
842.933	23136
843.069	23083
843.206	22987
843.343	23124
843.479	23083
843.616	23033
843.752	22847
843.889	22934
844.025	22976
844.162	22782
844.298	22987
844.435	22809
844.571	22850
844.708	22824
844.844	22942
844.98	22858
845.117	22942
845.253	22713
845.389	22656
845.525	22767
845.661	22607
845.798	22523
845.934	22641
846.07	22478
846.206	22683
846.342	22706
846.478	22592
846.614	22379
846.75	22265
846.886	22318
847.022	22474
847.158	22325
847.294	22280
847.429	22413
847.565	22299
847.701	22516
847.837	22032
847.972	22032
848.108	22139
848.244	22154
848.379	21911
848.515	21835
848.65	21994
848.786	21915
848.921	21857
849.057	21911
849.192	21907
849.328	21819
849.463	21934
849.598	21800
849.734	21770
849.869	21747
850.004	21755
850.14	21641
850.275	21633
850.41	21507
850.545	21610
850.68	21610
850.815	21618
850.95	21637
851.085	21785
851.22	21644
851.355	21644
851.49	21667
851.625	21576
851.76	21717
851.895	21492
852.03	21504
852.165	21553
852.299	21644
852.434	21797
852.569	21641
852.703	21561
852.838	21686
852.973	21793
853.107	21903
853.242	21580
853.376	21496
853.511	21412
853.645	21348
853.78	21534
853.914	21477
854.048	21416
854.183	21450
854.317	21591
854.451	21812
854.585	21515
854.72	21405
854.854	21523
854.988	21313
855.122	21500
855.256	21393
855.39	21481
855.524	21561
855.658	21526
855.792	21538
855.926	21545
856.06	21412
856.194	21500
856.327	21473
856.461	21351
856.595	21405
856.729	21454
856.862	21610
856.996	21473
857.13	21492
857.263	21576
857.397	21568
857.53	21477
857.664	21633
857.797	21504
857.931	21496
858.064	21477
858.197	21610
858.331	21488
858.464	21351
858.597	21321
858.731	21416
858.864	21557
858.997	21439
859.13	21321
859.263	21458
859.396	21504
859.529	21428
859.662	21447
859.795	21466
859.928	21454
860.061	21595
860.194	21671
860.327	21496
860.46	21504
860.592	21580
860.725	21557
860.858	21606
860.99	21553
861.123	21462
861.256	21492
861.388	21549
861.521	22253
861.653	21226
861.786	21363
861.918	21332
862.05	21363
862.183	21370
862.315	21401
862.447	21511
862.58	21412
862.712	21245
862.844	21131
862.976	21195
863.108	21173
863.24	21439
863.372	21047
863.504	21157
863.636	21112
863.768	21184
863.9	21176
864.032	21032
864.164	21161
864.296	21173
864.428	21252
864.559	21138
864.691	21279
864.823	21207
864.954	21245
865.086	21150
865.217	21112
865.349	20975
865.48	21036
865.612	21070
865.743	21260
865.875	21096
866.006	21036
866.137	20998
866.269	21058
866.4	21051
866.531	20952
866.662	21013
866.793	21070
866.924	20982
867.055	20963
867.186	20948
867.317	21001
867.448	20918
867.579	21058
867.71	20906
867.841	20941
867.972	21009
868.103	21036
868.233	21119
868.364	20975
868.495	21104
868.625	21214
868.756	21473
868.886	21161
869.017	21264
869.147	21291
869.278	21382
869.408	21275
869.539	21313
869.669	21412
869.799	21283
869.929	21294
870.06	21325
870.19	21408
870.32	21549
870.45	21549
870.58	21652
870.71	21789
870.84	21755
870.97	21595
871.1	21618
871.23	21755
871.36	21743
871.489	21694
871.619	21869
871.749	21778
871.879	21907
872.008	21949
872.138	21827
872.267	21827
872.397	21736
872.526	21675
872.656	21724
872.785	21709
872.915	21861
873.044	21831
873.173	21861
873.303	21934
873.432	21956
873.561	21953
873.69	21838
873.819	21728
873.948	21956
874.077	21850
874.206	21781
874.335	21838
874.464	22021
874.593	22070
874.722	22067
874.851	22147
874.979	21964
875.108	22135
875.237	22017
875.365	21983
875.494	22074
875.623	22234
875.751	21968
875.88	22154
876.008	22131
876.136	22287
876.265	22470
876.393	22603
876.521	22561
876.65	22592
876.778	22470
876.906	22504
877.034	22432
877.162	22371
877.29	22402
877.418	22432
877.546	22440
877.674	22333
877.802	22451
877.93	22344
878.058	22402
878.185	22306
878.313	22500
878.441	22314
878.568	22143
878.696	22303
878.824	22413
878.951	22485
879.079	22748
879.206	22744
879.333	22577
879.461	22356
879.588	22504
879.715	22607
879.842	22706
879.97	22516
880.097	22287
880.224	22162
880.351	22287
880.478	22310
880.605	22188
880.732	22299
880.859	22550
880.986	22325
881.112	22268
881.239	22177
881.366	21994
881.493	21846
881.619	21785
881.746	21831
881.872	21873
881.999	21880
882.125	21759
882.252	21785
882.378	21808
882.505	21945
882.631	21667
882.757	21625
882.883	21526
883.01	21485
883.136	21420
883.262	21405
883.388	21230
883.514	21443
883.64	21545
883.766	21283
883.892	21416
884.018	21313
884.143	21458
884.269	21576
884.395	21256
884.52	21089
884.646	21169
884.772	21161
884.897	21058
885.023	21195
885.148	21203
885.274	21332
885.399	21310
885.524	21089
885.65	21116
885.775	21192
885.9	21077
886.025	21176
886.15	21325
886.275	21104
886.4	21085
886.525	21135
886.65	21108
886.775	21096
886.9	21165
887.025	21416
887.149	21173
887.274	21013
887.399	20956
887.523	20845
887.648	20967
887.773	20880
887.897	21013
888.021	20880
888.146	20906
888.27	20838
888.395	21142
888.519	21028
888.643	20975
888.767	20914
888.891	20891
889.015	20842
889.139	20777
889.263	20712
889.387	20823
889.511	20982
889.635	20887
889.759	20667
889.883	20750
890.006	20667
890.13	20811
890.254	20552
890.377	20720
890.501	20465
890.624	20370
890.748	20571
890.871	20434
890.995	20328
891.118	20191
891.241	20248
891.364	20366
891.488	20415
891.611	20332
891.734	20130
891.857	20427
891.98	20358
892.103	20370
892.226	20252
892.349	20259
892.471	20069
892.594	20202
892.717	20206
892.839	20115
892.962	20282
893.085	20271
893.207	20183
893.33	20058
893.452	20233
893.575	20244
893.697	20103
893.819	20324
893.941	20419
894.064	20404
894.186	20168
894.308	19970
894.43	20218
894.552	20278
894.674	20259
894.796	20065
894.918	20107
895.04	20202
895.161	20351
895.283	20233
895.405	20199
895.526	20157
895.648	20214
895.769	20202
895.891	20286
896.012	20221
896.134	20252
896.255	20244
896.376	20206
896.498	20183
896.619	20343
896.74	20164
896.861	20278
896.982	20571
897.103	20606
897.224	20396
897.345	20377
897.466	20252
897.587	20377
897.708	20541
897.828	20446
897.949	20301
898.07	20229
898.19	20336
898.311	20473
898.431	20396
898.552	20393
898.672	20438
898.792	20389
898.913	20305
899.033	20282
899.153	20210
899.273	20008
899.393	20145
899.513	20130
899.633	20103
899.753	20195
899.873	20012
899.993	20096
900.113	20069
900.232	20244
900.352	20043
900.472	20001
900.591	19860
900.711	19978
900.83	19890
900.95	20065
901.069	19974
901.189	19769
901.308	19544
901.427	19487
901.546	19518
901.665	19495
901.784	19575
901.904	19453
902.023	19179
902.141	19072
902.26	19004
902.379	19031
902.498	19019
902.617	18932
902.735	19080
902.854	18943
902.973	18973
903.091	18700
903.21	18684
903.328	18681
903.446	18574
903.565	18486
903.683	18540
903.801	18399
903.919	18536
904.038	18494
904.156	18334
904.274	18407
904.392	18308
904.51	18182
904.627	18292
904.745	18201
904.863	18300
904.981	17923
905.098	17912
905.216	17920
905.334	18064
905.451	17961
905.569	17939
905.686	18034
905.803	17901
905.921	17745
906.038	17855
906.155	17748
906.272	17737
906.389	17573
906.506	17368
906.623	17554
906.74	17440
906.857	17402
906.974	17334
907.091	17524
907.208	17619
907.324	17490
907.441	17303
907.557	17200
907.674	17117
907.79	17231
907.907	17178
908.023	17174
908.139	17185
908.256	17064
908.372	17041
908.488	17064
908.604	16938
908.72	16900
908.836	16995
908.952	16858
909.068	16877
909.184	16953
909.3	16839
909.415	16949
909.531	17006
909.647	16744
909.762	16565
909.878	16588
909.993	16599
910.108	16580
910.224	16599
910.339	16550
910.454	16432
910.57	16413
910.685	16287
910.8	16607
910.915	16569
911.03	16417
911.145	16219
911.259	16207
911.374	16200
911.489	16173
911.604	16109
911.718	15972
911.833	15926
911.947	15884
912.062	15785
912.176	15903
912.291	15922
912.405	15846
912.519	16166
912.633	16105
912.748	15975
912.862	15884
912.976	15854
913.09	15625
913.204	15663
913.318	15739
913.431	15895
913.545	15778
913.659	15793
913.772	15804
913.886	15519
914	15584
914.113	15595
914.226	15584
914.34	15622
914.453	15534
914.566	15599
914.68	15507
914.793	15325
914.906	15249
915.019	15154
915.132	15055
915.245	15108
915.358	15188
915.47	15154
915.583	15188
915.696	15249
915.809	15351
915.921	15230
916.034	15085
916.146	15020
916.259	15116
916.371	15154
916.483	15005
916.595	14906
916.708	14994
916.82	14956
916.932	14982
917.044	14963
917.156	14948
917.268	14838
917.38	14864
917.491	14883
917.603	14785
917.715	14902
917.826	14941
917.938	14674
918.049	14651
918.161	14731
918.272	14826
918.384	14876
918.495	14769
918.606	14613
918.717	14499
918.828	14560
918.939	14530
919.05	14442
919.161	14495
919.272	14320
919.383	14461
919.494	14598
919.604	14796
919.715	14537
919.826	14427
919.936	14473
920.047	14705
920.157	14522
920.267	14686
920.378	14564
920.488	14507
920.598	14788
920.708	14769
920.818	14689
920.928	14552
921.038	14838
921.148	14739
921.258	14415
921.368	14431
921.477	14298
921.587	14221
921.697	14218
921.806	14225
921.916	14111
922.025	13963
922.134	13879
922.244	13879
922.353	13902
922.462	13788
922.571	13746
922.68	13693
922.789	13537
922.898	13510
923.007	13518
923.116	13537
923.224	13643
923.333	13495
923.442	13411
923.55	13369
923.659	13506
923.767	13502
923.876	13312
923.984	13537
924.092	13236
924.201	13316
924.309	13263
924.417	13217
924.525	13179
924.633	13228
924.741	14210
924.849	13069
924.956	13141
925.064	13034
925.172	12973
925.279	12947
925.387	13053
925.494	12901
925.602	13122
925.709	13019
925.816	12825
925.924	13012
926.031	12966
926.138	12901
926.245	12939
926.352	12840
926.459	12916
926.566	12943
926.673	12817
926.779	12779
926.886	12692
926.993	12547
927.099	12551
927.206	12532
927.312	12407
927.419	12540
927.525	12540
927.631	12551
927.737	12384
927.843	12479
927.95	12285
928.056	12353
928.162	12342
928.267	12460
928.373	12966
928.479	12445
928.585	12201
928.69	12315
928.796	12357
928.901	12182
929.007	12125
929.112	12136
929.218	12239
929.323	12140
929.428	11996
929.533	12205
929.638	12015
929.743	12091
929.848	12049
929.953	12068
930.058	11931
930.163	11859
930.267	11745
930.372	11954
930.477	11729
930.581	11901
930.685	11775
930.79	11627
930.894	11627
930.998	11581
931.103	11729
931.207	11334
931.311	11307
931.415	11197
931.519	10976
931.623	11003
