Data from test_V78500241_1111.txt Node
Date: Fri Mar 25 15:17:35 CST 2022
User: usil
Spectrometer: V785-0024
Trigger mode: 0
Integration Time (sec): 4.000000E-1
Scans to average: 1
Nonlinearity correction enabled: false
Boxcar width: 0
Storing dark spectrum: false
XAxis mode: Wavelengths
Number of Pixels in Spectrum: 1024
>>>>>Begin Spectral Data<<<<<
801.071	28322
801.214	28067
801.356	28029
801.499	27922
801.641	27709
801.783	27789
801.926	27785
802.068	27652
802.211	27682
802.353	27637
802.496	27625
802.638	27671
802.78	27408
802.923	27477
803.065	27485
803.208	27378
803.35	27454
803.492	27553
803.635	27519
803.777	27610
803.919	27530
804.061	28010
804.204	27804
804.346	27568
804.488	27500
804.63	27614
804.773	27545
804.915	27770
805.057	27717
805.199	27690
805.341	27785
805.483	27876
805.626	27838
805.768	27747
805.91	27698
806.052	27739
806.194	27561
806.336	27972
806.478	27911
806.62	27876
806.762	27994
806.904	27953
807.046	28253
807.188	28223
807.33	28173
807.472	28234
807.614	28120
807.756	28166
807.898	28124
808.04	28048
808.182	27907
808.324	28048
808.465	28204
808.607	28284
808.749	28478
808.891	28573
809.033	28675
809.174	28470
809.316	28352
809.458	28466
809.6	28523
809.741	28687
809.883	28637
810.025	28873
810.166	28649
810.308	28774
810.45	28713
810.591	28748
810.733	28535
810.875	28363
811.016	28417
811.158	28375
811.299	28580
811.441	28596
811.582	28653
811.724	28561
811.865	28401
812.007	28413
812.148	28618
812.29	28531
812.431	28710
812.573	28721
812.714	28957
812.855	28915
812.997	29155
813.138	29421
813.279	29064
813.421	29010
813.562	29056
813.703	28820
813.845	28797
813.986	28398
814.127	28314
814.268	28204
814.41	28150
814.551	28211
814.692	28272
814.833	28074
814.974	28177
815.115	28131
815.256	28078
815.397	28204
815.539	28090
815.68	27998
815.821	27857
815.962	27854
816.103	28063
816.244	27873
816.385	27728
816.526	27610
816.666	27561
816.807	27545
816.948	27519
817.089	27511
817.23	27576
817.371	27462
817.512	27458
817.653	27511
817.793	27557
817.934	27572
818.075	27488
818.216	27610
818.356	27443
818.497	27336
818.638	27260
818.778	27188
818.919	27397
819.06	27298
819.2	27401
819.341	27618
819.481	27473
819.622	27633
819.762	27751
819.903	27732
820.043	27759
820.184	27587
820.324	27625
820.465	27785
820.605	27648
820.746	27614
820.886	27526
821.026	27599
821.167	27439
821.307	27720
821.447	27515
821.588	27294
821.728	27359
821.868	27093
822.008	27058
822.149	27005
822.289	26963
822.429	26769
822.569	26636
822.709	26568
822.849	26526
822.99	26590
823.13	26427
823.27	26575
823.41	26313
823.55	26408
823.69	26328
823.83	26381
823.97	26278
824.11	26062
824.25	26119
824.389	26180
824.529	26164
824.669	26183
824.809	26313
824.949	26259
825.089	26240
825.228	26317
825.368	26092
825.508	26081
825.648	26111
825.787	26126
825.927	26183
826.067	26043
826.206	25997
826.346	26119
826.485	26142
826.625	26111
826.765	26221
826.904	26077
827.044	25887
827.183	25883
827.323	25715
827.462	25830
827.601	26001
827.741	25769
827.88	25909
828.02	25795
828.159	25738
828.298	25761
828.437	25864
828.577	25693
828.716	25807
828.855	25708
828.994	25571
829.134	25609
829.273	25563
829.412	25582
829.551	25514
829.69	25449
829.829	25449
829.968	25681
830.107	25594
830.246	25540
830.385	25479
830.524	25499
830.663	25400
830.802	25175
830.941	25057
831.08	25099
831.219	25232
831.357	25293
831.496	25438
831.635	25137
831.774	24973
831.913	24992
832.051	24943
832.19	24905
832.329	24924
832.467	24779
832.606	24707
832.744	24734
832.883	24776
833.022	24840
833.16	24909
833.299	24916
833.437	24700
833.576	24905
833.714	24947
833.852	24935
833.991	24913
834.129	25038
834.267	24916
834.406	24764
834.544	24977
834.682	24852
834.821	24875
834.959	25133
835.097	24939
835.235	25126
835.373	24741
835.511	24833
835.65	24772
835.788	24650
835.926	24593
836.064	24612
836.202	24475
836.34	24696
836.478	24787
836.615	24753
836.753	24711
836.891	24806
837.029	24935
837.167	24597
837.305	24730
837.443	24616
837.58	24627
837.718	24760
837.856	24582
837.993	24612
838.131	24623
838.269	24410
838.406	24623
838.544	24239
838.681	24129
838.819	24228
838.956	24022
839.094	23950
839.231	24152
839.369	24323
839.506	24319
839.643	24273
839.781	23954
839.918	23988
840.055	24095
840.193	24015
840.33	23927
840.467	23973
840.604	24068
840.742	24228
840.879	23767
841.016	23786
841.153	23859
841.29	24057
841.427	23756
841.564	23889
841.701	23969
841.838	23908
841.975	23878
842.112	23748
842.249	23794
842.385	23714
842.522	23882
842.659	23707
842.796	23737
842.933	23691
843.069	23638
843.206	23581
843.343	23961
843.479	23710
843.616	23657
843.752	23573
843.889	23501
844.025	23672
844.162	23539
844.298	23589
844.435	23520
844.571	23455
844.708	23414
844.844	23600
844.98	23592
845.117	23623
845.253	23471
845.389	23391
845.525	23372
845.661	23299
845.798	23155
845.934	23277
846.07	23235
846.206	23292
846.342	23204
846.478	23094
846.614	22900
846.75	22908
846.886	22774
847.022	22953
847.158	22904
847.294	22889
847.429	22881
847.565	23003
847.701	23151
847.837	22706
847.972	22596
848.108	22702
848.244	22748
848.379	22546
848.515	22535
848.65	22470
848.786	22527
848.921	22516
849.057	22607
849.192	22668
849.328	22481
849.463	22535
849.598	22592
849.734	22402
849.869	22303
850.004	22230
850.14	22352
850.275	22295
850.41	22284
850.545	22150
850.68	22188
850.815	22166
850.95	22196
851.085	22478
851.22	22417
851.355	22428
851.49	22234
851.625	22322
851.76	22261
851.895	22185
852.03	22219
852.165	22261
852.299	22379
852.434	22360
852.569	22322
852.703	22329
852.838	22192
852.973	22367
853.107	22398
853.242	22166
853.376	22116
853.511	22048
853.645	22116
853.78	22246
853.914	22147
854.048	22059
854.183	22010
854.317	22120
854.451	22234
854.585	22181
854.72	22124
854.854	22162
854.988	22067
855.122	22093
855.256	22013
855.39	22090
855.524	22120
855.658	22154
855.792	22131
855.926	22185
856.06	22143
856.194	22249
856.327	22070
856.461	22006
856.595	22090
856.729	22128
856.862	22287
856.996	22226
857.13	22166
857.263	22116
857.397	22124
857.53	22040
857.664	22051
857.797	22192
857.931	22215
858.064	22154
858.197	22185
858.331	21934
858.464	21991
858.597	22082
858.731	22181
858.864	21945
858.997	22139
859.13	22097
859.263	22093
859.396	22059
859.529	22105
859.662	22002
859.795	22067
859.928	22124
860.061	22234
860.194	22299
860.327	22101
860.46	22048
860.592	22299
860.725	22284
860.858	22246
860.99	22188
861.123	21987
861.256	22013
861.388	22173
861.521	22904
861.653	21960
861.786	21903
861.918	21816
862.05	21968
862.183	22006
862.315	21941
862.447	22086
862.58	21903
862.712	21854
862.844	21778
862.976	21857
863.108	21953
863.24	22211
863.372	21842
863.504	21797
863.636	21816
863.768	21819
863.9	21816
864.032	21675
864.164	21755
864.296	21827
864.428	21827
864.559	21812
864.691	21846
864.823	21907
864.954	21759
865.086	21755
865.217	21682
865.349	21629
865.48	21701
865.612	21614
865.743	21895
865.875	21766
866.006	21652
866.137	21728
866.269	21724
866.4	21644
866.531	21755
866.662	21564
866.793	21515
866.924	21477
867.055	21618
867.186	21667
867.317	21618
867.448	21568
867.579	21580
867.71	21515
867.841	21507
867.972	21618
868.103	21542
868.233	21603
868.364	21629
868.495	21690
868.625	21789
868.756	21915
868.886	21793
869.017	21888
869.147	21964
869.278	21945
869.408	21895
869.539	21800
869.669	21880
869.799	21915
869.929	21987
870.06	22048
870.19	22169
870.32	22124
870.45	22135
870.58	22246
870.71	22306
870.84	22295
870.97	22204
871.1	22257
871.23	22424
871.36	22348
871.489	22379
871.619	22356
871.749	22329
871.879	22561
872.008	22565
872.138	22478
872.267	22424
872.397	22344
872.526	22287
872.656	22265
872.785	22265
872.915	22421
873.044	22512
873.173	22421
873.303	22497
873.432	22554
873.561	22542
873.69	22512
873.819	22402
873.948	22512
874.077	22493
874.206	22379
874.335	22478
874.464	22649
874.593	22782
874.722	22531
874.851	22656
874.979	22706
875.108	22660
875.237	22451
875.365	22618
875.494	22687
875.623	22687
875.751	22656
875.88	22660
876.008	22778
876.136	22793
876.265	23090
876.393	23185
876.521	23117
876.65	23197
876.778	23174
876.906	23117
877.034	22919
877.162	23052
877.29	23003
877.418	23071
877.546	23029
877.674	22896
877.802	23090
877.93	22995
878.058	22904
878.185	22778
878.313	22972
878.441	22995
878.568	22847
878.696	22942
878.824	23025
878.951	23071
879.079	23250
879.206	23322
879.333	23239
879.461	23105
879.588	23140
879.715	23121
879.842	23185
879.97	23083
880.097	22778
880.224	22713
880.351	22919
880.478	22835
880.605	22843
880.732	22771
880.859	23010
880.986	22923
881.112	22790
881.239	22679
881.366	22550
881.493	22523
881.619	22447
881.746	22379
881.872	22379
881.999	22272
882.125	22303
882.252	22337
882.378	22337
882.505	22424
882.631	22329
882.757	22177
882.883	22109
883.01	22124
883.136	22013
883.262	21983
883.388	21892
883.514	22128
883.64	22074
883.766	21975
883.892	21854
884.018	21831
884.143	22048
884.269	22090
884.395	21736
884.52	21709
884.646	21701
884.772	21728
884.897	21660
885.023	21816
885.148	21804
885.274	21831
885.399	21747
885.524	21747
885.65	21667
885.775	21637
885.9	21572
886.025	21759
886.15	21743
886.275	21724
886.4	21603
886.525	21720
886.65	21637
886.775	21637
886.9	21800
887.025	21873
887.149	21614
887.274	21580
887.399	21355
887.523	21447
887.648	21477
887.773	21412
887.897	21511
888.021	21519
888.146	21382
888.27	21549
888.395	21504
888.519	21485
888.643	21526
888.767	21447
888.891	21378
889.015	21268
889.139	21306
889.263	21192
889.387	21344
889.511	21462
889.635	21408
889.759	21165
889.883	21230
890.006	21218
890.13	21420
890.254	21180
890.377	21127
890.501	21013
890.624	21146
890.748	21020
890.871	20830
890.995	20925
891.118	20762
891.241	20845
891.364	20883
891.488	20921
891.611	20754
891.734	20769
891.857	20906
891.98	20773
892.103	20811
892.226	20895
892.349	20788
892.471	20632
892.594	20674
892.717	20746
892.839	20720
892.962	20693
893.085	20769
893.207	20708
893.33	20587
893.452	20590
893.575	20781
893.697	20648
893.819	20834
893.941	21058
894.064	20876
894.186	20819
894.308	20670
894.43	20842
894.552	20785
894.674	20674
894.796	20587
894.918	20678
895.04	20712
895.161	20697
895.283	20720
895.405	20644
895.526	20693
895.648	20644
895.769	20678
895.891	20785
896.012	20693
896.134	20765
896.255	20693
896.376	20735
896.498	20697
896.619	20693
896.74	20754
896.861	20609
896.982	20956
897.103	21104
897.224	21028
897.345	20887
897.466	20792
897.587	20838
897.708	20990
897.828	20918
897.949	20857
898.07	20674
898.19	20716
898.311	20937
898.431	20746
898.552	20864
898.672	20944
898.792	20910
898.913	20868
899.033	20773
899.153	20689
899.273	20575
899.393	20530
899.513	20606
899.633	20693
899.753	20594
899.873	20587
899.993	20651
900.113	20545
900.232	20492
900.352	20427
900.472	20488
900.591	20374
900.711	20404
900.83	20309
900.95	20503
901.069	20461
901.189	20157
901.308	20115
901.427	19875
901.546	19940
901.665	20031
901.784	20069
901.904	19826
902.023	19795
902.141	19510
902.26	19441
902.379	19476
902.498	19464
902.617	19529
902.735	19552
902.854	19434
902.973	19327
903.091	19228
903.21	19038
903.328	19126
903.446	19053
903.565	18935
903.683	19042
903.801	18924
903.919	18958
904.038	18875
904.156	18821
904.274	18677
904.392	18700
904.51	18749
904.627	18673
904.745	18821
904.863	18665
904.981	18544
905.098	18372
905.216	18357
905.334	18403
905.451	18422
905.569	18361
905.686	18365
905.803	18407
905.921	18232
906.038	18266
906.155	18163
906.272	18076
906.389	18182
906.506	17954
906.623	18019
906.74	17893
906.857	17870
906.974	17904
907.091	17980
907.208	18034
907.324	17939
907.441	17786
907.557	17710
907.674	17512
907.79	17562
907.907	17604
908.023	17547
908.139	17646
908.256	17665
908.372	17562
908.488	17395
908.604	17322
908.72	17414
908.836	17368
908.952	17273
909.068	17368
909.184	17467
909.3	17421
909.415	17395
909.531	17200
909.647	17117
909.762	17064
909.878	16976
909.993	16987
910.108	17094
910.224	16930
910.339	17003
910.454	16885
910.57	16873
910.685	16748
910.8	17071
910.915	17045
911.03	16755
911.145	16683
911.259	16706
911.374	16691
911.489	16584
911.604	16478
911.718	16306
911.833	16417
911.947	16261
912.062	16207
912.176	16352
912.291	16379
912.405	16333
912.519	16508
912.633	16615
912.748	16512
912.862	16337
912.976	16242
913.09	16071
913.204	16154
913.318	16249
913.431	16162
913.545	16318
913.659	16219
913.772	16124
913.886	16067
914	16093
914.113	16124
914.226	16013
914.34	15953
914.453	15873
914.566	15979
914.68	15812
914.793	15751
914.906	15625
915.019	15622
915.132	15534
915.245	15580
915.358	15496
915.47	15511
915.583	15622
915.696	15485
915.809	15679
915.921	15656
916.034	15496
916.146	15519
916.259	15435
916.371	15580
916.483	15492
916.595	15370
916.708	15374
916.82	15370
916.932	15382
917.044	15443
917.156	15313
917.268	15203
917.38	15294
917.491	15173
917.603	15211
917.715	15382
917.826	15321
917.938	15055
918.049	14975
918.161	15146
918.272	15279
918.384	15222
918.495	15089
918.606	14952
918.717	14914
918.828	14960
918.939	14921
919.05	14914
919.161	14887
919.272	14773
919.383	14883
919.494	15039
919.604	15165
919.715	14845
919.826	14788
919.936	14857
920.047	15020
920.157	14826
920.267	15100
920.378	14933
920.488	14887
920.598	15093
920.708	15203
920.818	15085
920.928	15077
921.038	15146
921.148	15119
921.258	14823
921.368	14701
921.477	14648
921.587	14617
921.697	14442
921.806	14621
921.916	14465
922.025	14362
922.134	14339
922.244	14240
922.353	14339
922.462	14191
922.571	14054
922.68	13967
922.789	13795
922.898	13986
923.007	13826
923.116	13868
923.224	13856
923.333	13852
923.442	13788
923.55	13746
923.659	13757
923.767	13757
923.876	13670
923.984	13795
924.092	13616
924.201	13746
924.309	13662
924.417	13708
924.525	13502
924.633	13639
924.741	14541
924.849	13274
924.956	13438
925.064	13354
925.172	13240
925.279	13308
925.387	13293
925.494	13293
925.602	13430
925.709	13339
925.816	13244
925.924	13278
926.031	13217
926.138	13244
926.245	13236
926.352	13160
926.459	13308
926.566	13316
926.673	13160
926.779	12962
926.886	13015
926.993	12867
927.099	12848
927.206	12837
927.312	12837
927.419	12833
927.525	12798
927.631	12871
927.737	12730
927.843	12673
927.95	12559
928.056	12722
928.162	12696
928.267	12692
928.373	13202
928.479	12684
928.585	12502
928.69	12597
928.796	12570
928.901	12544
929.007	12388
929.112	12547
929.218	12521
929.323	12429
929.428	12376
929.533	12547
929.638	12353
929.743	12330
929.848	12380
929.953	12380
930.058	12163
930.163	12114
930.267	12049
930.372	12129
930.477	11973
930.581	12292
930.685	12095
930.79	12038
930.894	11916
930.998	11870
931.103	12034
931.207	11680
931.311	11581
931.415	11493
931.519	11376
931.623	11246
