Data from test_V78500241_1584.txt Node
Date: Fri Mar 25 15:20:53 CST 2022
User: usil
Spectrometer: V785-0024
Trigger mode: 0
Integration Time (sec): 4.000000E-1
Scans to average: 1
Nonlinearity correction enabled: false
Boxcar width: 0
Storing dark spectrum: false
XAxis mode: Wavelengths
Number of Pixels in Spectrum: 1024
>>>>>Begin Spectral Data<<<<<
801.071	28017
801.214	27743
801.356	27618
801.499	27469
801.641	27469
801.783	27412
801.926	27427
802.068	27427
802.211	27492
802.353	27275
802.496	27112
802.638	26944
802.78	27009
802.923	26971
803.065	26842
803.208	27093
803.35	27070
803.492	27211
803.635	27157
803.777	27207
803.919	27199
804.061	27705
804.204	27374
804.346	27283
804.488	27226
804.63	27363
804.773	27226
804.915	27344
805.057	27386
805.199	27268
805.341	27370
805.483	27306
805.626	27454
805.768	27264
805.91	27412
806.052	27230
806.194	27321
806.336	27652
806.478	27458
806.62	27485
806.762	27496
806.904	27652
807.046	27854
807.188	27766
807.33	27949
807.472	27899
807.614	27717
807.756	27823
807.898	27679
808.04	27679
808.182	27652
808.324	27720
808.465	27793
808.607	27998
808.749	28204
808.891	28040
809.033	28242
809.174	28070
809.316	28059
809.458	28044
809.6	28044
809.741	28013
809.883	28226
810.025	28341
810.166	28265
810.308	28382
810.45	28177
810.591	28322
810.733	28010
810.875	28040
811.016	27953
811.158	28006
811.299	28070
811.441	28299
811.582	28200
811.724	28032
811.865	28021
812.007	27983
812.148	28166
812.29	27968
812.431	28329
812.573	28424
812.714	28603
812.855	28565
812.997	28736
813.138	28957
813.279	28805
813.421	28767
813.562	28577
813.703	28417
813.845	28379
813.986	27918
814.127	27835
814.268	27846
814.41	27732
814.551	27804
814.692	27914
814.833	27660
814.974	27648
815.115	27739
815.256	27652
815.397	27705
815.539	27690
815.68	27606
815.821	27424
815.962	27507
816.103	27439
816.244	27431
816.385	27401
816.526	27389
816.666	27207
816.807	26963
816.948	27081
817.089	27207
817.23	27233
817.371	27089
817.512	27085
817.653	27024
817.793	26940
817.934	27066
818.075	26982
818.216	27100
818.356	26910
818.497	26937
818.638	26792
818.778	26895
818.919	26750
819.06	26819
819.2	26914
819.341	27123
819.481	27062
819.622	27081
819.762	27481
819.903	27382
820.043	27222
820.184	27184
820.324	27119
820.465	27180
820.605	27268
820.746	27165
820.886	27043
821.026	27222
821.167	27131
821.307	27207
821.447	27074
821.588	26914
821.728	26792
821.868	26670
822.008	26556
822.149	26579
822.289	26537
822.429	26290
822.569	26126
822.709	26218
822.849	25966
822.99	26043
823.13	26039
823.27	25966
823.41	25921
823.55	25670
823.69	25860
823.83	25761
823.97	25936
824.11	25635
824.25	25499
824.389	25563
824.529	25868
824.669	25620
824.809	25635
824.949	25708
825.089	25860
825.228	25746
825.368	25575
825.508	25441
825.648	25628
825.787	25518
825.927	25556
826.067	25537
826.206	25411
826.346	25556
826.485	25499
826.625	25468
826.765	25613
826.904	25540
827.044	25232
827.183	25384
827.323	25221
827.462	25324
827.601	25384
827.741	25327
827.88	25358
828.02	25095
828.159	25118
828.298	25266
828.437	25213
828.577	25217
828.716	25331
828.855	25050
828.994	24806
829.134	24947
829.273	24928
829.412	24825
829.551	24890
829.69	24992
829.829	25046
829.968	24901
830.107	24962
830.246	25031
830.385	24795
830.524	24760
830.663	24711
830.802	24753
830.941	24448
831.08	24494
831.219	24658
831.357	24604
831.496	24700
831.635	24422
831.774	24589
831.913	24399
832.051	24152
832.19	24433
832.329	24330
832.467	24224
832.606	24152
832.744	24228
832.883	24254
833.022	24258
833.16	24190
833.299	24266
833.437	24254
833.576	24391
833.714	24235
833.852	24296
833.991	24445
834.129	24369
834.267	24376
834.406	24327
834.544	24281
834.682	24384
834.821	24258
834.959	24296
835.097	24216
835.235	24277
835.373	24228
835.511	24228
835.65	24182
835.788	24125
835.926	23984
836.064	23923
836.202	23863
836.34	24098
836.478	24201
836.615	24114
836.753	24102
836.891	24216
837.029	24163
837.167	24102
837.305	23992
837.443	23980
837.58	24022
837.718	24049
837.856	24011
837.993	23847
838.131	23988
838.269	23760
838.406	23882
838.544	23794
838.681	23619
838.819	23661
838.956	23509
839.094	23410
839.231	23490
839.369	23589
839.506	23745
839.643	23490
839.781	23315
839.918	23391
840.055	23463
840.193	23387
840.33	23425
840.467	23356
840.604	23269
840.742	23566
840.879	23094
841.016	23250
841.153	23239
841.29	23383
841.427	23341
841.564	23334
841.701	23303
841.838	23303
841.975	23345
842.112	23265
842.249	23041
842.385	23018
842.522	23337
842.659	23258
842.796	23117
842.933	23105
843.069	23098
843.206	23102
843.343	23174
843.479	23022
843.616	23033
843.752	22965
843.889	22892
844.025	23151
844.162	22793
844.298	22835
844.435	22816
844.571	22793
844.708	22957
844.844	23064
844.98	23014
845.117	22976
845.253	22809
845.389	22645
845.525	22805
845.661	22698
845.798	22641
845.934	22622
846.07	22508
846.206	22615
846.342	22691
846.478	22615
846.614	22481
846.75	22375
846.886	22318
847.022	22459
847.158	22451
847.294	22287
847.429	22386
847.565	22276
847.701	22615
847.837	22139
847.972	22078
848.108	22215
848.244	22158
848.379	21907
848.515	21941
848.65	21987
848.786	21873
848.921	21831
849.057	22105
849.192	22017
849.328	21945
849.463	21922
849.598	21812
849.734	21884
849.869	21827
850.004	21701
850.14	21709
850.275	21724
850.41	21496
850.545	21701
850.68	21580
850.815	21698
850.95	21724
851.085	21800
851.22	21785
851.355	21652
851.49	21660
851.625	21648
851.76	21671
851.895	21500
852.03	21587
852.165	21739
852.299	21755
852.434	21835
852.569	21625
852.703	21717
852.838	21682
852.973	21755
853.107	21679
853.242	21542
853.376	21504
853.511	21443
853.645	21481
853.78	21656
853.914	21485
854.048	21485
854.183	21443
854.317	21652
854.451	21698
854.585	21454
854.72	21553
854.854	21549
854.988	21473
855.122	21504
855.256	21473
855.39	21504
855.524	21504
855.658	21538
855.792	21641
855.926	21412
856.06	21401
856.194	21580
856.327	21549
856.461	21469
856.595	21428
856.729	21466
856.862	21603
856.996	21572
857.13	21526
857.263	21599
857.397	21534
857.53	21424
857.664	21515
857.797	21591
857.931	21530
858.064	21481
858.197	21488
858.331	21435
858.464	21412
858.597	21363
858.731	21477
858.864	21389
858.997	21401
859.13	21538
859.263	21545
859.396	21599
859.529	21526
859.662	21355
859.795	21439
859.928	21458
860.061	21739
860.194	21816
860.327	21549
860.46	21519
860.592	21568
860.725	21591
860.858	21618
860.99	21466
861.123	21367
861.256	21424
861.388	21412
861.521	22135
861.653	21268
861.786	21237
861.918	21367
862.05	21435
862.183	21412
862.315	21454
862.447	21424
862.58	21329
862.712	21195
862.844	21203
862.976	21260
863.108	21195
863.24	21492
863.372	21131
863.504	21119
863.636	21222
863.768	21275
863.9	21146
864.032	21074
864.164	21123
864.296	21287
864.428	21264
864.559	21302
864.691	21260
864.823	21268
864.954	21214
865.086	21180
865.217	21154
865.349	21089
865.48	21047
865.612	21096
865.743	21241
865.875	21138
866.006	21165
866.137	21176
866.269	21123
866.4	21039
866.531	20861
866.662	20986
866.793	20895
866.924	21165
867.055	21119
867.186	21043
867.317	20933
867.448	21047
867.579	20880
867.71	20933
867.841	20986
867.972	20925
868.103	20956
868.233	21005
868.364	21074
868.495	21039
868.625	21306
868.756	21374
868.886	21226
869.017	21195
869.147	21264
869.278	21264
869.408	21374
869.539	21264
869.669	21405
869.799	21393
869.929	21420
870.06	21435
870.19	21519
870.32	21542
870.45	21614
870.58	21618
870.71	21751
870.84	21827
870.97	21679
871.1	21671
871.23	21827
871.36	21865
871.489	21819
871.619	21694
871.749	21884
871.879	21937
872.008	21994
872.138	21842
872.267	21934
872.397	21652
872.526	21644
872.656	21720
872.785	21595
872.915	21861
873.044	21888
873.173	21956
873.303	21869
873.432	22002
873.561	22040
873.69	21899
873.819	21949
873.948	21994
874.077	21991
874.206	21827
874.335	21846
874.464	22010
874.593	22109
874.722	22105
874.851	22272
874.979	22112
875.108	22181
875.237	21987
875.365	21953
875.494	22120
875.623	22261
875.751	22131
875.88	22188
876.008	22253
876.136	22169
876.265	22622
876.393	22565
876.521	22630
876.65	22645
876.778	22451
876.906	22470
877.034	22409
877.162	22379
877.29	22276
877.418	22535
877.546	22519
877.674	22455
877.802	22508
877.93	22535
878.058	22284
878.185	22470
878.313	22394
878.441	22432
878.568	22291
878.696	22455
878.824	22360
878.951	22523
879.079	22546
879.206	22698
879.333	22675
879.461	22440
879.588	22630
879.715	22603
879.842	22706
879.97	22409
880.097	22363
880.224	22341
880.351	22265
880.478	22402
880.605	22200
880.732	22371
880.859	22428
880.986	22382
881.112	22371
881.239	22299
881.366	22128
881.493	22059
881.619	21892
881.746	21949
881.872	21797
881.999	21918
882.125	21884
882.252	21888
882.378	21857
882.505	21869
882.631	21789
882.757	21679
882.883	21701
883.01	21462
883.136	21523
883.262	21488
883.388	21408
883.514	21549
883.64	21622
883.766	21572
883.892	21287
884.018	21435
884.143	21523
884.269	21610
884.395	21268
884.52	21119
884.646	21245
884.772	21161
884.897	21157
885.023	21279
885.148	21264
885.274	21389
885.399	21249
885.524	21245
885.65	21272
885.775	21180
885.9	21180
886.025	21245
886.15	21135
886.275	21195
886.4	21135
886.525	21157
886.65	21138
886.775	21135
886.9	21268
887.025	21408
887.149	21127
887.274	20944
887.399	20872
887.523	21043
887.648	20887
887.773	20910
887.897	20975
888.021	20971
888.146	20864
888.27	20933
888.395	21024
888.519	21047
888.643	21020
888.767	21058
888.891	20864
889.015	20750
889.139	20819
889.263	20708
889.387	20857
889.511	20868
889.635	20804
889.759	20746
889.883	20792
890.006	20857
890.13	20819
890.254	20777
890.377	20739
890.501	20670
890.624	20492
890.748	20526
890.871	20374
890.995	20396
891.118	20180
891.241	20248
891.364	20305
891.488	20438
891.611	20461
891.734	20374
891.857	20237
891.98	20423
892.103	20423
892.226	20336
892.349	20301
892.471	20157
892.594	20286
892.717	20259
892.839	20267
892.962	20301
893.085	20336
893.207	20282
893.33	20130
893.452	20107
893.575	20336
893.697	20111
893.819	20404
893.941	20473
894.064	20434
894.186	20218
894.308	20058
894.43	20305
894.552	20320
894.674	20381
894.796	20100
894.918	20183
895.04	20195
895.161	20233
895.283	20294
895.405	20138
895.526	20206
895.648	20206
895.769	20286
895.891	20278
896.012	20191
896.134	20252
896.255	20195
896.376	20138
896.498	20305
896.619	20271
896.74	20237
896.861	20275
896.982	20507
897.103	20769
897.224	20499
897.345	20400
897.466	20461
897.587	20355
897.708	20590
897.828	20499
897.949	20313
898.07	20282
898.19	20522
898.311	20549
898.431	20415
898.552	20434
898.672	20488
898.792	20526
898.913	20590
899.033	20366
899.153	20176
899.273	20180
899.393	20183
899.513	20202
899.633	20301
899.753	20191
899.873	20183
899.993	20298
900.113	20191
900.232	20180
900.352	20088
900.472	19986
900.591	19875
900.711	20062
900.83	19986
900.95	19955
901.069	20187
901.189	19967
901.308	19643
901.427	19491
901.546	19597
901.665	19514
901.784	19597
901.904	19537
902.023	19308
902.141	19251
902.26	19103
902.379	19240
902.498	19076
902.617	18958
902.735	19148
902.854	19084
902.973	18894
903.091	18696
903.21	18734
903.328	18753
903.446	18616
903.565	18582
903.683	18589
903.801	18563
903.919	18441
904.038	18517
904.156	18376
904.274	18418
904.392	18418
904.51	18247
904.627	18144
904.745	18308
904.863	18311
904.981	18129
905.098	18007
905.216	17939
905.334	18019
905.451	17992
905.569	17832
905.686	17984
905.803	17878
905.921	17813
906.038	17851
906.155	17824
906.272	17676
906.389	17562
906.506	17577
906.623	17474
906.74	17566
906.857	17402
906.974	17349
907.091	17615
907.208	17627
907.324	17520
907.441	17345
907.557	17284
907.674	17292
907.79	17166
907.907	17147
908.023	17303
908.139	17227
908.256	17098
908.372	17083
908.488	17140
908.604	17003
908.72	17041
908.836	16965
908.952	16847
909.068	16949
909.184	16957
909.3	16965
909.415	16896
909.531	16968
909.647	16736
909.762	16645
909.878	16645
909.993	16588
910.108	16664
910.224	16618
910.339	16542
910.454	16523
910.57	16550
910.685	16363
910.8	16622
910.915	16615
911.03	16527
911.145	16181
911.259	16215
911.374	16223
911.489	16188
911.604	16135
911.718	15975
911.833	15930
911.947	15869
912.062	15850
912.176	15949
912.291	15960
912.405	15972
912.519	16131
912.633	16181
912.748	16032
912.862	15934
912.976	15682
913.09	15629
913.204	15781
913.318	15781
913.431	15918
913.545	15907
913.659	15842
913.772	15705
913.886	15679
914	15587
914.113	15648
914.226	15682
914.34	15625
914.453	15443
914.566	15584
914.68	15530
914.793	15481
914.906	15294
915.019	15321
915.132	15184
915.245	15138
915.358	15249
915.47	15214
915.583	15176
915.696	15230
915.809	15317
915.921	15302
916.034	15176
916.146	15146
916.259	15077
916.371	15195
916.483	15100
916.595	14963
916.708	14994
916.82	15020
916.932	14986
917.044	14956
917.156	14941
917.268	14830
917.38	14807
917.491	14826
917.603	14853
917.715	14880
917.826	14994
917.938	14773
918.049	14781
918.161	14857
918.272	14979
918.384	14834
918.495	14724
918.606	14579
918.717	14541
918.828	14480
918.939	14629
919.05	14473
919.161	14556
919.272	14351
919.383	14404
919.494	14640
919.604	14811
919.715	14575
919.826	14427
919.936	14541
920.047	14632
920.157	14488
920.267	14750
920.378	14571
920.488	14499
920.598	14750
920.708	14872
920.818	14697
920.928	14625
921.038	14819
921.148	14796
921.258	14587
921.368	14450
921.477	14248
921.587	14351
921.697	14252
921.806	14313
921.916	14172
922.025	13986
922.134	13909
922.244	13917
922.353	14012
922.462	13860
922.571	13715
922.68	13696
922.789	13571
922.898	13628
923.007	13540
923.116	13590
923.224	13597
923.333	13445
923.442	13445
923.55	13449
923.659	13430
923.767	13411
923.876	13407
923.984	13335
924.092	13350
924.201	13308
924.309	13304
924.417	13274
924.525	13164
924.633	13263
924.741	14123
924.849	12996
924.956	13156
925.064	13019
925.172	12924
925.279	12954
925.387	13088
925.494	13027
925.602	13156
925.709	13065
925.816	12947
925.924	12859
926.031	13088
926.138	13004
926.245	12981
926.352	12810
926.459	12981
926.566	13012
926.673	12894
926.779	12779
926.886	12757
926.993	12551
927.099	12517
927.206	12559
927.312	12483
927.419	12566
927.525	12627
927.631	12601
927.737	12422
927.843	12422
927.95	12403
928.056	12403
928.162	12437
928.267	12418
928.373	12928
928.479	12399
928.585	12270
928.69	12365
928.796	12422
928.901	12285
929.007	12178
929.112	12205
929.218	12190
929.323	12117
929.428	12076
929.533	12228
929.638	12030
929.743	12030
929.848	12030
929.953	12076
930.058	11984
930.163	11786
930.267	11824
930.372	11912
930.477	11828
930.581	11878
930.685	11927
930.79	11661
930.894	11741
930.998	11638
931.103	11786
931.207	11474
931.311	11322
931.415	11208
931.519	11102
931.623	11025
