Data from test_V78500241_1628.txt Node
Date: Fri Mar 25 15:21:11 CST 2022
User: usil
Spectrometer: V785-0024
Trigger mode: 0
Integration Time (sec): 4.000000E-1
Scans to average: 1
Nonlinearity correction enabled: false
Boxcar width: 0
Storing dark spectrum: false
XAxis mode: Wavelengths
Number of Pixels in Spectrum: 1024
>>>>>Begin Spectral Data<<<<<
801.071	27994
801.214	27960
801.356	27557
801.499	27492
801.641	27439
801.783	27538
801.926	27443
802.068	27374
802.211	27405
802.353	27477
802.496	27176
802.638	27165
802.78	27051
802.923	27184
803.065	26902
803.208	27028
803.35	27142
803.492	27275
803.635	27218
803.777	27157
803.919	27214
804.061	27778
804.204	27252
804.346	27332
804.488	27135
804.63	27397
804.773	27245
804.915	27367
805.057	27408
805.199	27283
805.341	27332
805.483	27393
805.626	27424
805.768	27279
805.91	27386
806.052	27481
806.194	27378
806.336	27583
806.478	27443
806.62	27458
806.762	27557
806.904	27671
807.046	27941
807.188	27865
807.33	27823
807.472	28021
807.614	27797
807.756	27819
807.898	27667
808.04	27534
808.182	27603
808.324	27648
808.465	27770
808.607	27979
808.749	28093
808.891	28234
809.033	28306
809.174	28101
809.316	28059
809.458	28036
809.6	28325
809.741	28173
809.883	28394
810.025	28268
810.166	28352
810.308	28284
810.45	28299
810.591	28154
810.733	28173
810.875	28086
811.016	27914
811.158	27880
811.299	28215
811.441	28185
811.582	28196
811.724	28101
811.865	28196
812.007	28067
812.148	27907
812.29	27991
812.431	28299
812.573	28390
812.714	28424
812.855	28672
812.997	28649
813.138	28809
813.279	28725
813.421	28801
813.562	28542
813.703	28508
813.845	28226
813.986	28055
814.127	27926
814.268	27701
814.41	27895
814.551	27717
814.692	27774
814.833	27694
814.974	27770
815.115	27778
815.256	27603
815.397	27652
815.539	27717
815.68	27488
815.821	27534
815.962	27618
816.103	27591
816.244	27424
816.385	27283
816.526	27211
816.666	27249
816.807	27108
816.948	27123
817.089	27142
817.23	26975
817.371	27135
817.512	27043
817.653	27074
817.793	27032
817.934	26853
818.075	27020
818.216	26940
818.356	27039
818.497	26861
818.638	26796
818.778	26648
818.919	26724
819.06	26834
819.2	26944
819.341	26948
819.481	27039
819.622	27203
819.762	27321
819.903	27264
820.043	27252
820.184	27066
820.324	27108
820.465	27203
820.605	27207
820.746	27192
820.886	27017
821.026	27093
821.167	27119
821.307	27173
821.447	27142
821.588	26872
821.728	26735
821.868	26613
822.008	26564
822.149	26457
822.289	26412
822.429	26267
822.569	26301
822.709	26324
822.849	26100
822.99	25944
823.13	26054
823.27	26001
823.41	25951
823.55	25830
823.69	25875
823.83	25795
823.97	25807
824.11	25814
824.25	25548
824.389	25761
824.529	25830
824.669	25715
824.809	25791
824.949	25784
825.089	25734
825.228	25647
825.368	25586
825.508	25479
825.648	25525
825.787	25647
825.927	25559
826.067	25521
826.206	25457
826.346	25479
826.485	25544
826.625	25559
826.765	25582
826.904	25544
827.044	25217
827.183	25426
827.323	25274
827.462	25327
827.601	25384
827.741	25217
827.88	25350
828.02	25225
828.159	25145
828.298	25289
828.437	25278
828.577	25148
828.716	25396
828.855	25179
828.994	25072
829.134	25057
829.273	24943
829.412	24913
829.551	24951
829.69	24958
829.829	25057
829.968	24962
830.107	25061
830.246	24966
830.385	24856
830.524	24791
830.663	24810
830.802	24661
830.941	24593
831.08	24505
831.219	24707
831.357	24711
831.496	24787
831.635	24544
831.774	24437
831.913	24433
832.051	24570
832.19	24399
832.329	24460
832.467	24289
832.606	24220
832.744	24201
832.883	24289
833.022	24247
833.16	24350
833.299	24338
833.437	24254
833.576	24292
833.714	24270
833.852	24369
833.991	24270
834.129	24357
834.267	24464
834.406	24380
834.544	24429
834.682	24334
834.821	24247
834.959	24414
835.097	24194
835.235	24300
835.373	24167
835.511	24239
835.65	24136
835.788	24205
835.926	24018
836.064	23961
836.202	23973
836.34	24079
836.478	24228
836.615	24095
836.753	24098
836.891	24148
837.029	24095
837.167	24087
837.305	24053
837.443	24049
837.58	23958
837.718	24034
837.856	23996
837.993	23999
838.131	23996
838.269	23931
838.406	23851
838.544	23824
838.681	23623
838.819	23592
838.956	23493
839.094	23368
839.231	23395
839.369	23615
839.506	23805
839.643	23608
839.781	23486
839.918	23376
840.055	23376
840.193	23360
840.33	23231
840.467	23353
840.604	23368
840.742	23718
840.879	23292
841.016	23376
841.153	23181
841.29	23429
841.427	23364
841.564	23402
841.701	23349
841.838	23280
841.975	23246
842.112	23220
842.249	23060
842.385	23098
842.522	23307
842.659	23212
842.796	23060
842.933	23102
843.069	23079
843.206	23029
843.343	23242
843.479	22927
843.616	23018
843.752	22930
843.889	22949
844.025	23090
844.162	22908
844.298	22911
844.435	22904
844.571	22965
844.708	22869
844.844	22999
844.98	23098
845.117	22972
845.253	22911
845.389	22687
845.525	22698
845.661	22702
845.798	22607
845.934	22645
846.07	22637
846.206	22622
846.342	22557
846.478	22626
846.614	22421
846.75	22322
846.886	22360
847.022	22443
847.158	22356
847.294	22474
847.429	22470
847.565	22428
847.701	22504
847.837	22139
847.972	22032
848.108	22192
848.244	22215
848.379	21945
848.515	22017
848.65	21930
848.786	21915
848.921	21937
849.057	22010
849.192	21911
849.328	21899
849.463	21972
849.598	21956
849.734	21960
849.869	21854
850.004	21789
850.14	21778
850.275	21743
850.41	21694
850.545	21686
850.68	21606
850.815	21690
850.95	21694
851.085	21808
851.22	21819
851.355	21751
851.49	21736
851.625	21751
851.76	21648
851.895	21572
852.03	21504
852.165	21667
852.299	21698
852.434	21644
852.569	21732
852.703	21739
852.838	21774
852.973	21808
853.107	21698
853.242	21644
853.376	21599
853.511	21431
853.645	21530
853.78	21587
853.914	21557
854.048	21386
854.183	21507
854.317	21591
854.451	21701
854.585	21633
854.72	21534
854.854	21606
854.988	21481
855.122	21481
855.256	21447
855.39	21523
855.524	21561
855.658	21542
855.792	21553
855.926	21515
856.06	21492
856.194	21614
856.327	21511
856.461	21553
856.595	21515
856.729	21488
856.862	21545
856.996	21526
857.13	21610
857.263	21583
857.397	21599
857.53	21469
857.664	21561
857.797	21599
857.931	21618
858.064	21553
858.197	21545
858.331	21507
858.464	21420
858.597	21401
858.731	21454
858.864	21519
858.997	21454
859.13	21523
859.263	21583
859.396	21526
859.529	21587
859.662	21363
859.795	21420
859.928	21534
860.061	21736
860.194	21812
860.327	21542
860.46	21610
860.592	21599
860.725	21732
860.858	21561
860.99	21595
861.123	21477
861.256	21519
861.388	21443
861.521	22143
861.653	21370
861.786	21245
861.918	21321
862.05	21443
862.183	21374
862.315	21485
862.447	21450
862.58	21454
862.712	21382
862.844	21146
862.976	21275
863.108	21287
863.24	21610
863.372	21207
863.504	21222
863.636	21226
863.768	21233
863.9	21211
864.032	21131
864.164	21275
864.296	21405
864.428	21435
864.559	21306
864.691	21188
864.823	21283
864.954	21283
865.086	21138
865.217	21131
865.349	21070
865.48	21131
865.612	21108
865.743	21188
865.875	21203
866.006	21192
866.137	21047
866.269	21203
866.4	21074
866.531	21093
866.662	21077
866.793	21112
866.924	21001
867.055	21077
867.186	21001
867.317	20956
867.448	20967
867.579	20994
867.71	20979
867.841	21077
867.972	21039
868.103	21051
868.233	20994
868.364	21085
868.495	21089
868.625	21268
868.756	21511
868.886	21287
869.017	21275
869.147	21431
869.278	21348
869.408	21340
869.539	21260
869.669	21264
869.799	21374
869.929	21397
870.06	21386
870.19	21656
870.32	21580
870.45	21679
870.58	21728
870.71	21717
870.84	21739
870.97	21694
871.1	21682
871.23	21899
871.36	21907
871.489	21770
871.619	21842
871.749	21812
871.879	21819
872.008	21956
872.138	21972
872.267	21964
872.397	21797
872.526	21751
872.656	21819
872.785	21736
872.915	21937
873.044	21941
873.173	21869
873.303	21903
873.432	21972
873.561	22017
873.69	21888
873.819	21880
873.948	21956
874.077	21812
874.206	21873
874.335	21857
874.464	22006
874.593	22192
874.722	22101
874.851	22017
874.979	22097
875.108	22192
875.237	22135
875.365	22067
875.494	22063
875.623	22181
875.751	22021
875.88	22051
876.008	22322
876.136	22310
876.265	22481
876.393	22687
876.521	22557
876.65	22656
876.778	22519
876.906	22356
877.034	22436
877.162	22375
877.29	22443
877.418	22348
877.546	22428
877.674	22500
877.802	22538
877.93	22474
878.058	22371
878.185	22386
878.313	22462
878.441	22390
878.568	22268
878.696	22322
878.824	22424
878.951	22512
879.079	22546
879.206	22778
879.333	22733
879.461	22371
879.588	22580
879.715	22462
879.842	22672
879.97	22474
880.097	22314
880.224	22337
880.351	22367
880.478	22287
880.605	22223
880.732	22238
880.859	22565
880.986	22409
881.112	22280
881.239	22204
881.366	22086
881.493	22040
881.619	21720
881.746	22002
881.872	21819
881.999	21789
882.125	21876
882.252	21861
882.378	21800
882.505	21979
882.631	21732
882.757	21591
882.883	21701
883.01	21485
883.136	21534
883.262	21374
883.388	21439
883.514	21580
883.64	21701
883.766	21557
883.892	21325
884.018	21397
884.143	21481
884.269	21603
884.395	21279
884.52	21291
884.646	21275
884.772	21188
884.897	21077
885.023	21291
885.148	21302
885.274	21348
885.399	21431
885.524	21161
885.65	21237
885.775	21161
885.9	21317
886.025	21241
886.15	21272
886.275	21302
886.4	21180
886.525	21123
886.65	21157
886.775	21096
886.9	21192
887.025	21386
887.149	21351
887.274	21074
887.399	21112
887.523	21081
887.648	20952
887.773	20963
887.897	21123
888.021	21142
888.146	20933
888.27	21131
888.395	21020
888.519	21028
888.643	20963
888.767	21108
888.891	20830
889.015	20758
889.139	20830
889.263	20857
889.387	20842
889.511	20933
889.635	20842
889.759	20861
889.883	20785
890.006	20785
890.13	20826
890.254	20804
890.377	20769
890.501	20575
890.624	20537
890.748	20461
890.871	20484
890.995	20065
891.118	20301
891.241	20446
891.364	20263
891.488	20579
891.611	20389
891.734	20461
891.857	20499
891.98	20305
892.103	20423
892.226	20377
892.349	20256
892.471	20043
892.594	20180
892.717	20271
892.839	20202
892.962	20202
893.085	20298
893.207	20252
893.33	20157
893.452	20195
893.575	20332
893.697	20263
893.819	20404
893.941	20484
894.064	20332
894.186	20149
894.308	20107
894.43	20362
894.552	20343
894.674	20271
894.796	20149
894.918	20305
895.04	20206
895.161	20244
895.283	20290
895.405	20153
895.526	20427
895.648	20180
895.769	20256
895.891	20301
896.012	20286
896.134	20210
896.255	20317
896.376	20214
896.498	20176
896.619	20294
896.74	20134
896.861	20343
896.982	20518
897.103	20758
897.224	20484
897.345	20530
897.466	20355
897.587	20571
897.708	20579
897.828	20434
897.949	20328
898.07	20195
898.19	20495
898.311	20503
898.431	20419
898.552	20461
898.672	20499
898.792	20495
898.913	20347
899.033	20400
899.153	20172
899.273	19986
899.393	20225
899.513	20168
899.633	20313
899.753	20317
899.873	20092
899.993	20103
900.113	20309
900.232	20229
900.352	20103
900.472	20065
900.591	19951
900.711	19928
900.83	19936
900.95	19959
901.069	20065
901.189	19947
901.308	19601
901.427	19674
901.546	19476
901.665	19556
901.784	19563
901.904	19529
902.023	19209
902.141	19187
902.26	19076
902.379	19126
902.498	19107
902.617	19065
902.735	19160
902.854	19057
902.973	19015
903.091	18730
903.21	18833
903.328	18760
903.446	18696
903.565	18593
903.683	18536
903.801	18467
903.919	18608
904.038	18574
904.156	18395
904.274	18399
904.392	18323
904.51	18194
904.627	18319
904.745	18399
904.863	18422
904.981	18209
905.098	17999
905.216	17996
905.334	18095
905.451	18076
905.569	18117
905.686	17999
905.803	17935
905.921	17748
906.038	17863
906.155	17741
906.272	17665
906.389	17718
906.506	17467
906.623	17638
906.74	17528
906.857	17452
906.974	17573
907.091	17604
907.208	17573
907.324	17551
907.441	17436
907.557	17345
907.674	17265
907.79	17121
907.907	17231
908.023	17322
908.139	17261
908.256	17166
908.372	17284
908.488	17147
908.604	17029
908.72	16968
908.836	17045
908.952	16911
909.068	16957
909.184	17037
909.3	16850
909.415	17025
909.531	16885
909.647	16664
909.762	16634
909.878	16740
909.993	16637
910.108	16637
910.224	16664
910.339	16607
910.454	16569
910.57	16535
910.685	16398
910.8	16752
910.915	16626
911.03	16493
911.145	16230
911.259	16295
911.374	16261
911.489	16234
911.604	16124
911.718	16071
911.833	16105
911.947	15884
912.062	15888
912.176	15979
912.291	15956
912.405	15964
912.519	16105
912.633	16249
912.748	16017
912.862	15972
912.976	15846
913.09	15698
913.204	15823
913.318	15747
913.431	15915
913.545	15907
913.659	15884
913.772	15759
913.886	15682
914	15614
914.113	15694
914.226	15778
914.34	15667
914.453	15538
914.566	15595
914.68	15572
914.793	15568
914.906	15302
915.019	15192
915.132	15127
915.245	15157
915.358	15233
915.47	15146
915.583	15222
915.696	15264
915.809	15355
915.921	15374
916.034	15195
916.146	15100
916.259	15085
916.371	15138
916.483	15146
916.595	15100
916.708	15039
916.82	15089
916.932	15047
917.044	15009
917.156	14883
917.268	14834
917.38	15001
917.491	14868
917.603	14823
917.715	14941
917.826	14883
917.938	14815
918.049	14746
918.161	14838
918.272	14952
918.384	14944
918.495	14785
918.606	14636
918.717	14621
918.828	14617
918.939	14621
919.05	14545
919.161	14541
919.272	14480
919.383	14332
919.494	14712
919.604	14781
919.715	14564
919.826	14400
919.936	14454
920.047	14602
920.157	14568
920.267	14750
920.378	14503
920.488	14442
920.598	14762
920.708	14921
920.818	14701
920.928	14746
921.038	14887
921.148	14781
921.258	14533
921.368	14408
921.477	14290
921.587	14320
921.697	14339
921.806	14313
921.916	14168
922.025	13978
922.134	13944
922.244	13955
922.353	13963
922.462	13795
922.571	13833
922.68	13696
922.789	13594
922.898	13571
923.007	13597
923.116	13578
923.224	13715
923.333	13502
923.442	13472
923.55	13400
923.659	13381
923.767	13468
923.876	13419
923.984	13487
924.092	13289
924.201	13373
924.309	13263
924.417	13304
924.525	13274
924.633	13282
924.741	14145
924.849	13031
924.956	13179
925.064	13034
925.172	12985
925.279	13000
925.387	12993
925.494	13050
925.602	13145
925.709	13103
925.816	12985
925.924	12848
926.031	13050
926.138	12977
926.245	13023
926.352	12825
926.459	13012
926.566	13069
926.673	12897
926.779	12848
926.886	12787
926.993	12662
927.099	12612
927.206	12593
927.312	12532
927.419	12654
927.525	12566
927.631	12616
927.737	12483
927.843	12376
927.95	12323
928.056	12410
928.162	12437
928.267	12490
928.373	13072
928.479	12467
928.585	12155
928.69	12372
928.796	12403
928.901	12372
929.007	12095
929.112	12315
929.218	12228
929.323	12190
929.428	12083
929.533	12235
929.638	11999
929.743	12045
929.848	12186
929.953	12053
930.058	11950
930.163	11779
930.267	11843
930.372	11950
930.477	11809
930.581	11965
930.685	11882
930.79	11718
930.894	11775
930.998	11676
931.103	11779
931.207	11486
931.311	11444
931.415	11242
931.519	11121
931.623	11090
