Data from test_V78500241_646.txt Node
Date: Fri Mar 25 15:14:21 CST 2022
User: usil
Spectrometer: V785-0024
Trigger mode: 0
Integration Time (sec): 4.000000E-1
Scans to average: 1
Nonlinearity correction enabled: false
Boxcar width: 0
Storing dark spectrum: false
XAxis mode: Wavelengths
Number of Pixels in Spectrum: 1024
>>>>>Begin Spectral Data<<<<<
801.071	27534
801.214	27450
801.356	27245
801.499	27119
801.641	27127
801.783	27062
801.926	27233
802.068	27119
802.211	26937
802.353	26944
802.496	26724
802.638	26735
802.78	26651
802.923	26697
803.065	26853
803.208	26686
803.35	26670
803.492	26864
803.635	26872
803.777	26834
803.919	26971
804.061	27370
804.204	26811
804.346	26777
804.488	26785
804.63	26792
804.773	26796
804.915	26819
805.057	26868
805.199	26819
805.341	26979
805.483	26925
805.626	26940
805.768	26929
805.91	27131
806.052	27024
806.194	26933
806.336	27119
806.478	26937
806.62	27032
806.762	27176
806.904	27241
807.046	27580
807.188	27424
807.33	27435
807.472	27329
807.614	27420
807.756	27424
807.898	27169
808.04	27180
808.182	27291
808.324	27119
808.465	27389
808.607	27405
808.749	27637
808.891	27675
809.033	27759
809.174	27728
809.316	27637
809.458	27633
809.6	27622
809.741	27781
809.883	27949
810.025	27922
810.166	27857
810.308	27785
810.45	27876
810.591	27960
810.733	27698
810.875	27595
811.016	27599
811.158	27549
811.299	27739
811.441	27671
811.582	27816
811.724	27447
811.865	27530
812.007	27686
812.148	27564
812.29	27583
812.431	27819
812.573	27914
812.714	28051
812.855	28181
812.997	28219
813.138	28329
813.279	28291
813.421	28238
813.562	28101
813.703	27998
813.845	27869
813.986	27663
814.127	27515
814.268	27340
814.41	27351
814.551	27287
814.692	27416
814.833	27169
814.974	27264
815.115	27374
815.256	27291
815.397	27237
815.539	27192
815.68	27051
815.821	27009
815.962	27051
816.103	27096
816.244	27032
816.385	26853
816.526	26929
816.666	26663
816.807	26606
816.948	26686
817.089	26834
817.23	26724
817.371	26552
817.512	26541
817.653	26606
817.793	26419
817.934	26590
818.075	26731
818.216	26651
818.356	26511
818.497	26450
818.638	26362
818.778	26286
818.919	26370
819.06	26301
819.2	26533
819.341	26606
819.481	26651
819.622	26781
819.762	26963
819.903	26914
820.043	26857
820.184	26708
820.324	26739
820.465	26750
820.605	26655
820.746	26720
820.886	26480
821.026	26686
821.167	26724
821.307	26762
821.447	26632
821.588	26556
821.728	26389
821.868	26309
822.008	26069
822.149	26027
822.289	26062
822.429	25849
822.569	25746
822.709	25776
822.849	25499
822.99	25643
823.13	25639
823.27	25514
823.41	25407
823.55	25274
823.69	25289
823.83	25293
823.97	25270
824.11	25255
824.25	25263
824.389	25175
824.529	25377
824.669	25156
824.809	25331
824.949	25304
825.089	25388
825.228	25206
825.368	25065
825.508	25148
825.648	25156
825.787	25046
825.927	25118
826.067	25038
826.206	25084
826.346	25194
826.485	25072
826.625	25065
826.765	25164
826.904	25175
827.044	24768
827.183	24840
827.323	24806
827.462	24897
827.601	24821
827.741	24696
827.88	24840
828.02	24760
828.159	24760
828.298	24753
828.437	24852
828.577	24703
828.716	24970
828.855	24612
828.994	24505
829.134	24483
829.273	24570
829.412	24532
829.551	24460
829.69	24509
829.829	24631
829.968	24566
830.107	24646
830.246	24494
830.385	24327
830.524	24388
830.663	24285
830.802	24277
830.941	24049
831.08	24114
831.219	24121
831.357	24072
831.496	24289
831.635	24186
831.774	24007
831.913	23901
832.051	23901
832.19	23904
832.329	23878
832.467	23805
832.606	23733
832.744	23737
832.883	23790
833.022	23840
833.16	23775
833.299	23771
833.437	23752
833.576	23767
833.714	23764
833.852	23904
833.991	23824
834.129	23939
834.267	23885
834.406	23741
834.544	23840
834.682	23870
834.821	23726
834.959	24015
835.097	23794
835.235	23790
835.373	23813
835.511	23794
835.65	23672
835.788	23707
835.926	23611
836.064	23459
836.202	23573
836.34	23729
836.478	23676
836.615	23672
836.753	23767
836.891	23771
837.029	23752
837.167	23562
837.305	23554
837.443	23543
837.58	23463
837.718	23554
837.856	23410
837.993	23528
838.131	23448
838.269	23425
838.406	23478
838.544	23303
838.681	23155
838.819	23060
838.956	22923
839.094	23010
839.231	22934
839.369	23178
839.506	23459
839.643	23299
839.781	23075
839.918	23048
840.055	23003
840.193	22812
840.33	22869
840.467	22831
840.604	22904
840.742	23105
840.879	22809
841.016	22793
841.153	22801
841.29	22999
841.427	22869
841.564	23003
841.701	22953
841.838	22866
841.975	22877
842.112	22771
842.249	22717
842.385	22538
842.522	22801
842.659	22710
842.796	22668
842.933	22683
843.069	22561
843.206	22599
843.343	22660
843.479	22615
843.616	22653
843.752	22508
843.889	22424
844.025	22649
844.162	22390
844.298	22607
844.435	22348
844.571	22375
844.708	22561
844.844	22717
844.98	22440
845.117	22588
845.253	22310
845.389	22318
845.525	22459
845.661	22204
845.798	22242
845.934	22268
846.07	22078
846.206	22143
846.342	22265
846.478	22177
846.614	21949
846.75	21808
846.886	21899
847.022	21964
847.158	21915
847.294	21926
847.429	21888
847.565	21819
847.701	22059
847.837	21633
847.972	21553
848.108	21660
848.244	21675
848.379	21564
848.515	21660
848.65	21439
848.786	21435
848.921	21534
849.057	21606
849.192	21561
849.328	21534
849.463	21496
849.598	21466
849.734	21435
849.869	21355
850.004	21298
850.14	21393
850.275	21256
850.41	21104
850.545	21268
850.68	21237
850.815	21256
850.95	21325
851.085	21431
851.22	21386
851.355	21302
851.49	21275
851.625	21188
851.76	21142
851.895	21211
852.03	21203
852.165	21165
852.299	21192
852.434	21393
852.569	21252
852.703	21275
852.838	21340
852.973	21313
853.107	21462
853.242	21325
853.376	21135
853.511	21024
853.645	21051
853.78	21138
853.914	21203
854.048	21081
854.183	21043
854.317	21218
854.451	21203
854.585	21058
854.72	21112
854.854	21142
854.988	21001
855.122	21287
855.256	20861
855.39	21127
855.524	21135
855.658	21298
855.792	21051
855.926	21169
856.06	21142
856.194	21222
856.327	21230
856.461	20929
856.595	21051
856.729	21085
856.862	21272
856.996	21241
857.13	21119
857.263	21142
857.397	21173
857.53	21154
857.664	21123
857.797	21203
857.931	21306
858.064	21135
858.197	21192
858.331	21127
858.464	21085
858.597	21077
858.731	21077
858.864	21116
858.997	21085
859.13	21135
859.263	21108
859.396	21252
859.529	20986
859.662	21188
859.795	21100
859.928	21192
860.061	21382
860.194	21416
860.327	21123
860.46	21180
860.592	21184
860.725	21313
860.858	21317
860.99	21199
861.123	21077
861.256	21043
861.388	21161
861.521	21884
861.653	20899
861.786	20986
861.918	20868
862.05	21077
862.183	21074
862.315	21039
862.447	21051
862.58	20910
862.712	20785
862.844	20769
862.976	21001
863.108	20902
863.24	21275
863.372	20845
863.504	20925
863.636	20731
863.768	20754
863.9	20769
864.032	20727
864.164	20845
864.296	20773
864.428	20941
864.559	20933
864.691	20872
864.823	20963
864.954	20819
865.086	20750
865.217	20640
865.349	20632
865.48	20769
865.612	20727
865.743	20644
865.875	20682
866.006	20708
866.137	20781
866.269	20720
866.4	20807
866.531	20678
866.662	20621
866.793	20777
866.924	20545
867.055	20670
867.186	20773
867.317	20518
867.448	20602
867.579	20514
867.71	20655
867.841	20625
867.972	20689
868.103	20724
868.233	20659
868.364	20739
868.495	20758
868.625	20941
868.756	20982
868.886	20914
869.017	20834
869.147	20952
869.278	20910
869.408	20933
869.539	20921
869.669	21028
869.799	20921
869.929	21093
870.06	21062
870.19	21260
870.32	21249
870.45	21268
870.58	21199
870.71	21424
870.84	21515
870.97	21340
871.1	21279
871.23	21386
871.36	21580
871.489	21492
871.619	21424
871.749	21466
871.879	21580
872.008	21561
872.138	21519
872.267	21572
872.397	21344
872.526	21222
872.656	21389
872.785	21275
872.915	21492
873.044	21553
873.173	21488
873.303	21469
873.432	21580
873.561	21492
873.69	21462
873.819	21534
873.948	21530
874.077	21488
874.206	21439
874.335	21530
874.464	21701
874.593	21838
874.722	21610
874.851	21831
874.979	21869
875.108	21812
875.237	21545
875.365	21553
875.494	21816
875.623	21800
875.751	21667
875.88	21717
876.008	21713
876.136	21960
876.265	22211
876.393	22219
876.521	22200
876.65	22158
876.778	22154
876.906	22215
877.034	21861
877.162	22166
877.29	22002
877.418	22169
877.546	22120
877.674	22090
877.802	22105
877.93	22185
878.058	22021
878.185	22051
878.313	22147
878.441	22036
878.568	21880
878.696	21991
878.824	22223
878.951	22215
879.079	22322
879.206	22280
879.333	22253
879.461	22215
879.588	22112
879.715	22253
879.842	22466
879.97	22074
880.097	21991
880.224	21838
880.351	21968
880.478	21861
880.605	21842
880.732	21960
880.859	22139
880.986	21975
881.112	21827
881.239	21838
881.366	21583
881.493	21633
881.619	21496
881.746	21408
881.872	21534
881.999	21431
882.125	21568
882.252	21443
882.378	21496
882.505	21538
882.631	21241
882.757	21203
882.883	21241
883.01	21214
883.136	21184
883.262	21173
883.388	20868
883.514	21279
883.64	21176
883.766	21096
883.892	20944
884.018	21051
884.143	21093
884.269	21272
884.395	20796
884.52	20899
884.646	20830
884.772	20883
884.897	20788
885.023	20807
885.148	20925
885.274	21093
885.399	20918
885.524	20762
885.65	20876
885.775	20826
885.9	20861
886.025	20921
886.15	20948
886.275	20906
886.4	20731
886.525	20804
886.65	20796
886.775	20693
886.9	20910
887.025	21001
887.149	20796
887.274	20579
887.399	20617
887.523	20480
887.648	20549
887.773	20617
887.897	20621
888.021	20689
888.146	20438
888.27	20678
888.395	20735
888.519	20708
888.643	20693
888.767	20682
888.891	20450
889.015	20415
889.139	20427
889.263	20332
889.387	20564
889.511	20629
889.635	20606
889.759	20469
889.883	20438
890.006	20400
890.13	20476
890.254	20313
890.377	20358
890.501	20096
890.624	20115
890.748	20183
890.871	20008
890.995	19947
891.118	19879
891.241	19967
891.364	19940
891.488	20084
891.611	20062
891.734	19944
891.857	20020
891.98	19978
892.103	20149
892.226	19917
892.349	20024
892.471	19849
892.594	19887
892.717	19871
892.839	19845
892.962	19986
893.085	20092
893.207	19883
893.33	19791
893.452	19784
893.575	19944
893.697	19772
893.819	20107
893.941	20073
894.064	20073
894.186	19822
894.308	19890
894.43	19970
894.552	20134
894.674	20043
894.796	19883
894.918	19814
895.04	19841
895.161	19970
895.283	19970
895.405	19849
895.526	19795
895.648	19936
895.769	19887
895.891	20005
896.012	19925
896.134	19959
896.255	19944
896.376	19811
896.498	19833
896.619	19978
896.74	19917
896.861	19955
896.982	20309
897.103	20434
897.224	20134
897.345	20164
897.466	20065
897.587	19974
897.708	20286
897.828	20252
897.949	20100
898.07	19989
898.19	20161
898.311	20100
898.431	19978
898.552	20282
898.672	20218
898.792	20229
898.913	20005
899.033	20001
899.153	19978
899.273	19788
899.393	19742
899.513	19967
899.633	19879
899.753	19837
899.873	19788
899.993	19879
900.113	19887
900.232	19818
900.352	19852
900.472	19788
900.591	19624
900.711	19696
900.83	19639
900.95	19674
901.069	19818
901.189	19506
901.308	19362
901.427	19278
901.546	19362
901.665	19282
901.784	19369
901.904	19122
902.023	19050
902.141	18837
902.26	18749
902.379	18825
902.498	18798
902.617	18734
902.735	18852
902.854	18658
902.973	18635
903.091	18460
903.21	18547
903.328	18475
903.446	18346
903.565	18285
903.683	18232
903.801	18232
903.919	18266
904.038	18159
904.156	18022
904.274	18053
904.392	18034
904.51	17965
904.627	17904
904.745	18114
904.863	18030
904.981	17840
905.098	17714
905.216	17775
905.334	17733
905.451	17718
905.569	17630
905.686	17680
905.803	17642
905.921	17512
906.038	17551
906.155	17444
906.272	17429
906.389	17360
906.506	17292
906.623	17121
906.74	17269
906.857	17029
906.974	17105
907.091	17193
907.208	17318
907.324	17292
907.441	17079
907.557	16927
907.674	16900
907.79	16854
907.907	16908
908.023	16904
908.139	16854
908.256	16908
908.372	16923
908.488	16812
908.604	16672
908.72	16698
908.836	16668
908.952	16577
909.068	16656
909.184	16767
909.3	16713
909.415	16710
909.531	16759
909.647	16394
909.762	16337
909.878	16310
909.993	16375
910.108	16367
910.224	16386
910.339	16215
910.454	16287
910.57	16166
910.685	16109
910.8	16341
910.915	16272
911.03	16097
911.145	15975
911.259	15934
911.374	16017
911.489	15918
911.604	15850
911.718	15682
911.833	15728
911.947	15534
912.062	15496
912.176	15652
912.291	15599
912.405	15675
912.519	15774
912.633	15865
912.748	15736
912.862	15709
912.976	15485
913.09	15408
913.204	15595
913.318	15561
913.431	15549
913.545	15519
913.659	15564
913.772	15458
913.886	15378
914	15329
914.113	15428
914.226	15424
914.34	15367
914.453	15207
914.566	15420
914.68	15119
914.793	15211
914.906	15055
915.019	14990
915.132	14842
915.245	14899
915.358	14975
915.47	14918
915.583	14868
915.696	14891
915.809	15024
915.921	15135
916.034	14891
916.146	14842
916.259	14762
916.371	14948
916.483	14853
916.595	14735
916.708	14781
916.82	14819
916.932	14739
917.044	14739
917.156	14758
917.268	14617
917.38	14674
917.491	14507
917.603	14606
917.715	14629
917.826	14712
917.938	14526
918.049	14434
918.161	14541
918.272	14686
918.384	14602
918.495	14549
918.606	14355
918.717	14305
918.828	14332
918.939	14423
919.05	14267
919.161	14377
919.272	14164
919.383	14183
919.494	14442
919.604	14522
919.715	14355
919.826	14336
919.936	14343
920.047	14457
920.157	14339
920.267	14484
920.378	14301
920.488	14328
920.598	14530
920.708	14720
920.818	14488
920.928	14385
921.038	14705
921.148	14583
921.258	14301
921.368	14183
921.477	14069
921.587	14081
921.697	13913
921.806	14187
921.916	13936
922.025	13887
922.134	13677
922.244	13666
922.353	13693
922.462	13537
922.571	13571
922.68	13384
922.789	13457
922.898	13373
923.007	13339
923.116	13499
923.224	13324
923.333	13293
923.442	13228
923.55	13183
923.659	13202
923.767	13278
923.876	13061
923.984	13217
924.092	12993
924.201	13137
924.309	13065
924.417	13088
924.525	12970
924.633	13019
924.741	13761
924.849	12920
924.956	13034
925.064	12787
925.172	12673
925.279	12814
925.387	12760
925.494	12848
925.602	12966
925.709	12852
925.816	12665
925.924	12722
926.031	12875
926.138	12760
926.245	12856
926.352	12623
926.459	12779
926.566	12875
926.673	12719
926.779	12536
926.886	12471
926.993	12433
927.099	12292
927.206	12315
927.312	12304
927.419	12464
927.525	12330
927.631	12490
927.737	12251
927.843	12247
927.95	12102
928.056	12098
928.162	12273
928.267	12239
928.373	12779
928.479	12273
928.585	12057
928.69	12182
928.796	12171
928.901	12102
929.007	11870
929.112	12098
929.218	11961
929.323	11958
929.428	11916
929.533	12045
929.638	11798
929.743	11958
929.848	11977
929.953	11885
930.058	11748
930.163	11600
930.267	11600
930.372	11714
930.477	11516
930.581	11771
930.685	11592
930.79	11528
930.894	11589
930.998	11509
931.103	11661
931.207	11178
931.311	11208
931.415	11052
931.519	10809
931.623	10797
