Data from test_V78500241_2458.txt Node
Date: Fri Mar 25 15:26:58 CST 2022
User: usil
Spectrometer: V785-0024
Trigger mode: 0
Integration Time (sec): 4.000000E-1
Scans to average: 1
Nonlinearity correction enabled: false
Boxcar width: 0
Storing dark spectrum: false
XAxis mode: Wavelengths
Number of Pixels in Spectrum: 1024
>>>>>Begin Spectral Data<<<<<
801.071	26998
801.214	26937
801.356	26693
801.499	26511
801.641	26408
801.783	26514
801.926	26511
802.068	26484
802.211	26393
802.353	26393
802.496	26187
802.638	26058
802.78	26027
802.923	26008
803.065	25932
803.208	26126
803.35	26153
803.492	26362
803.635	26282
803.777	26206
803.919	26271
804.061	26602
804.204	26336
804.346	26149
804.488	26176
804.63	26336
804.773	26161
804.915	26332
805.057	26210
805.199	26370
805.341	26244
805.483	26374
805.626	26339
805.768	26206
805.91	26412
806.052	26362
806.194	26328
806.336	26560
806.478	26328
806.62	26396
806.762	26522
806.904	26670
807.046	26842
807.188	26727
807.33	26785
807.472	26796
807.614	26686
807.756	26708
807.898	26727
808.04	26541
808.182	26625
808.324	26564
808.465	26613
808.607	26906
808.749	26990
808.891	27013
809.033	27146
809.174	27001
809.316	27009
809.458	27100
809.6	26975
809.741	27104
809.883	27032
810.025	27184
810.166	27211
810.308	27211
810.45	26990
810.591	27173
810.733	26956
810.875	26963
811.016	26739
811.158	26686
811.299	26994
811.441	27013
811.582	27074
811.724	26853
811.865	26990
812.007	26849
812.148	26952
812.29	26918
812.431	27058
812.573	27157
812.714	27351
812.855	27492
812.997	27393
813.138	27694
813.279	27477
813.421	27462
813.562	27363
813.703	27260
813.845	27096
813.986	26880
814.127	26724
814.268	26731
814.41	26735
814.551	26545
814.692	26594
814.833	26453
814.974	26511
815.115	26541
815.256	26423
815.397	26419
815.539	26400
815.68	26320
815.821	26324
815.962	26221
816.103	26149
816.244	26187
816.385	26142
816.526	26058
816.666	25989
816.807	25776
816.948	25860
817.089	25986
817.23	25997
817.371	25807
817.512	25772
817.653	25849
817.793	25620
817.934	25890
818.075	25784
818.216	26039
818.356	25909
818.497	25734
818.638	25521
818.778	25594
818.919	25533
819.06	25597
819.2	25769
819.341	25830
819.481	25799
819.622	25932
819.762	26115
819.903	26043
820.043	25974
820.184	25909
820.324	25997
820.465	25982
820.605	25890
820.746	25864
820.886	25795
821.026	25982
821.167	25932
821.307	25925
821.447	25807
821.588	25658
821.728	25590
821.868	25426
822.008	25388
822.149	25297
822.289	25282
822.429	25004
822.569	25046
822.709	25057
822.849	24806
822.99	24871
823.13	24829
823.27	24722
823.41	24642
823.55	24452
823.69	24700
823.83	24635
823.97	24509
824.11	24441
824.25	24380
824.389	24452
824.529	24547
824.669	24380
824.809	24502
824.949	24479
825.089	24593
825.228	24445
825.368	24338
825.508	24395
825.648	24304
825.787	24319
825.927	24388
826.067	24281
826.206	24174
826.346	24247
826.485	24384
826.625	24319
826.765	24327
826.904	24315
827.044	24003
827.183	24072
827.323	23939
827.462	24076
827.601	24072
827.741	23961
827.88	23984
828.02	23916
828.159	23965
828.298	24003
828.437	24041
828.577	24022
828.716	24114
828.855	23931
828.994	23718
829.134	23779
829.273	23703
829.412	23687
829.551	23608
829.69	23638
829.829	23653
829.968	23889
830.107	23733
830.246	23684
830.385	23611
830.524	23566
830.663	23558
830.802	23421
830.941	23383
831.08	23261
831.219	23383
831.357	23417
831.496	23570
831.635	23303
831.774	23204
831.913	23254
832.051	23178
832.19	23048
832.329	23075
832.467	22904
832.606	22965
832.744	23022
832.883	23044
833.022	23033
833.16	22923
833.299	23124
833.437	22968
833.576	23223
833.714	23052
833.852	23033
833.991	23113
834.129	23235
834.267	23132
834.406	23178
834.544	23102
834.682	23056
834.821	23033
834.959	23303
835.097	23041
835.235	22968
835.373	22957
835.511	22942
835.65	22934
835.788	22961
835.926	22942
836.064	22706
836.202	22778
836.34	22908
836.478	23025
836.615	22915
836.753	22957
836.891	23056
837.029	22930
837.167	22843
837.305	22873
837.443	22748
837.58	22805
837.718	22839
837.856	22839
837.993	22793
838.131	22759
838.269	22767
838.406	22698
838.544	22538
838.681	22371
838.819	22356
838.956	22272
839.094	22112
839.231	22341
839.369	22405
839.506	22592
839.643	22531
839.781	22268
839.918	22200
840.055	22223
840.193	22284
840.33	22112
840.467	22230
840.604	22177
840.742	22466
840.879	22029
841.016	22029
841.153	22051
841.29	22280
841.427	22200
841.564	22261
841.701	22048
841.838	22124
841.975	22013
842.112	22177
842.249	22059
842.385	21892
842.522	22128
842.659	21998
842.796	21903
842.933	22029
843.069	21975
843.206	21895
843.343	21975
843.479	21937
843.616	21956
843.752	21808
843.889	21842
844.025	21800
844.162	21739
844.298	21800
844.435	21762
844.571	21789
844.708	21732
844.844	21888
844.98	21732
845.117	21956
845.253	21625
845.389	21591
845.525	21679
845.661	21648
845.798	21481
845.934	21530
846.07	21359
846.206	21515
846.342	21614
846.478	21523
846.614	21348
846.75	21142
846.886	21135
847.022	21306
847.158	21218
847.294	21222
847.429	21230
847.565	21195
847.701	21447
847.837	20910
847.972	20937
848.108	21028
848.244	20960
848.379	20921
848.515	20830
848.65	20883
848.786	20906
848.921	20868
849.057	20960
849.192	20838
849.328	20887
849.463	20746
849.598	20826
849.734	20606
849.869	20674
850.004	20579
850.14	20507
850.275	20632
850.41	20549
850.545	20514
850.68	20537
850.815	20549
850.95	20511
851.085	20625
851.22	20594
851.355	20655
851.49	20552
851.625	20427
851.76	20541
851.895	20476
852.03	20446
852.165	20480
852.299	20629
852.434	20454
852.569	20549
852.703	20526
852.838	20625
852.973	20617
853.107	20674
853.242	20594
853.376	20301
853.511	20370
853.645	20377
853.78	20499
853.914	20427
854.048	20339
854.183	20332
854.317	20480
854.451	20518
854.585	20332
854.72	20305
854.854	20389
854.988	20263
855.122	20332
855.256	20237
855.39	20427
855.524	20499
855.658	20434
855.792	20442
855.926	20305
856.06	20473
856.194	20514
856.327	20396
856.461	20263
856.595	20355
856.729	20351
856.862	20492
856.996	20461
857.13	20412
857.263	20450
857.397	20408
857.53	20427
857.664	20396
857.797	20408
857.931	20484
858.064	20457
858.197	20552
858.331	20427
858.464	20355
858.597	20343
858.731	20339
858.864	20328
858.997	20328
859.13	20332
859.263	20404
859.396	20370
859.529	20347
859.662	20313
859.795	20294
859.928	20446
860.061	20545
860.194	20613
860.327	20461
860.46	20358
860.592	20526
860.725	20514
860.858	20476
860.99	20537
861.123	20244
861.256	20309
861.388	20400
861.521	20876
861.653	20294
861.786	20180
861.918	20267
862.05	20263
862.183	20305
862.315	20221
862.447	20332
862.58	20343
862.712	20153
862.844	20176
862.976	20126
863.108	20168
863.24	20590
863.372	20111
863.504	20050
863.636	20157
863.768	20043
863.9	20183
864.032	20081
864.164	20073
864.296	20187
864.428	20267
864.559	20199
864.691	20180
864.823	20145
864.954	20077
865.086	19993
865.217	20119
865.349	19932
865.48	20043
865.612	20062
865.743	20065
865.875	19978
866.006	20046
866.137	20050
866.269	20020
866.4	19921
866.531	19849
866.662	19864
866.793	19890
866.924	20050
867.055	20008
867.186	19921
867.317	20065
867.448	19906
867.579	19982
867.71	19997
867.841	19826
867.972	19871
868.103	19928
868.233	19925
868.364	19993
868.495	20031
868.625	20233
868.756	20229
868.886	20183
869.017	20168
869.147	20157
869.278	20434
869.408	20176
869.539	20161
869.669	20195
869.799	20195
869.929	20343
870.06	20157
870.19	20454
870.32	20438
870.45	20541
870.58	20587
870.71	20602
870.84	20693
870.97	20686
871.1	20746
871.23	20819
871.36	20724
871.489	20667
871.619	20678
871.749	20754
871.879	20811
872.008	20906
872.138	20864
872.267	20724
872.397	20670
872.526	20689
872.656	20667
872.785	20678
872.915	20800
873.044	20967
873.173	20834
873.303	20849
873.432	20967
873.561	20880
873.69	20941
873.819	20735
873.948	20929
874.077	20925
874.206	20716
874.335	20914
874.464	20845
874.593	21074
874.722	21009
874.851	21093
874.979	21089
875.108	21119
875.237	21112
875.365	20998
875.494	21119
875.623	21165
875.751	21028
875.88	21013
876.008	21161
876.136	21378
876.265	21424
876.393	21564
876.521	21599
876.65	21580
876.778	21492
876.906	21473
877.034	21488
877.162	21325
877.29	21382
877.418	21477
877.546	21439
877.674	21355
877.802	21462
877.93	21420
878.058	21412
878.185	21214
878.313	21351
878.441	21367
878.568	21214
878.696	21329
878.824	21401
878.951	21458
879.079	21595
879.206	21675
879.333	21679
879.461	21405
879.588	21416
879.715	21644
879.842	21656
879.97	21481
880.097	21313
880.224	21195
880.351	21260
880.478	21272
880.605	21222
880.732	21123
880.859	21492
880.986	21313
881.112	21237
881.239	21070
881.366	21131
881.493	20849
881.619	20880
881.746	20883
881.872	20902
881.999	20796
882.125	20819
882.252	20914
882.378	20842
882.505	21020
882.631	20678
882.757	20522
882.883	20629
883.01	20602
883.136	20552
883.262	20427
883.388	20438
883.514	20556
883.64	20636
883.766	20408
883.892	20271
884.018	20377
884.143	20507
884.269	20499
884.395	20324
884.52	20172
884.646	20256
884.772	20100
884.897	20142
885.023	20259
885.148	20419
885.274	20298
885.399	20267
885.524	20142
885.65	20164
885.775	20153
885.9	20237
886.025	20294
886.15	20142
886.275	20138
886.4	20039
886.525	20111
886.65	20183
886.775	20172
886.9	20313
887.025	20594
887.149	20229
887.274	20054
887.399	20035
887.523	19852
887.648	19868
887.773	19788
887.897	19909
888.021	19913
888.146	19955
888.27	20031
888.395	20027
888.519	20035
888.643	19936
888.767	20126
888.891	19769
889.015	19811
889.139	19731
889.263	19807
889.387	19955
889.511	20020
889.635	19970
889.759	19727
889.883	19765
890.006	19784
890.13	19932
890.254	19712
890.377	19677
890.501	19464
890.624	19487
890.748	19525
890.871	19388
890.995	19346
891.118	19369
891.241	19320
891.364	19510
891.488	19480
891.611	19365
891.734	19403
891.857	19388
891.98	19480
892.103	19506
892.226	19316
892.349	19346
892.471	19122
892.594	19255
892.717	19316
892.839	19240
892.962	19247
893.085	19445
893.207	19301
893.33	19190
893.452	19152
893.575	19335
893.697	19263
893.819	19445
893.941	19567
894.064	19453
894.186	19255
894.308	19164
894.43	19259
894.552	19476
894.674	19274
894.796	19190
894.918	19274
895.04	19304
895.161	19369
895.283	19392
895.405	19221
895.526	19259
895.648	19301
895.769	19278
895.891	19308
896.012	19434
896.134	19244
896.255	19232
896.376	19160
896.498	19407
896.619	19331
896.74	19263
896.861	19392
896.982	19586
897.103	19742
897.224	19533
897.345	19552
897.466	19453
897.587	19438
897.708	19685
897.828	19677
897.949	19495
898.07	19301
898.19	19502
898.311	19586
898.431	19430
898.552	19529
898.672	19677
898.792	19639
898.913	19514
899.033	19449
899.153	19251
899.273	19304
899.393	19236
899.513	19316
899.633	19343
899.753	19202
899.873	19202
899.993	19259
900.113	19164
900.232	19354
900.352	19129
900.472	19076
900.591	19057
900.711	19053
900.83	19008
900.95	19225
901.069	19213
901.189	18962
901.308	18821
901.427	18597
901.546	18688
901.665	18764
901.784	18688
901.904	18570
902.023	18448
902.141	18376
902.26	18178
902.379	18186
902.498	18213
902.617	18194
902.735	18190
902.854	18049
902.973	18045
903.091	17935
903.21	17718
903.328	17882
903.446	17722
903.565	17665
903.683	17722
903.801	17558
903.919	17623
904.038	17589
904.156	17505
904.274	17634
904.392	17478
904.51	17425
904.627	17448
904.745	17547
904.863	17440
904.981	17277
905.098	17121
905.216	17174
905.334	17197
905.451	17250
905.569	17086
905.686	17079
905.803	17216
905.921	16923
906.038	17079
906.155	16968
906.272	16885
906.389	16793
906.506	16694
906.623	16710
906.74	16763
906.857	16550
906.974	16645
907.091	16774
907.208	16809
907.324	16706
907.441	16618
907.557	16413
907.674	16474
907.79	16402
907.907	16352
908.023	16451
908.139	16390
908.256	16280
908.372	16272
908.488	16284
908.604	16109
908.72	16105
908.836	16086
908.952	16071
909.068	16196
909.184	16314
909.3	16215
909.415	16139
909.531	16101
909.647	15880
909.762	15850
909.878	15808
909.993	15800
910.108	15804
910.224	15732
910.339	15827
910.454	15679
910.57	15595
910.685	15561
910.8	15911
910.915	15770
911.03	15652
911.145	15420
911.259	15500
911.374	15447
911.489	15310
911.604	15351
911.718	15184
911.833	15150
911.947	15146
912.062	15047
912.176	15116
912.291	15154
912.405	15222
912.519	15367
912.633	15370
912.748	15226
912.862	15214
912.976	14975
913.09	14933
913.204	15028
913.318	15013
913.431	15146
913.545	15085
913.659	15066
913.772	14872
913.886	14811
914	14918
914.113	15001
914.226	14944
914.34	14864
914.453	14796
914.566	14857
914.68	14701
914.793	14762
914.906	14564
915.019	14492
915.132	14393
915.245	14480
915.358	14514
915.47	14476
915.583	14530
915.696	14476
915.809	14568
915.921	14590
916.034	14461
916.146	14267
916.259	14290
916.371	14495
916.483	14461
916.595	14271
916.708	14336
916.82	14301
916.932	14301
917.044	14313
917.156	14221
917.268	14164
917.38	14088
917.491	14168
917.603	14115
917.715	14191
917.826	14229
917.938	14130
918.049	13974
918.161	14103
918.272	14259
918.384	14164
918.495	14081
918.606	13997
918.717	13776
918.828	13879
918.939	13894
919.05	13769
919.161	13852
919.272	13742
919.383	13712
919.494	13978
919.604	14073
919.715	13894
919.826	13757
919.936	13864
920.047	13986
920.157	13852
920.267	14039
920.378	13856
920.488	13928
920.598	14168
920.708	14183
920.818	13959
920.928	13944
921.038	14252
921.148	14058
921.258	13814
921.368	13811
921.477	13753
921.587	13685
921.697	13510
921.806	13674
921.916	13483
922.025	13346
922.134	13232
922.244	13225
922.353	13365
922.462	13168
922.571	13114
922.68	13046
922.789	12951
922.898	12993
923.007	12840
923.116	13065
923.224	12924
923.333	12916
923.442	12833
923.55	12821
923.659	12837
923.767	12932
923.876	12696
923.984	12795
924.092	12650
924.201	12768
924.309	12620
924.417	12711
924.525	12654
924.633	12582
924.741	13559
924.849	12410
924.956	12658
925.064	12441
925.172	12334
925.279	12346
925.387	12460
925.494	12403
925.602	12445
925.709	12479
925.816	12254
925.924	12334
926.031	12403
926.138	12342
926.245	12399
926.352	12315
926.459	12353
926.566	12486
926.673	12334
926.779	12114
926.886	12091
926.993	12098
927.099	12030
927.206	11843
927.312	11893
927.419	11988
927.525	12019
927.631	11961
927.737	11786
927.843	11828
927.95	11707
928.056	11798
928.162	11824
928.267	11733
928.373	12456
928.479	11904
928.585	11680
928.69	11790
928.796	11779
928.901	11570
929.007	11581
929.112	11737
929.218	11581
929.323	11554
929.428	11554
929.533	11668
929.638	11497
929.743	11501
929.848	11577
929.953	11528
930.058	11452
930.163	11231
930.267	11170
930.372	11265
930.477	11258
930.581	11505
930.685	11246
930.79	11239
930.894	11140
930.998	11045
931.103	11254
931.207	10858
931.311	10850
931.415	10733
931.519	10527
931.623	10584
