Data from test_V78500241_1201.txt Node
Date: Fri Mar 25 15:18:13 CST 2022
User: usil
Spectrometer: V785-0024
Trigger mode: 0
Integration Time (sec): 4.000000E-1
Scans to average: 1
Nonlinearity correction enabled: false
Boxcar width: 0
Storing dark spectrum: false
XAxis mode: Wavelengths
Number of Pixels in Spectrum: 1024
>>>>>Begin Spectral Data<<<<<
801.071	28059
801.214	28036
801.356	27812
801.499	27778
801.641	27656
801.783	27568
801.926	27610
802.068	27614
802.211	27595
802.353	27572
802.496	27252
802.638	27302
802.78	27370
802.923	27131
803.065	27245
803.208	27192
803.35	27466
803.492	27408
803.635	27370
803.777	27393
803.919	27511
804.061	27842
804.204	27595
804.346	27504
804.488	27420
804.63	27523
804.773	27538
804.915	27526
805.057	27564
805.199	27466
805.341	27538
805.483	27610
805.626	27557
805.768	27564
805.91	27622
806.052	27652
806.194	27633
806.336	27766
806.478	27663
806.62	27545
806.762	27785
806.904	27827
807.046	28147
807.188	28021
807.33	28010
807.472	28074
807.614	28120
807.756	27975
807.898	28124
808.04	27949
808.182	28021
808.324	27857
808.465	28002
808.607	28215
808.749	28257
808.891	28443
809.033	28417
809.174	28390
809.316	28306
809.458	28440
809.6	28348
809.741	28489
809.883	28405
810.025	28538
810.166	28622
810.308	28740
810.45	28527
810.591	28531
810.733	28371
810.875	28154
811.016	28188
811.158	28211
811.299	28401
811.441	28337
811.582	28504
811.724	28238
811.865	28204
812.007	28261
812.148	28287
812.29	28287
812.431	28478
812.573	28656
812.714	28691
812.855	28885
812.997	29060
813.138	29033
813.279	28938
813.421	28881
813.562	28915
813.703	28767
813.845	28569
813.986	28382
814.127	28185
814.268	27861
814.41	27991
814.551	28002
814.692	28025
814.833	27983
814.974	28074
815.115	28048
815.256	27880
815.397	27911
815.539	27926
815.68	27789
815.821	27720
815.962	27785
816.103	27793
816.244	27690
816.385	27648
816.526	27587
816.666	27370
816.807	27268
816.948	27412
817.089	27420
817.23	27340
817.371	27355
817.512	27207
817.653	27382
817.793	27176
817.934	27515
818.075	27325
818.216	27241
818.356	27283
818.497	27180
818.638	26979
818.778	27032
818.919	27135
819.06	27138
819.2	27325
819.341	27355
819.481	27245
819.622	27477
819.762	27599
819.903	27580
820.043	27587
820.184	27450
820.324	27382
820.465	27469
820.605	27283
820.746	27450
820.886	27325
821.026	27408
821.167	27310
821.307	27367
821.447	27294
821.588	27245
821.728	27055
821.868	26895
822.008	26853
822.149	26724
822.289	26773
822.429	26545
822.569	26522
822.709	26438
822.849	26237
822.99	26423
823.13	26263
823.27	26180
823.41	26126
823.55	26005
823.69	26088
823.83	26153
823.97	26058
824.11	25947
824.25	25864
824.389	25906
824.529	26001
824.669	25989
824.809	26149
824.949	26084
825.089	26088
825.228	25989
825.368	25715
825.508	25811
825.648	25860
825.787	25795
825.927	25982
826.067	25818
826.206	25917
826.346	25871
826.485	25871
826.625	25715
826.765	26001
826.904	25928
827.044	25521
827.183	25677
827.323	25586
827.462	25540
827.601	25639
827.741	25548
827.88	25514
828.02	25502
828.159	25540
828.298	25537
828.437	25704
828.577	25491
828.716	25662
828.855	25400
828.994	25240
829.134	25285
829.273	25293
829.412	25171
829.551	25198
829.69	25080
829.829	25282
829.968	25202
830.107	25206
830.246	25308
830.385	25160
830.524	25206
830.663	25027
830.802	25008
830.941	24939
831.08	24802
831.219	24909
831.357	24973
831.496	25088
831.635	24783
831.774	24734
831.913	24722
832.051	24627
832.19	24749
832.329	24608
832.467	24555
832.606	24540
832.744	24608
832.883	24479
833.022	24513
833.16	24703
833.299	24570
833.437	24509
833.576	24639
833.714	24654
833.852	24669
833.991	24654
834.129	24673
834.267	24764
834.406	24540
834.544	24635
834.682	24631
834.821	24612
834.959	24806
835.097	24631
835.235	24719
835.373	24483
835.511	24753
835.65	24544
835.788	24437
835.926	24330
836.064	24372
836.202	24159
836.34	24414
836.478	24627
836.615	24399
836.753	24437
836.891	24475
837.029	24441
837.167	24467
837.305	24414
837.443	24308
837.58	24190
837.718	24311
837.856	24247
837.993	24171
838.131	24152
838.269	24289
838.406	24117
838.544	24060
838.681	23878
838.819	23821
838.956	23722
839.094	23874
839.231	23760
839.369	24007
839.506	24083
839.643	24049
839.781	23775
839.918	23691
840.055	23821
840.193	23714
840.33	23718
840.467	23737
840.604	23828
840.742	23885
840.879	23482
841.016	23558
841.153	23463
841.29	23764
841.427	23802
841.564	23699
841.701	23615
841.838	23604
841.975	23585
842.112	23531
842.249	23562
842.385	23330
842.522	23463
842.659	23410
842.796	23395
842.933	23452
843.069	23444
843.206	23417
843.343	23516
843.479	23436
843.616	23398
843.752	23185
843.889	23178
844.025	23364
844.162	23261
844.298	23360
844.435	23178
844.571	23155
844.708	23242
844.844	23387
844.98	23299
845.117	23341
845.253	23124
845.389	23090
845.525	23170
845.661	23124
845.798	23098
845.934	23006
846.07	22968
846.206	22953
846.342	23044
846.478	22915
846.614	22755
846.75	22554
846.886	22637
847.022	22748
847.158	22748
847.294	22809
847.429	22771
847.565	22706
847.701	22869
847.837	22504
847.972	22303
848.108	22512
848.244	22436
848.379	22413
848.515	22261
848.65	22185
848.786	22303
848.921	22280
849.057	22291
849.192	22405
849.328	22394
849.463	22295
849.598	22318
849.734	22200
849.869	22032
850.004	22051
850.14	22074
850.275	22044
850.41	21964
850.545	21804
850.68	21941
850.815	22109
850.95	21987
851.085	22139
851.22	22166
851.355	22166
851.49	22143
851.625	21979
851.76	21941
851.895	21873
852.03	21937
852.165	21884
852.299	22051
852.434	22109
852.569	22063
852.703	22067
852.838	22070
852.973	22257
853.107	22067
853.242	21922
853.376	21892
853.511	21724
853.645	21945
853.78	22002
853.914	21930
854.048	21819
854.183	21781
854.317	21823
854.451	22074
854.585	21876
854.72	21759
854.854	21816
854.988	21804
855.122	21842
855.256	21873
855.39	21816
855.524	21888
855.658	21888
855.792	21781
855.926	21838
856.06	21895
856.194	21983
856.327	21804
856.461	21785
856.595	21793
856.729	21751
856.862	21857
856.996	21968
857.13	21876
857.263	21926
857.397	21956
857.53	21846
857.664	21762
857.797	21827
857.931	21949
858.064	21987
858.197	22082
858.331	21880
858.464	21827
858.597	21660
858.731	21770
858.864	21812
858.997	21774
859.13	21743
859.263	21819
859.396	21873
859.529	21808
859.662	21823
859.795	21857
859.928	21937
860.061	21918
860.194	21991
860.327	21873
860.46	21941
860.592	22002
860.725	21968
860.858	22055
860.99	21895
861.123	21865
861.256	21800
861.388	21915
861.521	22668
861.653	21694
861.786	21595
861.918	21587
862.05	21766
862.183	21850
862.315	21819
862.447	21869
862.58	21789
862.712	21595
862.844	21530
862.976	21583
863.108	21663
863.24	22067
863.372	21450
863.504	21572
863.636	21500
863.768	21720
863.9	21530
864.032	21496
864.164	21568
864.296	21542
864.428	21576
864.559	21610
864.691	21549
864.823	21629
864.954	21660
865.086	21663
865.217	21462
865.349	21492
865.48	21564
865.612	21393
865.743	21462
865.875	21477
866.006	21447
866.137	21454
866.269	21386
866.4	21378
866.531	21230
866.662	21272
866.793	21393
866.924	21329
867.055	21408
867.186	21378
867.317	21348
867.448	21317
867.579	21252
867.71	21260
867.841	21207
867.972	21264
868.103	21420
868.233	21412
868.364	21485
868.495	21443
868.625	21492
868.756	21694
868.886	21534
869.017	21580
869.147	21747
869.278	21751
869.408	21568
869.539	21656
869.669	21679
869.799	21564
869.929	21682
870.06	21686
870.19	21945
870.32	21842
870.45	21937
870.58	21915
870.71	22238
870.84	22090
870.97	22040
871.1	22040
871.23	22192
871.36	22162
871.489	22154
871.619	22207
871.749	22204
871.879	22257
872.008	22348
872.138	22166
872.267	22211
872.397	21968
872.526	21983
872.656	22074
872.785	21972
872.915	22284
873.044	22394
873.173	22128
873.303	22124
873.432	22333
873.561	22226
873.69	22150
873.819	22226
873.948	22360
874.077	22116
874.206	22246
874.335	22204
874.464	22428
874.593	22337
874.722	22573
874.851	22500
874.979	22554
875.108	22508
875.237	22398
875.365	22363
875.494	22352
875.623	22440
875.751	22344
875.88	22516
876.008	22573
876.136	22603
876.265	22820
876.393	22980
876.521	22923
876.65	22771
876.778	22778
876.906	22759
877.034	22679
877.162	22748
877.29	22645
877.418	22850
877.546	22805
877.674	22774
877.802	22885
877.93	22786
878.058	22694
878.185	22649
878.313	22679
878.441	22774
878.568	22455
878.696	22630
878.824	22717
878.951	22942
879.079	23067
879.206	23052
879.333	22999
879.461	22649
879.588	22748
879.715	22900
879.842	23098
879.97	22862
880.097	22550
880.224	22577
880.351	22694
880.478	22660
880.605	22596
880.732	22641
880.859	22805
880.986	22561
881.112	22508
881.239	22348
881.366	22314
881.493	22306
881.619	22196
881.746	22246
881.872	22181
881.999	22143
882.125	22101
882.252	22169
882.378	22154
882.505	22234
882.631	21960
882.757	21964
882.883	21926
883.01	21869
883.136	21831
883.262	21743
883.388	21774
883.514	21827
883.64	21869
883.766	21797
883.892	21682
884.018	21682
884.143	21759
884.269	21869
884.395	21561
884.52	21496
884.646	21424
884.772	21534
884.897	21401
885.023	21538
885.148	21587
885.274	21652
885.399	21614
885.524	21462
885.65	21511
885.775	21496
885.9	21439
886.025	21671
886.15	21416
886.275	21405
886.4	21416
886.525	21538
886.65	21481
886.775	21420
886.9	21553
887.025	21747
887.149	21367
887.274	21321
887.399	21370
887.523	21214
887.648	21344
887.773	21062
887.897	21302
888.021	21393
888.146	21154
888.27	21340
888.395	21469
888.519	21222
888.643	21325
888.767	21283
888.891	21192
889.015	20975
889.139	21081
889.263	21100
889.387	21161
889.511	21180
889.635	21268
889.759	21009
889.883	21058
890.006	21036
890.13	21123
890.254	20937
890.377	20906
890.501	20739
890.624	20838
890.748	20834
890.871	20552
890.995	20651
891.118	20560
891.241	20705
891.364	20564
891.488	20830
891.611	20648
891.734	20621
891.857	20564
891.98	20613
892.103	20632
892.226	20609
892.349	20571
892.471	20404
892.594	20537
892.717	20659
892.839	20522
892.962	20522
893.085	20625
893.207	20594
893.33	20583
893.452	20518
893.575	20629
893.697	20526
893.819	20693
893.941	20712
894.064	20575
894.186	20438
894.308	20434
894.43	20575
894.552	20731
894.674	20571
894.796	20358
894.918	20564
895.04	20454
895.161	20545
895.283	20598
895.405	20514
895.526	20526
895.648	20541
895.769	20484
895.891	20446
896.012	20571
896.134	20590
896.255	20404
896.376	20412
896.498	20450
896.619	20533
896.74	20511
896.861	20640
896.982	20746
897.103	20971
897.224	20746
897.345	20708
897.466	20625
897.587	20712
897.708	20823
897.828	20853
897.949	20743
898.07	20571
898.19	20541
898.311	20705
898.431	20663
898.552	20762
898.672	20777
898.792	20807
898.913	20705
899.033	20549
899.153	20511
899.273	20377
899.393	20393
899.513	20431
899.633	20549
899.753	20480
899.873	20294
899.993	20389
900.113	20358
900.232	20362
900.352	20336
900.472	20298
900.591	20115
900.711	20229
900.83	20161
900.95	20313
901.069	20347
901.189	20134
901.308	19868
901.427	19666
901.546	19811
901.665	19841
901.784	19803
901.904	19700
902.023	19499
902.141	19403
902.26	19339
902.379	19441
902.498	19377
902.617	19225
902.735	19301
902.854	19160
902.973	19335
903.091	19031
903.21	19042
903.328	18935
903.446	18817
903.565	18829
903.683	18745
903.801	18604
903.919	18753
904.038	18722
904.156	18506
904.274	18654
904.392	18536
904.51	18456
904.627	18456
904.745	18525
904.863	18642
904.981	18388
905.098	18171
905.216	18095
905.334	18171
905.451	18232
905.569	18095
905.686	18262
905.803	18228
905.921	17988
906.038	18129
906.155	18015
906.272	17893
906.389	17996
906.506	17904
906.623	17703
906.74	17691
906.857	17687
906.974	17707
907.091	17764
907.208	17824
907.324	17714
907.441	17535
907.557	17467
907.674	17516
907.79	17326
907.907	17490
908.023	17345
908.139	17463
908.256	17315
908.372	17322
908.488	17273
908.604	17242
908.72	17155
908.836	17136
908.952	17170
909.068	17151
909.184	17345
909.3	17223
909.415	17178
909.531	17132
909.647	16885
909.762	16984
909.878	16885
909.993	16889
910.108	16786
910.224	16713
910.339	16786
910.454	16630
910.57	16694
910.685	16554
910.8	16869
910.915	16850
911.03	16660
911.145	16417
911.259	16512
911.374	16523
911.489	16382
911.604	16348
911.718	16204
911.833	16200
911.947	16181
912.062	16131
912.176	16257
912.291	16177
912.405	16135
912.519	16455
912.633	16455
912.748	16310
912.862	16226
912.976	16044
913.09	15907
913.204	16082
913.318	16021
913.431	16188
913.545	16013
913.659	16128
913.772	15918
913.886	15899
914	15823
914.113	15941
914.226	15945
914.34	15842
914.453	15656
914.566	15846
914.68	15865
914.793	15724
914.906	15572
915.019	15500
915.132	15363
915.245	15431
915.358	15466
915.47	15477
915.583	15469
915.696	15504
915.809	15637
915.921	15530
916.034	15393
916.146	15268
916.259	15397
916.371	15389
916.483	15359
916.595	15344
916.708	15256
916.82	15302
916.932	15214
917.044	15249
917.156	15127
917.268	15062
917.38	15108
917.491	15108
917.603	15150
917.715	15161
917.826	15268
917.938	15013
918.049	14979
918.161	15077
918.272	15165
918.384	15180
918.495	15024
918.606	14895
918.717	14834
918.828	14880
918.939	14883
919.05	14727
919.161	14834
919.272	14568
919.383	14796
919.494	14887
919.604	15009
919.715	14819
919.826	14731
919.936	14693
920.047	14944
920.157	14804
920.267	14952
920.378	14838
920.488	14781
920.598	15001
920.708	15066
920.818	14998
920.928	14960
921.038	15062
921.148	15020
921.258	14693
921.368	14689
921.477	14556
921.587	14473
921.697	14400
921.806	14552
921.916	14366
922.025	14240
922.134	14100
922.244	14123
922.353	14225
922.462	14035
922.571	14031
922.68	13921
922.789	13811
922.898	13868
923.007	13830
923.116	13871
923.224	13826
923.333	13776
923.442	13719
923.55	13540
923.659	13712
923.767	13601
923.876	13597
923.984	13658
924.092	13525
924.201	13552
924.309	13487
924.417	13563
924.525	13506
924.633	13449
924.741	14244
924.849	13255
924.956	13396
925.064	13213
925.172	13076
925.279	13251
925.387	13183
925.494	13244
925.602	13320
925.709	13293
925.816	13103
925.924	13247
926.031	13156
926.138	13179
926.245	13149
926.352	12935
926.459	13179
926.566	13289
926.673	13038
926.779	12935
926.886	13004
926.993	12825
927.099	12715
927.206	12741
927.312	12741
927.419	12821
927.525	12768
927.631	12795
927.737	12623
927.843	12601
927.95	12525
928.056	12665
928.162	12578
928.267	12593
928.373	13190
928.479	12616
928.585	12441
928.69	12566
928.796	12536
928.901	12429
929.007	12296
929.112	12353
929.218	12467
929.323	12258
929.428	12334
929.533	12475
929.638	12205
929.743	12304
929.848	12300
929.953	12243
930.058	12163
930.163	11916
930.267	12045
930.372	12076
930.477	11939
930.581	12144
930.685	11980
930.79	11904
930.894	11931
930.998	11821
931.103	11912
931.207	11539
931.311	11577
931.415	11528
931.519	11280
931.623	11235
