Data from test_V78500241_3519.txt Node
Date: Fri Mar 25 15:34:21 CST 2022
User: usil
Spectrometer: V785-0024
Trigger mode: 0
Integration Time (sec): 4.000000E-1
Scans to average: 1
Nonlinearity correction enabled: false
Boxcar width: 0
Storing dark spectrum: false
XAxis mode: Wavelengths
Number of Pixels in Spectrum: 1024
>>>>>Begin Spectral Data<<<<<
801.071	27412
801.214	27313
801.356	27222
801.499	27108
801.641	26937
801.783	26891
801.926	26918
802.068	26994
802.211	26765
802.353	26785
802.496	26617
802.638	26552
802.78	26381
802.923	26514
803.065	26461
803.208	26427
803.35	26465
803.492	26720
803.635	26864
803.777	26674
803.919	26777
804.061	27093
804.204	26800
804.346	26689
804.488	26651
804.63	26834
804.773	26682
804.915	26682
805.057	26765
805.199	26636
805.341	26830
805.483	26746
805.626	26788
805.768	26800
805.91	26880
806.052	26861
806.194	26781
806.336	27055
806.478	26720
806.62	26731
806.762	27062
806.904	26986
807.046	27405
807.188	27119
807.33	27264
807.472	27340
807.614	27123
807.756	27119
807.898	27138
808.04	26986
808.182	26990
808.324	27131
808.465	27085
808.607	27344
808.749	27500
808.891	27485
809.033	27526
809.174	27542
809.316	27424
809.458	27405
809.6	27340
809.741	27481
809.883	27393
810.025	27656
810.166	27686
810.308	27797
810.45	27724
810.591	27504
810.733	27488
810.875	27447
811.016	27218
811.158	27283
811.299	27534
811.441	27679
811.582	27625
811.724	27523
811.865	27469
812.007	27420
812.148	27458
812.29	27386
812.431	27580
812.573	27766
812.714	27892
812.855	27899
812.997	28017
813.138	28150
813.279	28036
813.421	27914
813.562	27945
813.703	27682
813.845	27663
813.986	27393
814.127	27157
814.268	27017
814.41	27184
814.551	27161
814.692	27184
814.833	27055
814.974	27096
815.115	27119
815.256	26918
815.397	27085
815.539	27108
815.68	26754
815.821	26880
815.962	26872
816.103	26838
816.244	26659
816.385	26552
816.526	26552
816.666	26389
816.807	26469
816.948	26549
817.089	26476
817.23	26431
817.371	26328
817.512	26339
817.653	26473
817.793	26214
817.934	26191
818.075	26423
818.216	26362
818.356	26267
818.497	26267
818.638	26031
818.778	26039
818.919	26138
819.06	26134
819.2	26290
819.341	26370
819.481	26286
819.622	26431
819.762	26549
819.903	26640
820.043	26469
820.184	26514
820.324	26442
820.465	26552
820.605	26480
820.746	26495
820.886	26271
821.026	26381
821.167	26324
821.307	26530
821.447	26381
821.588	26149
821.728	26183
821.868	25936
822.008	25925
822.149	25932
822.289	25898
822.429	25544
822.569	25521
822.709	25468
822.849	25297
822.99	25464
823.13	25232
823.27	25202
823.41	25190
823.55	25099
823.69	25118
823.83	25179
823.97	25152
824.11	24992
824.25	24916
824.389	25004
824.529	25061
824.669	24886
824.809	25126
824.949	25103
825.089	25141
825.228	25065
825.368	24886
825.508	24798
825.648	24719
825.787	24951
825.927	24897
826.067	24798
826.206	24703
826.346	24848
826.485	24878
826.625	24878
826.765	24916
826.904	24939
827.044	24734
827.183	24616
827.323	24536
827.462	24566
827.601	24563
827.741	24544
827.88	24559
828.02	24376
828.159	24525
828.298	24669
828.437	24593
828.577	24445
828.716	24627
828.855	24517
828.994	24338
829.134	24315
829.273	24384
829.412	24205
829.551	24220
829.69	24365
829.829	24277
829.968	24289
830.107	24407
830.246	24281
830.385	24228
830.524	24159
830.663	24133
830.802	23977
830.941	23840
831.08	23817
831.219	24030
831.357	24057
831.496	24091
831.635	23923
831.774	23767
831.913	23790
832.051	23604
832.19	23691
832.329	23707
832.467	23585
832.606	23455
832.744	23395
832.883	23486
833.022	23490
833.16	23638
833.299	23657
833.437	23573
833.576	23661
833.714	23611
833.852	23570
833.991	23657
834.129	23756
834.267	23638
834.406	23630
834.544	23668
834.682	23710
834.821	23577
834.959	23707
835.097	23611
835.235	23493
835.373	23608
835.511	23611
835.65	23600
835.788	23417
835.926	23353
836.064	23311
836.202	23444
836.34	23520
836.478	23539
836.615	23383
836.753	23429
836.891	23600
837.029	23436
837.167	23353
837.305	23231
837.443	23387
837.58	23414
837.718	23471
837.856	23349
837.993	23284
838.131	23242
838.269	23109
838.406	23318
838.544	23159
838.681	23033
838.819	22915
838.956	22866
839.094	22843
839.231	22900
839.369	22866
839.506	23216
839.643	23018
839.781	22885
839.918	22858
840.055	22873
840.193	22778
840.33	22767
840.467	22790
840.604	22710
840.742	22980
840.879	22626
841.016	22755
841.153	22622
841.29	22850
841.427	22740
841.564	22778
841.701	22797
841.838	22752
841.975	22641
842.112	22691
842.249	22535
842.385	22436
842.522	22801
842.659	22596
842.796	22565
842.933	22466
843.069	22512
843.206	22447
843.343	22535
843.479	22367
843.616	22664
843.752	22276
843.889	22360
844.025	22344
844.162	22276
844.298	22432
844.435	22257
844.571	22185
844.708	22352
844.844	22409
844.98	22478
845.117	22428
845.253	22059
845.389	22181
845.525	22230
845.661	22116
845.798	22021
845.934	22055
846.07	21975
846.206	21994
846.342	22154
846.478	22044
846.614	21762
846.75	21770
846.886	21785
847.022	21728
847.158	21785
847.294	21713
847.429	21694
847.565	21686
847.701	21953
847.837	21545
847.972	21408
848.108	21724
848.244	21526
848.379	21466
848.515	21363
848.65	21313
848.786	21359
848.921	21317
849.057	21344
849.192	21450
849.328	21211
849.463	21401
849.598	21192
849.734	21317
849.869	21249
850.004	21024
850.14	21131
850.275	21199
850.41	20979
850.545	21119
850.68	20982
850.815	21108
850.95	21100
851.085	21275
851.22	21211
851.355	21211
851.49	21138
851.625	21020
851.76	20998
851.895	21047
852.03	21043
852.165	21055
852.299	21017
852.434	21142
852.569	21207
852.703	21051
852.838	21230
852.973	21218
853.107	21169
853.242	21039
853.376	20906
853.511	20765
853.645	20819
853.78	21055
853.914	21036
854.048	20872
854.183	20899
854.317	20857
854.451	21195
854.585	20796
854.72	20918
854.854	20921
854.988	20914
855.122	20921
855.256	20902
855.39	20788
855.524	20971
855.658	20899
855.792	20971
855.926	20868
856.06	21017
856.194	20906
856.327	20842
856.461	20769
856.595	20864
856.729	20910
856.862	21032
856.996	20971
857.13	21036
857.263	20979
857.397	21024
857.53	20921
857.664	21009
857.797	21146
857.931	20994
858.064	21013
858.197	21032
858.331	20944
858.464	20933
858.597	20830
858.731	20883
858.864	20876
858.997	20933
859.13	20853
859.263	21051
859.396	20994
859.529	20910
859.662	20982
859.795	20811
859.928	20937
860.061	21142
860.194	21100
860.327	21039
860.46	20914
860.592	21043
860.725	21157
860.858	21100
860.99	20933
861.123	20842
861.256	20887
861.388	21066
861.521	21720
861.653	20785
861.786	20735
861.918	20701
862.05	20727
862.183	20849
862.315	20864
862.447	20944
862.58	20834
862.712	20625
862.844	20575
862.976	20670
863.108	20625
863.24	20891
863.372	20564
863.504	20602
863.636	20598
863.768	20674
863.9	20499
864.032	20594
864.164	20655
864.296	20678
864.428	20796
864.559	20727
864.691	20667
864.823	20720
864.954	20701
865.086	20644
865.217	20648
865.349	20473
865.48	20511
865.612	20575
865.743	20655
865.875	20571
866.006	20590
866.137	20606
866.269	20526
866.4	20492
866.531	20454
866.662	20480
866.793	20545
866.924	20457
867.055	20560
867.186	20484
867.317	20423
867.448	20400
867.579	20427
867.71	20423
867.841	20267
867.972	20499
868.103	20526
868.233	20484
868.364	20533
868.495	20644
868.625	20777
868.756	20914
868.886	20571
869.017	20667
869.147	20823
869.278	20834
869.408	20716
869.539	20773
869.669	20834
869.799	20705
869.929	20838
870.06	20842
870.19	20990
870.32	21062
870.45	21062
870.58	21089
870.71	21268
870.84	21245
870.97	21169
871.1	21226
871.23	21203
871.36	21374
871.489	21249
871.619	21355
871.749	21313
871.879	21477
872.008	21485
872.138	21325
872.267	21287
872.397	21165
872.526	21112
872.656	21287
872.785	21173
872.915	21401
873.044	21435
873.173	21340
873.303	21363
873.432	21321
873.561	21458
873.69	21363
873.819	21351
873.948	21416
874.077	21310
874.206	21302
874.335	21310
874.464	21557
874.593	21606
874.722	21583
874.851	21603
874.979	21644
875.108	21663
875.237	21534
875.365	21526
875.494	21622
875.623	21591
875.751	21667
875.88	21648
876.008	21694
876.136	21827
876.265	22070
876.393	22101
876.521	22002
876.65	22010
876.778	22048
876.906	21956
877.034	21911
877.162	22070
877.29	21953
877.418	21903
877.546	22040
877.674	22010
877.802	21979
877.93	21964
878.058	21949
878.185	21800
878.313	21804
878.441	22040
878.568	21918
878.696	21835
878.824	21960
878.951	21991
879.079	22143
879.206	22207
879.333	22154
879.461	21979
879.588	22109
879.715	22242
879.842	22226
879.97	22036
880.097	21789
880.224	21861
880.351	21831
880.478	21812
880.605	21644
880.732	21732
880.859	22010
880.986	21800
881.112	21793
881.239	21743
881.366	21485
881.493	21428
881.619	21351
881.746	21447
881.872	21275
881.999	21374
882.125	21294
882.252	21310
882.378	21439
882.505	21420
882.631	21249
882.757	21154
882.883	21226
883.01	21081
883.136	21017
883.262	20899
883.388	20899
883.514	20986
883.64	21005
883.766	21020
883.892	20785
884.018	20788
884.143	21024
884.269	21074
884.395	20857
884.52	20765
884.646	20705
884.772	20583
884.897	20537
885.023	20842
885.148	20849
885.274	20864
885.399	20868
885.524	20655
885.65	20800
885.775	20644
885.9	20792
886.025	20830
886.15	20788
886.275	20670
886.4	20663
886.525	20792
886.65	20636
886.775	20648
886.9	20644
887.025	20956
887.149	20606
887.274	20617
887.399	20518
887.523	20457
887.648	20412
887.773	20473
887.897	20621
888.021	20492
888.146	20396
888.27	20606
888.395	20522
888.519	20556
888.643	20480
888.767	20583
888.891	20442
889.015	20305
889.139	20385
889.263	20244
889.387	20495
889.511	20495
889.635	20415
889.759	20298
889.883	20358
890.006	20408
890.13	20362
890.254	20214
890.377	20233
890.501	20191
890.624	19955
890.748	20134
890.871	19906
890.995	19868
891.118	19856
891.241	19890
891.364	19887
891.488	20020
891.611	19898
891.734	19807
891.857	19936
891.98	19883
892.103	20027
892.226	19906
892.349	19883
892.471	19788
892.594	19822
892.717	19791
892.839	19818
892.962	19753
893.085	19811
893.207	19788
893.33	19776
893.452	19776
893.575	19784
893.697	19704
893.819	19894
893.941	19993
894.064	19947
894.186	19928
894.308	19708
894.43	19784
894.552	19963
894.674	19993
894.796	19681
894.918	19784
895.04	19761
895.161	19940
895.283	19708
895.405	19693
895.526	19841
895.648	19769
895.769	19868
895.891	19852
896.012	19845
896.134	19826
896.255	19845
896.376	19715
896.498	19879
896.619	19803
896.74	19750
896.861	19776
896.982	20153
897.103	20237
897.224	20122
897.345	20111
897.466	19936
897.587	20142
897.708	20210
897.828	20027
897.949	20039
898.07	19902
898.19	19959
898.311	20256
898.431	19909
898.552	20016
898.672	19993
898.792	20077
898.913	20043
899.033	19837
899.153	19871
899.273	19837
899.393	19746
899.513	19811
899.633	19776
899.753	19791
899.873	19772
899.993	19799
900.113	19822
900.232	19799
900.352	19757
900.472	19632
900.591	19533
900.711	19518
900.83	19441
900.95	19582
901.069	19578
901.189	19449
901.308	19202
901.427	19156
901.546	19061
901.665	19259
901.784	19114
901.904	18981
902.023	19012
902.141	18738
902.26	18620
902.379	18844
902.498	18642
902.617	18700
902.735	18692
902.854	18555
902.973	18551
903.091	18429
903.21	18346
903.328	18334
903.446	18323
903.565	18171
903.683	18121
903.801	18041
903.919	18155
904.038	18091
904.156	17870
904.274	18064
904.392	17954
904.51	17813
904.627	17832
904.745	17904
904.863	17946
904.981	17703
905.098	17528
905.216	17562
905.334	17532
905.451	17509
905.569	17608
905.686	17589
905.803	17547
905.921	17364
906.038	17414
906.155	17444
906.272	17254
906.389	17296
906.506	17204
906.623	17090
906.74	17128
906.857	17041
906.974	17083
907.091	17212
907.208	17326
907.324	17109
907.441	16995
907.557	16839
907.674	16862
907.79	16862
907.907	16816
908.023	16915
908.139	16949
908.256	16752
908.372	16790
908.488	16736
908.604	16577
908.72	16542
908.836	16607
908.952	16554
909.068	16664
909.184	16782
909.3	16649
909.415	16596
909.531	16508
909.647	16238
909.762	16329
909.878	16382
909.993	16360
910.108	16188
910.224	16188
910.339	16268
910.454	16169
910.57	16147
910.685	16120
910.8	16226
910.915	16242
911.03	16112
911.145	15922
911.259	15739
911.374	15899
911.489	15869
911.604	15793
911.718	15641
911.833	15568
911.947	15485
912.062	15443
912.176	15504
912.291	15686
912.405	15564
912.519	15827
912.633	15827
912.748	15610
912.862	15549
912.976	15393
913.09	15252
913.204	15466
913.318	15401
913.431	15576
913.545	15599
913.659	15622
913.772	15473
913.886	15447
914	15332
914.113	15378
914.226	15374
914.34	15317
914.453	15135
914.566	15256
914.68	15066
914.793	15138
914.906	15081
915.019	14857
915.132	14842
915.245	14739
915.358	14861
915.47	14895
915.583	14804
915.696	14979
915.809	15055
915.921	14956
916.034	14845
916.146	14727
916.259	14765
916.371	14845
916.483	14807
916.595	14724
916.708	14682
916.82	14697
916.932	14746
917.044	14697
917.156	14693
917.268	14518
917.38	14579
917.491	14575
917.603	14549
917.715	14663
917.826	14552
917.938	14377
918.049	14339
918.161	14412
918.272	14571
918.384	14594
918.495	14499
918.606	14358
918.717	14290
918.828	14332
918.939	14355
919.05	14221
919.161	14199
919.272	14100
919.383	14084
919.494	14355
919.604	14552
919.715	14259
919.826	14157
919.936	14320
920.047	14313
920.157	14343
920.267	14461
920.378	14408
920.488	14233
920.598	14396
920.708	14682
920.818	14339
920.928	14385
921.038	14533
921.148	14495
921.258	14145
921.368	14149
921.477	14043
921.587	13982
921.697	13913
921.806	13928
921.916	13917
922.025	13727
922.134	13639
922.244	13605
922.353	13715
922.462	13571
922.571	13510
922.68	13373
922.789	13339
922.898	13373
923.007	13274
923.116	13312
923.224	13335
923.333	13259
923.442	13187
923.55	13076
923.659	13152
923.767	13247
923.876	13145
923.984	13168
924.092	13012
924.201	13023
924.309	13069
924.417	12981
924.525	12886
924.633	13038
924.741	13696
924.849	12749
924.956	12901
925.064	12795
925.172	12658
925.279	12696
925.387	12821
925.494	12654
925.602	12894
925.709	12806
925.816	12654
925.924	12688
926.031	12745
926.138	12711
926.245	12734
926.352	12540
926.459	12673
926.566	12726
926.673	12597
926.779	12502
926.886	12532
926.993	12418
927.099	12365
927.206	14077
927.312	12247
927.419	12296
927.525	12330
927.631	12414
927.737	12186
927.843	12125
927.95	11984
928.056	12205
928.162	12060
928.267	12076
928.373	12711
928.479	12239
928.585	11999
928.69	12060
928.796	12064
928.901	12026
929.007	11866
929.112	12045
929.218	11923
929.323	11927
929.428	11863
929.533	11912
929.638	11783
929.743	11760
929.848	11901
929.953	11836
930.058	11703
930.163	11562
930.267	11516
930.372	11688
930.477	11505
930.581	11813
930.685	11585
930.79	11452
930.894	11558
930.998	11341
931.103	11668
931.207	11178
931.311	11045
931.415	11083
931.519	10759
931.623	10809
