Data from test_V78500241_46.txt Node
Date: Fri Mar 25 15:10:10 CST 2022
User: usil
Spectrometer: V785-0024
Trigger mode: 0
Integration Time (sec): 4.000000E-1
Scans to average: 1
Nonlinearity correction enabled: false
Boxcar width: 0
Storing dark spectrum: false
XAxis mode: Wavelengths
Number of Pixels in Spectrum: 1024
>>>>>Begin Spectral Data<<<<<
801.071	28580
801.214	28611
801.356	28516
801.499	28280
801.641	28162
801.783	28196
801.926	28432
802.068	28135
802.211	28150
802.353	27979
802.496	27861
802.638	27907
802.78	27819
802.923	27652
803.065	27698
803.208	27717
803.35	27850
803.492	27895
803.635	27956
803.777	27964
803.919	27960
804.061	28124
804.204	28063
804.346	27724
804.488	27800
804.63	27857
804.773	27785
804.915	27701
805.057	28013
805.199	27755
805.341	27892
805.483	28002
805.626	27926
805.768	27819
805.91	27964
806.052	27869
806.194	27903
806.336	28162
806.478	28032
806.62	27899
806.762	28017
806.904	28207
807.046	28337
807.188	28249
807.33	28124
807.472	28386
807.614	28325
807.756	28154
807.898	28249
808.04	28036
808.182	28109
808.324	28181
808.465	28116
808.607	28253
808.749	28375
808.891	28489
809.033	28466
809.174	28379
809.316	28333
809.458	28573
809.6	28367
809.741	28493
809.883	28481
810.025	28535
810.166	28656
810.308	28683
810.45	28630
810.591	28516
810.733	28382
810.875	28333
811.016	28253
811.158	28226
811.299	28367
811.441	28478
811.582	28497
811.724	28325
811.865	28284
812.007	28314
812.148	28314
812.29	28379
812.431	28538
812.573	28615
812.714	28637
812.855	28911
812.997	28790
813.138	29121
813.279	29064
813.421	28923
813.562	28809
813.703	28698
813.845	28485
813.986	28154
814.127	28051
814.268	27892
814.41	28021
814.551	27850
814.692	28051
814.833	27823
814.974	27778
815.115	27926
815.256	27819
815.397	27755
815.539	27679
815.68	27732
815.821	27564
815.962	27827
816.103	27564
816.244	27511
816.385	27450
816.526	27458
816.666	27195
816.807	27169
816.948	27188
817.089	27230
817.23	27100
817.371	27074
817.512	27001
817.653	27131
817.793	27058
817.934	27100
818.075	27043
818.216	27108
818.356	27020
818.497	26937
818.638	26815
818.778	26731
818.919	26788
819.06	26727
819.2	26876
819.341	27009
819.481	26929
819.622	27100
819.762	27306
819.903	27222
820.043	26994
820.184	27192
820.324	26990
820.465	27074
820.605	27131
820.746	26986
820.886	26963
821.026	27009
821.167	27001
821.307	26918
821.447	27017
821.588	26868
821.728	26670
821.868	26560
822.008	26370
822.149	26385
822.289	26309
822.429	26191
822.569	25997
822.709	26115
822.849	25978
822.99	25837
823.13	25811
823.27	25852
823.41	25780
823.55	25582
823.69	25647
823.83	25696
823.97	25616
824.11	25392
824.25	25449
824.389	25506
824.529	25441
824.669	25468
824.809	25510
824.949	25582
825.089	25430
825.228	25540
825.368	25217
825.508	25350
825.648	25289
825.787	25335
825.927	25270
826.067	25225
826.206	25057
826.346	25164
826.485	25240
826.625	25187
826.765	25221
826.904	25164
827.044	25031
827.183	24958
827.323	24688
827.462	24954
827.601	24859
827.741	24840
827.88	24951
828.02	24711
828.159	24722
828.298	24951
828.437	24703
828.577	24730
828.716	24951
828.855	24901
828.994	24608
829.134	24582
829.273	24574
829.412	24528
829.551	24388
829.69	24540
829.829	24585
829.968	24722
830.107	24635
830.246	24563
830.385	24505
830.524	24376
830.663	24330
830.802	24270
830.941	24007
831.08	23958
831.219	24148
831.357	24239
831.496	24266
831.635	24148
831.774	23939
831.913	23882
832.051	23832
832.19	23874
832.329	23798
832.467	23805
832.606	23672
832.744	23813
832.883	23634
833.022	23630
833.16	23657
833.299	23752
833.437	23802
833.576	23760
833.714	23687
833.852	23809
833.991	23684
834.129	23882
834.267	23802
834.406	23764
834.544	23646
834.682	23802
834.821	23646
834.959	23764
835.097	23611
835.235	23748
835.373	23680
835.511	23661
835.65	23543
835.788	23463
835.926	23421
836.064	23265
836.202	23376
836.34	23611
836.478	23619
836.615	23463
836.753	23459
836.891	23676
837.029	23539
837.167	23455
837.305	23334
837.443	23482
837.58	23414
837.718	23474
837.856	23433
837.993	23208
838.131	23444
838.269	23235
838.406	23349
838.544	23258
838.681	22953
838.819	22911
838.956	22679
839.094	22805
839.231	22748
839.369	22934
839.506	23284
839.643	23159
839.781	22805
839.918	22607
840.055	22668
840.193	22824
840.33	22668
840.467	22538
840.604	22748
840.742	22873
840.879	22550
841.016	22653
841.153	22527
841.29	22892
841.427	22588
841.564	22740
841.701	22672
841.838	22577
841.975	22580
842.112	22481
842.249	22299
842.385	22398
842.522	22573
842.659	22424
842.796	22333
842.933	22405
843.069	22325
843.206	22329
843.343	22367
843.479	22322
843.616	22166
843.752	22185
843.889	22287
844.025	22276
844.162	22048
844.298	22303
844.435	22032
844.571	22101
844.708	22101
844.844	22128
844.98	22272
845.117	22063
845.253	22120
845.389	21892
845.525	22032
845.661	21949
845.798	21854
845.934	21960
846.07	21637
846.206	21785
846.342	21983
846.478	21785
846.614	21557
846.75	21534
846.886	21629
847.022	21485
847.158	21595
847.294	21553
847.429	21481
847.565	21378
847.701	21648
847.837	21321
847.972	21165
848.108	21298
848.244	21408
848.379	21203
848.515	21142
848.65	21085
848.786	21096
848.921	21096
849.057	21294
849.192	21233
849.328	21085
849.463	21047
849.598	20998
849.734	20994
849.869	21020
850.004	20834
850.14	20868
850.275	20773
850.41	20823
850.545	20750
850.68	20754
850.815	20735
850.95	20762
851.085	20967
851.22	20967
851.355	20796
851.49	20823
851.625	20765
851.76	20644
851.895	20648
852.03	20720
852.165	20796
852.299	20823
852.434	20891
852.569	20819
852.703	20815
852.838	20902
852.973	20811
853.107	20891
853.242	20689
853.376	20785
853.511	20556
853.645	20682
853.78	20804
853.914	20686
854.048	20632
854.183	20594
854.317	20590
854.451	20769
854.585	20545
854.72	20602
854.854	20708
854.988	20590
855.122	20617
855.256	20492
855.39	20632
855.524	20769
855.658	20689
855.792	20564
855.926	20575
856.06	20716
856.194	20629
856.327	20606
856.461	20609
856.595	20545
856.729	20617
856.862	20735
856.996	20571
857.13	20629
857.263	20693
857.397	20629
857.53	20629
857.664	20682
857.797	20579
857.931	20667
858.064	20705
858.197	20495
858.331	20533
858.464	20484
858.597	20396
858.731	20575
858.864	20533
858.997	20446
859.13	20514
859.263	20556
859.396	20781
859.529	20507
859.662	20518
859.795	20404
859.928	20446
860.061	20598
860.194	20701
860.327	20598
860.46	20469
860.592	20644
860.725	20541
860.858	20678
860.99	20594
861.123	20423
861.256	20514
861.388	20636
861.521	21051
861.653	20476
861.786	20320
861.918	20381
862.05	20587
862.183	20461
862.315	20689
862.447	20617
862.58	20541
862.712	20358
862.844	20233
862.976	20305
863.108	20313
863.24	20758
863.372	20202
863.504	20240
863.636	20256
863.768	20381
863.9	20278
864.032	20142
864.164	20301
864.296	20252
864.428	20339
864.559	20343
864.691	20275
864.823	20180
864.954	20187
865.086	20256
865.217	20107
865.349	20073
865.48	20248
865.612	20142
865.743	20176
865.875	20100
866.006	20054
866.137	20077
866.269	20176
866.4	20084
866.531	20138
866.662	20046
866.793	19963
866.924	20020
867.055	20218
867.186	20054
867.317	20084
867.448	19974
867.579	19955
867.71	19955
867.841	19833
867.972	20073
868.103	19925
868.233	20069
868.364	20107
868.495	20202
868.625	20233
868.756	20396
868.886	20248
869.017	20248
869.147	20347
869.278	20343
869.408	20214
869.539	20256
869.669	20328
869.799	20385
869.929	20336
870.06	20438
870.19	20629
870.32	20636
870.45	20617
870.58	20754
870.71	20849
870.84	20727
870.97	20746
871.1	20541
871.23	20853
871.36	20838
871.489	20811
871.619	20773
871.749	20891
871.879	20826
872.008	21005
872.138	20899
872.267	20899
872.397	20823
872.526	20651
872.656	20674
872.785	20651
872.915	20902
873.044	20899
873.173	20845
873.303	20944
873.432	20823
873.561	21032
873.69	21020
873.819	20948
873.948	20906
874.077	20807
874.206	20838
874.335	20872
874.464	20975
874.593	21249
874.722	21081
874.851	21089
874.979	21256
875.108	21211
875.237	21081
875.365	21001
875.494	21142
875.623	21150
875.751	21173
875.88	21169
876.008	21256
876.136	21291
876.265	21679
876.393	21682
876.521	21660
876.65	21656
876.778	21591
876.906	21526
877.034	21416
877.162	21458
877.29	21447
877.418	21447
877.546	21504
877.674	21420
877.802	21477
877.93	21405
878.058	21359
878.185	21287
878.313	21435
878.441	21450
878.568	21237
878.696	21355
878.824	21374
878.951	21534
879.079	21553
879.206	21747
879.333	21618
879.461	21538
879.588	21504
879.715	21709
879.842	21797
879.97	21610
880.097	21287
880.224	21386
880.351	21439
880.478	21428
880.605	21291
880.732	21325
880.859	21568
880.986	21393
881.112	21389
881.239	21188
881.366	21070
881.493	21116
881.619	20868
881.746	21081
881.872	20861
881.999	20891
882.125	20929
882.252	20925
882.378	20876
882.505	21055
882.631	20815
882.757	20617
882.883	20762
883.01	20602
883.136	20667
883.262	20522
883.388	20575
883.514	20590
883.64	20743
883.766	20579
883.892	20313
884.018	20484
884.143	20663
884.269	20678
884.395	20358
884.52	20309
884.646	20278
884.772	20294
884.897	20077
885.023	20252
885.148	20412
885.274	20511
885.399	20427
885.524	20305
885.65	20267
885.775	20381
885.9	20233
886.025	20351
886.15	20263
886.275	20229
886.4	20187
886.525	20259
886.65	20183
886.775	20225
886.9	20480
887.025	20412
887.149	20202
887.274	20077
887.399	20046
887.523	20008
887.648	20046
887.773	19944
887.897	20233
888.021	20058
888.146	19921
888.27	20031
888.395	20145
888.519	20012
888.643	20058
888.767	20039
888.891	20058
889.015	19765
889.139	19909
889.263	19894
889.387	19906
889.511	20050
889.635	19875
889.759	19765
889.883	19807
890.006	19780
890.13	19868
890.254	19753
890.377	19765
890.501	19544
890.624	19388
890.748	19632
890.871	19441
890.995	19362
891.118	19381
891.241	19415
891.364	19396
891.488	19597
891.611	19419
891.734	19445
891.857	19487
891.98	19434
892.103	19521
892.226	19445
892.349	19320
892.471	19217
892.594	19419
892.717	19403
892.839	19358
892.962	19236
893.085	19346
893.207	19384
893.33	19110
893.452	19285
893.575	19369
893.697	19327
893.819	19483
893.941	19552
894.064	19384
894.186	19225
894.308	19217
894.43	19415
894.552	19495
894.674	19381
894.796	19202
894.918	19350
895.04	19304
895.161	19343
895.283	19426
895.405	19304
895.526	19346
895.648	19274
895.769	19377
895.891	19320
896.012	19373
896.134	19320
896.255	19438
896.376	19460
896.498	19365
896.619	19354
896.74	19377
896.861	19422
896.982	19704
897.103	19791
897.224	19731
897.345	19594
897.466	19567
897.587	19609
897.708	19655
897.828	19632
897.949	19533
898.07	19411
898.19	19419
898.311	19734
898.431	19495
898.552	19521
898.672	19578
898.792	19582
898.913	19559
899.033	19354
899.153	19312
899.273	19213
899.393	19293
899.513	19263
899.633	19320
899.753	19190
899.873	19206
899.993	19316
900.113	19221
900.232	19266
900.352	19129
900.472	19129
900.591	19038
900.711	19133
900.83	18897
900.95	19141
901.069	19228
901.189	19004
901.308	18844
901.427	18764
901.546	18707
901.665	18681
901.784	18696
901.904	18593
902.023	18437
902.141	18144
902.26	18251
902.379	18281
902.498	18068
902.617	18068
902.735	18243
902.854	18038
902.973	17992
903.091	17897
903.21	17874
903.328	17836
903.446	17756
903.565	17710
903.683	17668
903.801	17551
903.919	17627
904.038	17703
904.156	17391
904.274	17608
904.392	17493
904.51	17406
904.627	17387
904.745	17474
904.863	17452
904.981	17208
905.098	17124
905.216	17166
905.334	17041
905.451	17113
905.569	17140
905.686	17094
905.803	17124
905.921	16831
906.038	16953
906.155	16953
906.272	16771
906.389	16759
906.506	16679
906.623	16664
906.74	16645
906.857	16489
906.974	16504
907.091	16660
907.208	16767
907.324	16656
907.441	16519
907.557	16333
907.674	16432
907.79	16348
907.907	16257
908.023	16337
908.139	16386
908.256	16276
908.372	16196
908.488	16238
908.604	16063
908.72	15911
908.836	16135
908.952	15998
909.068	16048
909.184	16013
909.3	15895
909.415	16055
909.531	16097
909.647	15797
909.762	15728
909.878	15781
909.993	15743
910.108	15713
910.224	15736
910.339	15667
910.454	15523
910.57	15599
910.685	15507
910.8	15633
910.915	15671
911.03	15481
911.145	15389
911.259	15336
911.374	15317
911.489	15241
911.604	15123
911.718	15020
911.833	15017
911.947	15009
912.062	14883
912.176	15055
912.291	15001
912.405	15058
912.519	15313
912.633	15203
912.748	15009
912.862	15020
912.976	15001
913.09	14762
913.204	14705
913.318	14876
913.431	14918
913.545	14956
913.659	14929
913.772	14811
913.886	14693
914	14720
914.113	14796
914.226	14693
914.34	14735
914.453	14568
914.566	14693
914.68	14571
914.793	14587
914.906	14332
915.019	14324
915.132	14256
915.245	14347
915.358	14317
915.47	14309
915.583	14404
915.696	14332
915.809	14469
915.921	14442
916.034	14282
916.146	14149
916.259	14180
916.371	14298
916.483	14229
916.595	14202
916.708	14282
916.82	14134
916.932	14153
917.044	14168
917.156	14062
917.268	13955
917.38	14008
917.491	14027
917.603	14016
917.715	14027
917.826	14161
917.938	13936
918.049	13845
918.161	14005
918.272	14069
918.384	14043
918.495	13989
918.606	13830
918.717	13700
918.828	13890
918.939	13845
919.05	13636
919.161	13746
919.272	13453
919.383	13636
919.494	13879
919.604	14008
919.715	13719
919.826	13670
919.936	13708
920.047	13833
920.157	13738
920.267	13837
920.378	13753
920.488	13563
920.598	13890
920.708	13951
920.818	13883
920.928	13799
921.038	14024
921.148	13955
921.258	13563
921.368	13540
921.477	13472
921.587	13430
921.697	13297
921.806	13499
921.916	13373
922.025	13168
922.134	13133
922.244	13031
922.353	13183
922.462	13000
922.571	13008
922.68	12837
922.789	12681
922.898	12795
923.007	12741
923.116	12852
923.224	12760
923.333	12673
923.442	12570
923.55	12582
923.659	12601
923.767	12650
923.876	12536
923.984	12631
924.092	12578
924.201	12589
924.309	12490
924.417	12456
924.525	12471
924.633	12509
924.741	13274
924.849	12296
924.956	12452
925.064	12254
925.172	12171
925.279	12182
925.387	12262
925.494	12292
925.602	12426
925.709	12194
925.816	12144
925.924	12133
926.031	12319
926.138	12171
926.245	12262
926.352	12167
926.459	12159
926.566	12258
926.673	12114
926.779	11969
926.886	11958
926.993	11821
927.099	11847
927.206	11745
927.312	11851
927.419	11863
927.525	11805
927.631	11764
927.737	11783
927.843	11672
927.95	11573
928.056	11649
928.162	11684
928.267	11684
928.373	12330
928.479	11733
928.585	11577
928.69	11680
928.796	11627
928.901	11376
929.007	11345
929.112	11520
929.218	11417
929.323	11360
929.428	11417
929.533	11493
929.638	11299
929.743	11395
929.848	11471
929.953	11383
930.058	11212
930.163	11121
930.267	11124
930.372	11242
930.477	10961
930.581	11330
930.685	11193
930.79	10877
930.894	11025
930.998	10927
931.103	11018
931.207	10634
931.311	10698
931.415	10542
931.519	10329
931.623	10341
