Data from test_V78500241_2044.txt Node
Date: Fri Mar 25 15:24:05 CST 2022
User: usil
Spectrometer: V785-0024
Trigger mode: 0
Integration Time (sec): 4.000000E-1
Scans to average: 1
Nonlinearity correction enabled: false
Boxcar width: 0
Storing dark spectrum: false
XAxis mode: Wavelengths
Number of Pixels in Spectrum: 1024
>>>>>Begin Spectral Data<<<<<
801.071	27827
801.214	27599
801.356	27492
801.499	27344
801.641	27389
801.783	27405
801.926	27370
802.068	27336
802.211	27157
802.353	27108
802.496	26975
802.638	26899
802.78	26895
802.923	26861
803.065	26857
803.208	26819
803.35	26994
803.492	27119
803.635	27100
803.777	27047
803.919	27154
804.061	27424
804.204	27161
804.346	27077
804.488	27112
804.63	27207
804.773	26895
804.915	27180
805.057	27275
805.199	27157
805.341	27241
805.483	27348
805.626	27279
805.768	27180
805.91	27336
806.052	27370
806.194	27310
806.336	27496
806.478	27367
806.62	27310
806.762	27408
806.904	27618
807.046	27823
807.188	27686
807.33	27644
807.472	27800
807.614	27576
807.756	27603
807.898	27694
808.04	27488
808.182	27622
808.324	27637
808.465	27694
808.607	27819
808.749	27865
808.891	27941
809.033	27983
809.174	28051
809.316	27865
809.458	27884
809.6	27914
809.741	28067
809.883	28021
810.025	28299
810.166	28185
810.308	28223
810.45	28196
810.591	28116
810.733	27827
810.875	27869
811.016	27926
811.158	27747
811.299	27991
811.441	28249
811.582	28048
811.724	27899
811.865	27800
812.007	28002
812.148	27850
812.29	27934
812.431	28051
812.573	28329
812.714	28363
812.855	28360
812.997	28603
813.138	28649
813.279	28584
813.421	28325
813.562	28466
813.703	28261
813.845	28059
813.986	27766
814.127	27698
814.268	27492
814.41	27641
814.551	27561
814.692	27641
814.833	27755
814.974	27614
815.115	27663
815.256	27500
815.397	27511
815.539	27447
815.68	27370
815.821	27298
815.962	27287
816.103	27466
816.244	27298
816.385	27146
816.526	27119
816.666	26861
816.807	26857
816.948	26975
817.089	26918
817.23	26910
817.371	26899
817.512	26807
817.653	26727
817.793	26872
817.934	26815
818.075	26914
818.216	26895
818.356	27017
818.497	26830
818.638	26598
818.778	26674
818.919	26602
819.06	26598
819.2	26857
819.341	26952
819.481	26937
819.622	27039
819.762	27218
819.903	27032
820.043	27131
820.184	26933
820.324	26906
820.465	27074
820.605	27020
820.746	26921
820.886	26792
821.026	26982
821.167	26933
821.307	26940
821.447	26769
821.588	26659
821.728	26689
821.868	26575
822.008	26427
822.149	26415
822.289	26396
822.429	26088
822.569	26073
822.709	25966
822.849	25902
822.99	25788
823.13	25913
823.27	25677
823.41	25712
823.55	25620
823.69	25746
823.83	25620
823.97	25700
824.11	25438
824.25	25445
824.389	25472
824.529	25525
824.669	25457
824.809	25651
824.949	25445
825.089	25548
825.228	25514
825.368	25373
825.508	25259
825.648	25354
825.787	25415
825.927	25430
826.067	25251
826.206	25270
826.346	25403
826.485	25430
826.625	25244
826.765	25491
826.904	25369
827.044	25160
827.183	25232
827.323	25027
827.462	25084
827.601	24935
827.741	25126
827.88	25133
828.02	24977
828.159	25133
828.298	25053
828.437	25084
828.577	25057
828.716	25145
828.855	24935
828.994	24692
829.134	24814
829.273	24787
829.412	24741
829.551	24673
829.69	24661
829.829	24677
829.968	24871
830.107	24741
830.246	24688
830.385	24738
830.524	24772
830.663	24540
830.802	24285
830.941	24323
831.08	24338
831.219	24525
831.357	24559
831.496	24540
831.635	24353
831.774	24342
831.913	24327
832.051	24262
832.19	24163
832.329	24178
832.467	24098
832.606	24022
832.744	23916
832.883	24114
833.022	24129
833.16	24102
833.299	24095
833.437	24053
833.576	24205
833.714	24186
833.852	24098
833.991	24140
834.129	24232
834.267	24167
834.406	24114
834.544	24144
834.682	24064
834.821	24072
834.959	24376
835.097	24106
835.235	24171
835.373	24003
835.511	24049
835.65	23866
835.788	24045
835.926	23885
836.064	23874
836.202	23802
836.34	23843
836.478	24022
836.615	23805
836.753	23973
836.891	23863
837.029	23996
837.167	23908
837.305	23836
837.443	23866
837.58	23790
837.718	23935
837.856	23809
837.993	23767
838.131	23908
838.269	23589
838.406	23623
838.544	23524
838.681	23425
838.819	23406
838.956	23220
839.094	23277
839.231	23318
839.369	23414
839.506	23604
839.643	23463
839.781	23383
839.918	23189
840.055	23227
840.193	23189
840.33	23098
840.467	23231
840.604	23208
840.742	23581
840.879	22965
841.016	23022
841.153	23048
841.29	23124
841.427	23197
841.564	23178
841.701	23117
841.838	23159
841.975	22904
842.112	23037
842.249	23071
842.385	22812
842.522	23025
842.659	22938
842.796	22987
842.933	22984
843.069	22896
843.206	22919
843.343	22957
843.479	22927
843.616	22953
843.752	22869
843.889	22763
844.025	22820
844.162	22706
844.298	22809
844.435	22668
844.571	22660
844.708	22653
844.844	23010
844.98	22968
845.117	22683
845.253	22683
845.389	22527
845.525	22596
845.661	22660
845.798	22478
845.934	22485
846.07	22417
846.206	22470
846.342	22561
846.478	22386
846.614	22234
846.75	22154
846.886	22246
847.022	22211
847.158	22211
847.294	22109
847.429	22200
847.565	22097
847.701	22390
847.837	21922
847.972	21888
848.108	21953
848.244	22021
848.379	21793
848.515	21686
848.65	21751
848.786	21850
848.921	21793
849.057	21842
849.192	21857
849.328	21724
849.463	21823
849.598	21717
849.734	21633
849.869	21667
850.004	21496
850.14	21561
850.275	21466
850.41	21454
850.545	21466
850.68	21462
850.815	21488
850.95	21549
851.085	21724
851.22	21610
851.355	21431
851.49	21500
851.625	21370
851.76	21534
851.895	21424
852.03	21534
852.165	21599
852.299	21507
852.434	21549
852.569	21538
852.703	21523
852.838	21500
852.973	21641
853.107	21564
853.242	21416
853.376	21294
853.511	21192
853.645	21214
853.78	21428
853.914	21393
854.048	21298
854.183	21378
854.317	21374
854.451	21420
854.585	21382
854.72	21374
854.854	21332
854.988	21211
855.122	21298
855.256	21176
855.39	21359
855.524	21462
855.658	21401
855.792	21431
855.926	21401
856.06	21382
856.194	21336
856.327	21298
856.461	21218
856.595	21203
856.729	21317
856.862	21428
856.996	21275
857.13	21416
857.263	21386
857.397	21477
857.53	21306
857.664	21408
857.797	21424
857.931	21450
858.064	21336
858.197	21351
858.331	21340
858.464	21298
858.597	21218
858.731	21378
858.864	21275
858.997	21264
859.13	21393
859.263	21393
859.396	21291
859.529	21351
859.662	21237
859.795	21401
859.928	21363
860.061	21370
860.194	21542
860.327	21317
860.46	21294
860.592	21420
860.725	21473
860.858	21408
860.99	21287
861.123	21169
861.256	21195
861.388	21329
861.521	22067
861.653	21256
861.786	21199
861.918	21233
862.05	21264
862.183	21203
862.315	21321
862.447	21310
862.58	21370
862.712	20944
862.844	21024
862.976	21108
863.108	21116
863.24	21393
863.372	20994
863.504	21005
863.636	21024
863.768	21165
863.9	21146
864.032	21005
864.164	20937
864.296	21051
864.428	21157
864.559	21176
864.691	21058
864.823	21001
864.954	21074
865.086	20963
865.217	21089
865.349	20811
865.48	20921
865.612	20929
865.743	21043
865.875	20960
866.006	20906
866.137	20895
866.269	20921
866.4	20933
866.531	20967
866.662	20842
866.793	20762
866.924	20823
867.055	20857
867.186	20941
867.317	20807
867.448	20868
867.579	20857
867.71	20765
867.841	20659
867.972	20914
868.103	20876
868.233	20876
868.364	20849
868.495	20956
868.625	21093
868.756	21176
868.886	20941
869.017	21085
869.147	21192
869.278	21252
869.408	21161
869.539	21093
869.669	21180
869.799	21146
869.929	21279
870.06	21226
870.19	21500
870.32	21416
870.45	21614
870.58	21538
870.71	21724
870.84	21564
870.97	21488
871.1	21561
871.23	21675
871.36	21766
871.489	21747
871.619	21671
871.749	21675
871.879	21728
872.008	21713
872.138	21800
872.267	21622
872.397	21568
872.526	21538
872.656	21595
872.785	21515
872.915	21595
873.044	21873
873.173	21766
873.303	21816
873.432	21804
873.561	21816
873.69	21785
873.819	21766
873.948	21922
874.077	21698
874.206	21705
874.335	21827
874.464	21918
874.593	22070
874.722	21918
874.851	22158
874.979	21979
875.108	22177
875.237	21941
875.365	22013
875.494	21941
875.623	21983
875.751	21895
875.88	22093
876.008	22105
876.136	22284
876.265	22436
876.393	22561
876.521	22394
876.65	22451
876.778	22325
876.906	22291
877.034	22386
877.162	22470
877.29	22333
877.418	22409
877.546	22390
877.674	22306
877.802	22310
877.93	22280
878.058	22322
878.185	22120
878.313	22249
878.441	22360
878.568	22070
878.696	22280
878.824	22337
878.951	22478
879.079	22508
879.206	22672
879.333	22512
879.461	22333
879.588	22428
879.715	22542
879.842	22596
879.97	22409
880.097	22082
880.224	22181
880.351	22196
880.478	22093
880.605	22036
880.732	22082
880.859	22284
880.986	22234
881.112	22109
881.239	21960
881.366	21956
881.493	21778
881.619	21789
881.746	21797
881.872	21698
881.999	21816
882.125	21542
882.252	21698
882.378	21755
882.505	21838
882.631	21568
882.757	21496
882.883	21466
883.01	21420
883.136	21458
883.262	21325
883.388	21150
883.514	21435
883.64	21416
883.766	21336
883.892	21195
884.018	21199
884.143	21393
884.269	21500
884.395	21055
884.52	20948
884.646	21142
884.772	20994
884.897	20990
885.023	21070
885.148	21169
885.274	21108
885.399	21214
885.524	21024
885.65	21081
885.775	21093
885.9	20990
886.025	21199
886.15	21100
886.275	20918
886.4	20979
886.525	21066
886.65	21020
886.775	20952
886.9	21188
887.025	21188
887.149	21017
887.274	20887
887.399	20834
887.523	20788
887.648	20750
887.773	20701
887.897	20971
888.021	20826
888.146	20785
888.27	20963
888.395	20986
888.519	20918
888.643	20807
888.767	20967
888.891	20724
889.015	20640
889.139	20644
889.263	20598
889.387	20754
889.511	20773
889.635	20819
889.759	20587
889.883	20583
890.006	20617
890.13	20754
890.254	20526
890.377	20476
890.501	20400
890.624	20351
890.748	20389
890.871	20298
890.995	20145
891.118	20191
891.241	20195
891.364	20244
891.488	20343
891.611	20286
891.734	20210
891.857	20305
891.98	20202
892.103	20313
892.226	20153
892.349	20103
892.471	20062
892.594	20164
892.717	20142
892.839	20142
892.962	20024
893.085	20183
893.207	20134
893.33	19887
893.452	20050
893.575	20183
893.697	20012
893.819	20309
893.941	20244
894.064	20278
894.186	20058
894.308	20050
894.43	20161
894.552	20275
894.674	20077
894.796	20027
894.918	20122
895.04	20088
895.161	20149
895.283	20122
895.405	20100
895.526	20145
895.648	20050
895.769	20088
895.891	20073
896.012	20176
896.134	20107
896.255	20126
896.376	20168
896.498	20107
896.619	20096
896.74	20134
896.861	20161
896.982	20396
897.103	20541
897.224	20366
897.345	20290
897.466	20191
897.587	20351
897.708	20377
897.828	20431
897.949	20240
898.07	20199
898.19	20294
898.311	20393
898.431	20298
898.552	20400
898.672	20408
898.792	20366
898.913	20351
899.033	20294
899.153	20122
899.273	20130
899.393	20073
899.513	20084
899.633	19925
899.753	20107
899.873	20054
899.993	20024
900.113	19868
900.232	20145
900.352	20031
900.472	19921
900.591	19818
900.711	19849
900.83	19799
900.95	20016
901.069	19936
901.189	19799
901.308	19635
901.427	19411
901.546	19472
901.665	19388
901.784	19415
901.904	19209
902.023	19228
902.141	18947
902.26	19034
902.379	19137
902.498	18878
902.617	18890
902.735	18894
902.854	18886
902.973	18928
903.091	18620
903.21	18566
903.328	18700
903.446	18597
903.565	18342
903.683	18452
903.801	18361
903.919	18414
904.038	18384
904.156	18194
904.274	18338
904.392	18197
904.51	18178
904.627	18167
904.745	18213
904.863	18254
904.981	17999
905.098	17946
905.216	17783
905.334	17912
905.451	17927
905.569	17764
905.686	17927
905.803	17923
905.921	17665
906.038	17779
906.155	17592
906.272	17653
906.389	17600
906.506	17368
906.623	17490
906.74	17406
906.857	17303
906.974	17318
907.091	17391
907.208	17539
907.324	17414
907.441	17433
907.557	17083
907.674	17132
907.79	17083
907.907	17090
908.023	17132
908.139	17220
908.256	16957
908.372	17067
908.488	16991
908.604	16908
908.72	16892
908.836	16869
908.952	16763
909.068	16698
909.184	16915
909.3	16729
909.415	16850
909.531	16828
909.647	16512
909.762	16504
909.878	16500
909.993	16436
910.108	16485
910.224	16493
910.339	16542
910.454	16375
910.57	16363
910.685	16188
910.8	16538
910.915	16459
911.03	16272
911.145	16196
911.259	16188
911.374	16105
911.489	16131
911.604	15994
911.718	15964
911.833	15838
911.947	15838
912.062	15625
912.176	15808
912.291	15739
912.405	15823
912.519	16006
912.633	16044
912.748	15888
912.862	15835
912.976	15701
913.09	15584
913.204	15694
913.318	15785
913.431	15812
913.545	15766
913.659	15857
913.772	15572
913.886	15587
914	15450
914.113	15549
914.226	15648
914.34	15584
914.453	15355
914.566	15618
914.68	15431
914.793	15382
914.906	15188
915.019	15154
915.132	15062
915.245	15169
915.358	15112
915.47	15233
915.583	15173
915.696	15180
915.809	15279
915.921	15233
916.034	15009
916.146	15024
916.259	14963
916.371	15131
916.483	15028
916.595	15009
916.708	14910
916.82	14876
916.932	14906
917.044	14960
917.156	14804
917.268	14735
917.38	14773
917.491	14686
917.603	14792
917.715	14861
917.826	14807
917.938	14716
918.049	14537
918.161	14693
918.272	14777
918.384	14887
918.495	14655
918.606	14594
918.717	14450
918.828	14473
918.939	14556
919.05	14412
919.161	14461
919.272	14324
919.383	14324
919.494	14495
919.604	14724
919.715	14503
919.826	14438
919.936	14454
920.047	14575
920.157	14389
920.267	14659
920.378	14442
920.488	14511
920.598	14636
920.708	14785
920.818	14571
920.928	14575
921.038	14872
921.148	14754
921.258	14431
921.368	14339
921.477	14278
921.587	14202
921.697	14096
921.806	14214
921.916	14012
922.025	13932
922.134	13765
922.244	13864
922.353	13890
922.462	13712
922.571	13674
922.68	13483
922.789	13499
922.898	13544
923.007	13457
923.116	13518
923.224	13468
923.333	13548
923.442	13266
923.55	13308
923.659	13388
923.767	13430
923.876	13331
923.984	13438
924.092	13247
924.201	13266
924.309	13156
924.417	13236
924.525	13118
924.633	13114
924.741	13917
924.849	13000
924.956	13160
925.064	12977
925.172	12886
925.279	12833
925.387	13008
925.494	12989
925.602	13046
925.709	12943
925.816	12867
925.924	12890
926.031	12875
926.138	12753
926.245	12924
926.352	12817
926.459	12901
926.566	12939
926.673	12734
926.779	12696
926.886	12696
926.993	12559
927.099	12509
927.206	12528
927.312	12418
927.419	12506
927.525	12486
927.631	12433
927.737	12437
927.843	12338
927.95	12239
928.056	12281
928.162	12376
928.267	12319
928.373	12947
928.479	12380
928.585	12144
928.69	12182
928.796	12258
928.901	12182
929.007	12026
929.112	12194
929.218	12121
929.323	12087
929.428	11973
929.533	12171
929.638	11980
929.743	11950
929.848	12030
929.953	11999
930.058	11817
930.163	11745
930.267	11783
930.372	11904
930.477	11684
930.581	11977
930.685	11710
930.79	11608
930.894	11611
930.998	11562
931.103	11802
931.207	11425
931.311	11277
931.415	11166
931.519	11010
931.623	10995
