Data from test_V78500241_1937.txt Node
Date: Fri Mar 25 15:23:20 CST 2022
User: usil
Spectrometer: V785-0024
Trigger mode: 0
Integration Time (sec): 4.000000E-1
Scans to average: 1
Nonlinearity correction enabled: false
Boxcar width: 0
Storing dark spectrum: false
XAxis mode: Wavelengths
Number of Pixels in Spectrum: 1024
>>>>>Begin Spectral Data<<<<<
801.071	27625
801.214	27610
801.356	27230
801.499	27287
801.641	27085
801.783	27138
801.926	27298
802.068	27096
802.211	27123
802.353	27005
802.496	26864
802.638	26834
802.78	26868
802.923	26689
803.065	26773
803.208	26686
803.35	26872
803.492	26876
803.635	26956
803.777	26937
803.919	26899
804.061	27192
804.204	27047
804.346	26880
804.488	26895
804.63	26899
804.773	26975
804.915	27032
805.057	27043
805.199	27013
805.341	27089
805.483	27112
805.626	27123
805.768	27051
805.91	27081
806.052	27161
806.194	27047
806.336	27256
806.478	27131
806.62	27005
806.762	27119
806.904	27382
807.046	27564
807.188	27485
807.33	27580
807.472	27591
807.614	27496
807.756	27496
807.898	27329
808.04	27313
808.182	27268
808.324	27279
808.465	27310
808.607	27663
808.749	27679
808.891	27610
809.033	27960
809.174	27732
809.316	27755
809.458	27610
809.6	27732
809.741	27857
809.883	27823
810.025	27926
810.166	27922
810.308	27960
810.45	27895
810.591	27895
810.733	27644
810.875	27823
811.016	27660
811.158	27523
811.299	27709
811.441	27895
811.582	27835
811.724	27755
811.865	27625
812.007	27667
812.148	27743
812.29	27770
812.431	27945
812.573	28040
812.714	28185
812.855	28219
812.997	28348
813.138	28386
813.279	28154
813.421	28166
813.562	28139
813.703	28112
813.845	27914
813.986	27591
814.127	27420
814.268	27306
814.41	27431
814.551	27302
814.692	27454
814.833	27382
814.974	27294
815.115	27351
815.256	27268
815.397	27233
815.539	27199
815.68	27169
815.821	26979
815.962	27104
816.103	27184
816.244	27150
816.385	26895
816.526	26944
816.666	26918
816.807	26625
816.948	26636
817.089	26815
817.23	26724
817.371	26659
817.512	26735
817.653	26632
817.793	26629
817.934	26583
818.075	26701
818.216	26651
818.356	26598
818.497	26526
818.638	26366
818.778	26396
818.919	26400
819.06	26522
819.2	26659
819.341	26644
819.481	26640
819.622	26807
819.762	26861
819.903	26853
820.043	26819
820.184	26819
820.324	26773
820.465	26933
820.605	26796
820.746	26651
820.886	26648
821.026	26743
821.167	26587
821.307	26796
821.447	26705
821.588	26590
821.728	26347
821.868	26374
822.008	26370
822.149	26126
822.289	26115
822.429	25898
822.569	25871
822.709	25833
822.849	25731
822.99	25719
823.13	25757
823.27	25582
823.41	25514
823.55	25403
823.69	25518
823.83	25525
823.97	25388
824.11	25274
824.25	25255
824.389	25225
824.529	25289
824.669	25190
824.809	25426
824.949	25369
825.089	25430
825.228	25354
825.368	25194
825.508	25126
825.648	25171
825.787	25168
825.927	25324
826.067	25160
826.206	25122
826.346	25278
826.485	25080
826.625	25053
826.765	25457
826.904	25190
827.044	24840
827.183	25072
827.323	24859
827.462	25012
827.601	24905
827.741	24863
827.88	25000
828.02	24928
828.159	24867
828.298	24909
828.437	24867
828.577	24871
828.716	25088
828.855	24821
828.994	24559
829.134	24772
829.273	24623
829.412	24646
829.551	24673
829.69	24578
829.829	24623
829.968	24696
830.107	24696
830.246	24684
830.385	24494
830.524	24483
830.663	24407
830.802	24384
830.941	24205
831.08	24163
831.219	24300
831.357	24209
831.496	24528
831.635	24159
831.774	24251
831.913	24038
832.051	24011
832.19	24114
832.329	24114
832.467	23920
832.606	23863
832.744	23824
832.883	23866
833.022	23840
833.16	23889
833.299	23935
833.437	23942
833.576	23931
833.714	24007
833.852	23958
833.991	23923
834.129	24095
834.267	23984
834.406	24049
834.544	24018
834.682	23954
834.821	23927
834.959	24129
835.097	23912
835.235	24053
835.373	23935
835.511	24026
835.65	23866
835.788	23847
835.926	23657
836.064	23573
836.202	23551
836.34	23726
836.478	23984
836.615	23661
836.753	23771
836.891	23870
837.029	23863
837.167	23756
837.305	23745
837.443	23661
837.58	23581
837.718	23680
837.856	23672
837.993	23668
838.131	23619
838.269	23528
838.406	23592
838.544	23486
838.681	23334
838.819	23395
838.956	23086
839.094	23223
839.231	23223
839.369	23368
839.506	23554
839.643	23349
839.781	23136
839.918	23071
840.055	23170
840.193	23105
840.33	23052
840.467	23022
840.604	23056
840.742	23376
840.879	22896
841.016	22946
841.153	23052
841.29	23094
841.427	23109
841.564	23052
841.701	23006
841.838	22995
841.975	22858
842.112	23037
842.249	22759
842.385	22934
842.522	22980
842.659	22755
842.796	22771
842.933	22881
843.069	22759
843.206	22801
843.343	22744
843.479	22793
843.616	22854
843.752	22531
843.889	22523
844.025	22668
844.162	22573
844.298	22531
844.435	22580
844.571	22573
844.708	22622
844.844	22725
844.98	22820
845.117	22611
845.253	22554
845.389	22462
845.525	22538
845.661	22451
845.798	22371
845.934	22310
846.07	22188
846.206	22238
846.342	22481
846.478	22169
846.614	22139
846.75	21987
846.886	22013
847.022	22093
847.158	22086
847.294	22021
847.429	21926
847.565	22032
847.701	22276
847.837	21762
847.972	21705
848.108	21899
848.244	21880
848.379	21682
848.515	21572
848.65	21587
848.786	21637
848.921	21599
849.057	21701
849.192	21762
849.328	21614
849.463	21523
849.598	21481
849.734	21682
849.869	21473
850.004	21454
850.14	21488
850.275	21329
850.41	21332
850.545	21321
850.68	21291
850.815	21473
850.95	21450
851.085	21606
851.22	21526
851.355	21504
851.49	21378
851.625	21355
851.76	21370
851.895	21367
852.03	21275
852.165	21431
852.299	21370
852.434	21515
852.569	21485
852.703	21397
852.838	21393
852.973	21526
853.107	21401
853.242	21340
853.376	21176
853.511	21241
853.645	21283
853.78	21378
853.914	21233
854.048	21180
854.183	21203
854.317	21264
854.451	21389
854.585	21211
854.72	21184
854.854	21306
854.988	21135
855.122	21138
855.256	21112
855.39	21252
855.524	21264
855.658	21222
855.792	21233
855.926	21127
856.06	21374
856.194	21321
856.327	21150
856.461	21074
856.595	21294
856.729	21233
856.862	21325
856.996	21283
857.13	21298
857.263	21355
857.397	21245
857.53	21192
857.664	21268
857.797	21302
857.931	21351
858.064	21214
858.197	21332
858.331	21192
858.464	21272
858.597	21066
858.731	21199
858.864	21131
858.997	21199
859.13	21211
859.263	21203
859.396	21192
859.529	21195
859.662	21207
859.795	21195
859.928	21173
860.061	21439
860.194	21310
860.327	21252
860.46	21169
860.592	21310
860.725	21287
860.858	21412
860.99	21192
861.123	21142
861.256	21043
861.388	21298
861.521	21797
861.653	20990
861.786	21036
861.918	21077
862.05	20967
862.183	20960
862.315	21157
862.447	21214
862.58	21207
862.712	21024
862.844	20845
862.976	20849
863.108	21066
863.24	21355
863.372	20883
863.504	20971
863.636	20914
863.768	21039
863.9	20914
864.032	20861
864.164	20891
864.296	20902
864.428	21032
864.559	20937
864.691	20944
864.823	20941
864.954	20883
865.086	20883
865.217	21036
865.349	20792
865.48	20830
865.612	20792
865.743	20899
865.875	20777
866.006	20785
866.137	20796
866.269	20811
866.4	20720
866.531	20663
866.662	20663
866.793	20735
866.924	20724
867.055	20765
867.186	20811
867.317	20746
867.448	20701
867.579	20754
867.71	20609
867.841	20625
867.972	20765
868.103	20720
868.233	20716
868.364	20838
868.495	20792
868.625	21093
868.756	21081
868.886	21036
869.017	21062
869.147	21036
869.278	21085
869.408	21039
869.539	20948
869.669	21112
869.799	21074
869.929	21222
870.06	21058
870.19	21374
870.32	21363
870.45	21241
870.58	21313
870.71	21462
870.84	21492
870.97	21370
871.1	21469
871.23	21583
871.36	21504
871.489	21526
871.619	21534
871.749	21671
871.879	21679
872.008	21759
872.138	21614
872.267	21542
872.397	21488
872.526	21443
872.656	21405
872.785	21435
872.915	21610
873.044	21720
873.173	21656
873.303	21694
873.432	21671
873.561	21793
873.69	21595
873.819	21644
873.948	21694
874.077	21705
874.206	21488
874.335	21606
874.464	21675
874.593	21876
874.722	21720
874.851	21880
874.979	21960
875.108	21945
875.237	21774
875.365	21663
875.494	21774
875.623	21888
875.751	21709
875.88	21781
876.008	21956
876.136	22036
876.265	22325
876.393	22310
876.521	22242
876.65	22337
876.778	22204
876.906	22265
877.034	22215
877.162	22291
877.29	22017
877.418	22200
877.546	22226
877.674	22150
877.802	22139
877.93	22265
878.058	22287
878.185	22002
878.313	22196
878.441	22010
878.568	22013
878.696	22162
878.824	22246
878.951	22261
879.079	22367
879.206	22443
879.333	22192
879.461	22173
879.588	22371
879.715	22371
879.842	22459
879.97	22242
880.097	21953
880.224	22074
880.351	22105
880.478	22051
880.605	21892
880.732	21949
880.859	22207
880.986	21926
881.112	21998
881.239	21975
881.366	21743
881.493	21705
881.619	21496
881.746	21656
881.872	21561
881.999	21534
882.125	21542
882.252	21622
882.378	21641
882.505	21759
882.631	21401
882.757	21195
882.883	21431
883.01	21329
883.136	21165
883.262	21154
883.388	21093
883.514	21363
883.64	21401
883.766	21154
883.892	20960
884.018	21074
884.143	21268
884.269	21279
884.395	20998
884.52	21009
884.646	20925
884.772	20796
884.897	20899
885.023	20929
885.148	21123
885.274	21039
885.399	21100
885.524	20948
885.65	21058
885.775	20990
885.9	21009
886.025	21058
886.15	20994
886.275	20899
886.4	20773
886.525	20986
886.65	20902
886.775	20876
886.9	20880
887.025	21017
887.149	20857
887.274	20724
887.399	20746
887.523	20739
887.648	20625
887.773	20571
887.897	20842
888.021	20701
888.146	20655
888.27	20746
888.395	20777
888.519	20689
888.643	20887
888.767	20648
888.891	20571
889.015	20495
889.139	20503
889.263	20438
889.387	20575
889.511	20659
889.635	20579
889.759	20434
889.883	20358
890.006	20503
890.13	20651
890.254	20427
890.377	20355
890.501	20259
890.624	20271
890.748	20248
890.871	20267
890.995	19970
891.118	19944
891.241	20100
891.364	20016
891.488	20134
891.611	20096
891.734	20149
891.857	20058
891.98	20153
892.103	20088
892.226	20065
892.349	20065
892.471	19799
892.594	20050
892.717	20092
892.839	19898
892.962	19875
893.085	19986
893.207	20088
893.33	19928
893.452	19932
893.575	19963
893.697	19879
893.819	20050
893.941	20210
894.064	20039
894.186	19849
894.308	19967
894.43	19970
894.552	20065
894.674	20043
894.796	19879
894.918	19951
895.04	19986
895.161	19989
895.283	20100
895.405	19898
895.526	20046
895.648	19925
895.769	19887
895.891	19978
896.012	20088
896.134	19997
896.255	19913
896.376	19997
896.498	20043
896.619	20046
896.74	19974
896.861	20035
896.982	20294
897.103	20381
897.224	20370
897.345	20218
897.466	20081
897.587	20191
897.708	20149
897.828	20244
897.949	20180
898.07	20020
898.19	20168
898.311	20206
898.431	20248
898.552	20126
898.672	20275
898.792	20271
898.913	20164
899.033	20077
899.153	20069
899.273	19959
899.393	19970
899.513	20024
899.633	20027
899.753	19932
899.873	19868
899.993	19951
900.113	19917
900.232	19830
900.352	19928
900.472	19738
900.591	19681
900.711	19795
900.83	19712
900.95	19674
901.069	19753
901.189	19586
901.308	19346
901.427	19293
901.546	19377
901.665	19293
901.784	19346
901.904	19160
902.023	19031
902.141	18829
902.26	18935
902.379	18920
902.498	18867
902.617	18612
902.735	18897
902.854	18768
902.973	18677
903.091	18563
903.21	18555
903.328	18452
903.446	18308
903.565	18308
903.683	18334
903.801	18239
903.919	18266
904.038	18247
904.156	18038
904.274	18083
904.392	17988
904.51	18091
904.627	18182
904.745	18087
904.863	18239
904.981	17851
905.098	17779
905.216	17783
905.334	17748
905.451	17741
905.569	17592
905.686	17821
905.803	17665
905.921	17516
906.038	17615
906.155	17490
906.272	17455
906.389	17406
906.506	17292
906.623	17326
906.74	17296
906.857	17193
906.974	17239
907.091	17387
907.208	17406
907.324	17296
907.441	17181
907.557	17162
907.674	17022
907.79	17041
907.907	16915
908.023	16934
908.139	17010
908.256	16862
908.372	16793
908.488	16809
908.604	16687
908.72	16763
908.836	16771
908.952	16717
909.068	16786
909.184	16759
909.3	16748
909.415	16691
909.531	16771
909.647	16428
909.762	16398
909.878	16348
909.993	16428
910.108	16371
910.224	16440
910.339	16440
910.454	16299
910.57	16223
910.685	16158
910.8	16516
910.915	16371
911.03	16306
911.145	16025
911.259	16044
911.374	16006
911.489	15998
911.604	15972
911.718	15762
911.833	15793
911.947	15698
912.062	15625
912.176	15781
912.291	15789
912.405	15781
912.519	15865
912.633	15983
912.748	15846
912.862	15759
912.976	15679
913.09	15481
913.204	15507
913.318	15568
913.431	15705
913.545	15652
913.659	15595
913.772	15500
913.886	15496
914	15382
914.113	15500
914.226	15462
914.34	15519
914.453	15340
914.566	15351
914.68	15302
914.793	15176
914.906	15039
915.019	15043
915.132	15013
915.245	14956
915.358	15020
915.47	14941
915.583	14975
915.696	15017
915.809	15074
915.921	15135
916.034	14941
916.146	14872
916.259	14857
916.371	15020
916.483	15001
916.595	14758
916.708	14826
916.82	14807
916.932	14743
917.044	14804
917.156	14845
917.268	14670
917.38	14682
917.491	14575
917.603	14625
917.715	14773
917.826	14746
917.938	14484
918.049	14564
918.161	14549
918.272	14651
918.384	14705
918.495	14583
918.606	14457
918.717	14465
918.828	14404
918.939	14431
919.05	14263
919.161	14412
919.272	14225
919.383	14191
919.494	14415
919.604	14575
919.715	14461
919.826	14218
919.936	14282
920.047	14541
920.157	14377
920.267	14454
920.378	14396
920.488	14328
920.598	14632
920.708	14651
920.818	14541
920.928	14533
921.038	14640
921.148	14651
921.258	14434
921.368	14244
921.477	14043
921.587	14096
921.697	13970
921.806	14164
921.916	13925
922.025	13932
922.134	13723
922.244	13670
922.353	13731
922.462	13628
922.571	13487
922.68	13480
922.789	13354
922.898	13392
923.007	13381
923.116	13396
923.224	13377
923.333	13392
923.442	13407
923.55	13244
923.659	13274
923.767	13270
923.876	13129
923.984	13263
924.092	13160
924.201	13183
924.309	13061
924.417	13171
924.525	13050
924.633	13152
924.741	14016
924.849	12932
924.956	12966
925.064	12901
925.172	12738
925.279	12859
925.387	12791
925.494	12734
925.602	12966
925.709	12852
925.816	12738
925.924	12776
926.031	12875
926.138	12852
926.245	12776
926.352	12658
926.459	12776
926.566	12871
926.673	12646
926.779	12616
926.886	12597
926.993	12437
927.099	12437
927.206	12277
927.312	12399
927.419	12353
927.525	12433
927.631	12361
927.737	12334
927.843	12213
927.95	12167
928.056	12201
928.162	12197
928.267	12289
928.373	12749
928.479	12327
928.585	12026
928.69	12190
928.796	12190
928.901	12121
929.007	11885
929.112	12015
929.218	12057
929.323	11931
929.428	11882
929.533	12102
929.638	11851
929.743	11828
929.848	11942
929.953	11927
930.058	11790
930.163	11661
930.267	11726
930.372	11771
930.477	11592
930.581	11863
930.685	11756
930.79	11558
930.894	11562
930.998	11592
931.103	11619
931.207	11299
931.311	11254
931.415	11136
931.519	10942
931.623	10858
