Data from test_V78500241_2972.txt Node
Date: Fri Mar 25 15:30:33 CST 2022
User: usil
Spectrometer: V785-0024
Trigger mode: 0
Integration Time (sec): 4.000000E-1
Scans to average: 1
Nonlinearity correction enabled: false
Boxcar width: 0
Storing dark spectrum: false
XAxis mode: Wavelengths
Number of Pixels in Spectrum: 1024
>>>>>Begin Spectral Data<<<<<
801.071	27188
801.214	26982
801.356	26952
801.499	26750
801.641	26556
801.783	26750
801.926	26686
802.068	26598
802.211	26651
802.353	26602
802.496	26351
802.638	26362
802.78	26240
802.923	26172
803.065	26256
803.208	26138
803.35	26267
803.492	26381
803.635	26480
803.777	26294
803.919	26438
804.061	26750
804.204	26518
804.346	26389
804.488	26259
804.63	26476
804.773	26218
804.915	26393
805.057	26522
805.199	26507
805.341	26571
805.483	26537
805.626	26571
805.768	26408
805.91	26590
806.052	26533
806.194	26480
806.336	26583
806.478	26526
806.62	26545
806.762	26583
806.904	26785
807.046	27108
807.188	26880
807.33	26967
807.472	26982
807.614	26921
807.756	26925
807.898	26701
808.04	26785
808.182	26716
808.324	26785
808.465	26838
808.607	27024
808.749	27047
808.891	27237
809.033	27146
809.174	27249
809.316	27036
809.458	27058
809.6	27203
809.741	27222
809.883	27230
810.025	27439
810.166	27397
810.308	27401
810.45	27378
810.591	27169
810.733	27161
810.875	27157
811.016	27119
811.158	27039
811.299	27203
811.441	27374
811.582	27291
811.724	27028
811.865	27081
812.007	27005
812.148	27165
812.29	27116
812.431	27336
812.573	27367
812.714	27545
812.855	27561
812.997	27736
813.138	27728
813.279	27759
813.421	27614
813.562	27717
813.703	27427
813.845	27245
813.986	27100
814.127	26979
814.268	26815
814.41	26629
814.551	26743
814.692	26819
814.833	26682
814.974	26606
815.115	26754
815.256	26503
815.397	26636
815.539	26663
815.68	26644
815.821	26362
815.962	26724
816.103	26499
816.244	26393
816.385	26290
816.526	26313
816.666	26214
816.807	26046
816.948	26134
817.089	26046
817.23	26050
817.371	25982
817.512	26012
817.653	26050
817.793	25837
817.934	25993
818.075	26043
818.216	26100
818.356	26016
818.497	25921
818.638	25936
818.778	25685
818.919	25738
819.06	25788
819.2	25826
819.341	25887
819.481	26035
819.622	26039
819.762	26419
819.903	26278
820.043	26142
820.184	26100
820.324	26119
820.465	26187
820.605	26062
820.746	26058
820.886	25902
821.026	26027
821.167	26111
821.307	26153
821.447	25925
821.588	25947
821.728	25620
821.868	25537
822.008	25449
822.149	25396
822.289	25381
822.429	25221
822.569	25137
822.709	25141
822.849	24856
822.99	25050
823.13	24916
823.27	24905
823.41	24661
823.55	24601
823.69	24669
823.83	24791
823.97	24661
824.11	24544
824.25	24578
824.389	24601
824.529	24646
824.669	24696
824.809	24688
824.949	24817
825.089	24627
825.228	24555
825.368	24441
825.508	24407
825.648	24376
825.787	24475
825.927	24353
826.067	24441
826.206	24433
826.346	24566
826.485	24521
826.625	24391
826.765	24570
826.904	24426
827.044	24213
827.183	24197
827.323	24125
827.462	24247
827.601	24114
827.741	24174
827.88	24205
828.02	23992
828.159	24251
828.298	24346
828.437	24258
828.577	24133
828.716	24182
828.855	24095
828.994	23847
829.134	23859
829.273	23809
829.412	23775
829.551	23805
829.69	23912
829.829	23908
829.968	23927
830.107	23942
830.246	23958
830.385	23840
830.524	23687
830.663	23646
830.802	23592
830.941	23425
831.08	23512
831.219	23512
831.357	23547
831.496	23703
831.635	23337
831.774	23322
831.913	23376
832.051	23307
832.19	23273
832.329	23280
832.467	23075
832.606	23014
832.744	23128
832.883	23083
833.022	23044
833.16	23151
833.299	23124
833.437	23048
833.576	23079
833.714	23170
833.852	23303
833.991	23307
834.129	23193
834.267	23151
834.406	23181
834.544	23258
834.682	23064
834.821	23185
834.959	23334
835.097	23121
835.235	23185
835.373	23277
835.511	23136
835.65	22984
835.788	23083
835.926	22995
836.064	22953
836.202	22831
836.34	22961
836.478	23132
836.615	22923
836.753	22942
836.891	23136
837.029	23140
837.167	22938
837.305	23029
837.443	22934
837.58	22862
837.718	22930
837.856	22927
837.993	22820
838.131	22835
838.269	22713
838.406	22850
838.544	22664
838.681	22622
838.819	22584
838.956	22459
839.094	22291
839.231	22398
839.369	22573
839.506	22778
839.643	22504
839.781	22428
839.918	22284
840.055	22341
840.193	22344
840.33	22325
840.467	22386
840.604	22295
840.742	22523
840.879	22158
841.016	22318
841.153	22200
841.29	22303
841.427	22306
841.564	22090
841.701	22314
841.838	22185
841.975	22036
842.112	22246
842.249	22158
842.385	22158
842.522	22367
842.659	22101
842.796	22006
842.933	22006
843.069	21994
843.206	21964
843.343	22036
843.479	22002
843.616	21983
843.752	21808
843.889	21789
844.025	21964
844.162	21793
844.298	21972
844.435	21759
844.571	21686
844.708	21819
844.844	21861
844.98	21865
845.117	21869
845.253	21724
845.389	21709
845.525	21701
845.661	21644
845.798	21542
845.934	21618
846.07	21591
846.206	21526
846.342	21785
846.478	21481
846.614	21382
846.75	21184
846.886	21237
847.022	21378
847.158	21256
847.294	21374
847.429	21329
847.565	21272
847.701	21397
847.837	21085
847.972	20948
848.108	21135
848.244	21074
848.379	20857
848.515	20853
848.65	20887
848.786	20773
848.921	20899
849.057	20880
849.192	21039
849.328	20944
849.463	20826
849.598	20876
849.734	20697
849.869	20788
850.004	20609
850.14	20670
850.275	20777
850.41	20609
850.545	20640
850.68	20613
850.815	20701
850.95	20693
851.085	20785
851.22	20735
851.355	20682
851.49	20727
851.625	20571
851.76	20648
851.895	20492
852.03	20579
852.165	20629
852.299	20712
852.434	20781
852.569	20765
852.703	20556
852.838	20648
852.973	20769
853.107	20804
853.242	20617
853.376	20541
853.511	20286
853.645	20431
853.78	20590
853.914	20503
854.048	20358
854.183	20530
854.317	20522
854.451	20629
854.585	20442
854.72	20351
854.854	20549
854.988	20457
855.122	20526
855.256	20336
855.39	20473
855.524	20499
855.658	20552
855.792	20454
855.926	20518
856.06	20514
856.194	20537
856.327	20533
856.461	20351
856.595	20408
856.729	20465
856.862	20583
856.996	20590
857.13	20590
857.263	20484
857.397	20590
857.53	20355
857.664	20495
857.797	20454
857.931	20564
858.064	20526
858.197	20533
858.331	20343
858.464	20469
858.597	20263
858.731	20427
858.864	20457
858.997	20408
859.13	20408
859.263	20412
859.396	20423
859.529	20404
859.662	20355
859.795	20457
859.928	20492
860.061	20609
860.194	20625
860.327	20564
860.46	20339
860.592	20613
860.725	20594
860.858	20560
860.99	20450
861.123	20362
861.256	20301
861.388	20366
861.521	21036
861.653	20400
861.786	20248
861.918	20358
862.05	20370
862.183	20476
862.315	20381
862.447	20503
862.58	20415
862.712	20248
862.844	20153
862.976	20309
863.108	20286
863.24	20708
863.372	20229
863.504	20096
863.636	20027
863.768	20248
863.9	20130
864.032	20122
864.164	20195
864.296	20225
864.428	20240
864.559	20221
864.691	20328
864.823	20259
864.954	20221
865.086	20180
865.217	20062
865.349	20058
865.48	20046
865.612	20187
865.743	20157
865.875	20119
866.006	20024
866.137	20073
866.269	19967
866.4	20126
866.531	20062
866.662	20058
866.793	20012
866.924	20100
867.055	20054
867.186	19967
867.317	19860
867.448	19883
867.579	19978
867.71	19883
867.841	19902
867.972	20065
868.103	19989
868.233	19993
868.364	19940
868.495	20142
868.625	20271
868.756	20419
868.886	20115
869.017	20355
869.147	20355
869.278	20336
869.408	20343
869.539	20301
869.669	20355
869.799	20434
869.929	20461
870.06	20358
870.19	20598
870.32	20526
870.45	20678
870.58	20689
870.71	20697
870.84	20796
870.97	20701
871.1	20705
871.23	20800
871.36	20853
871.489	20853
871.619	20735
871.749	20883
871.879	20933
872.008	20902
872.138	20796
872.267	20956
872.397	20777
872.526	20655
872.656	20785
872.785	20708
872.915	21043
873.044	20921
873.173	20899
873.303	20994
873.432	20895
873.561	20967
873.69	20883
873.819	20868
873.948	20998
874.077	20861
874.206	20918
874.335	20948
874.464	20967
874.593	21146
874.722	21199
874.851	21165
874.979	21119
875.108	21138
875.237	21123
875.365	21062
875.494	21131
875.623	21157
875.751	21127
875.88	21176
876.008	21176
876.136	21348
876.265	21511
876.393	21652
876.521	21667
876.65	21530
876.778	21538
876.906	21447
877.034	21435
877.162	21583
877.29	21454
877.418	21462
877.546	21447
877.674	21637
877.802	21424
877.93	21534
878.058	21367
878.185	21378
878.313	21466
878.441	21321
878.568	21313
878.696	21500
878.824	21439
878.951	21511
879.079	21633
879.206	21800
879.333	21538
879.461	21583
879.588	21606
879.715	21705
879.842	21656
879.97	21568
880.097	21332
880.224	21256
880.351	21351
880.478	21416
880.605	21252
880.732	21359
880.859	21580
880.986	21279
881.112	21287
881.239	21112
881.366	21055
881.493	20979
881.619	20948
881.746	20872
881.872	20963
881.999	20880
882.125	20857
882.252	20849
882.378	20765
882.505	21005
882.631	20693
882.757	20609
882.883	20648
883.01	20746
883.136	20469
883.262	20480
883.388	20511
883.514	20636
883.64	20739
883.766	20511
883.892	20328
884.018	20465
884.143	20571
884.269	20648
884.395	20385
884.52	20294
884.646	20423
884.772	20237
884.897	20119
885.023	20324
885.148	20282
885.274	20347
885.399	20396
885.524	20183
885.65	20195
885.775	20290
885.9	20252
886.025	20317
886.15	20313
886.275	20233
886.4	20210
886.525	20202
886.65	20244
886.775	20282
886.9	20419
887.025	20408
887.149	20202
887.274	20035
887.399	20016
887.523	20050
887.648	19974
887.773	19928
887.897	20062
888.021	20130
888.146	19925
888.27	20195
888.395	20202
888.519	19970
888.643	20020
888.767	20043
888.891	19955
889.015	19951
889.139	19928
889.263	19871
889.387	19982
889.511	19970
889.635	20016
889.759	19856
889.883	19803
890.006	19887
890.13	19951
890.254	19830
890.377	19727
890.501	19567
890.624	19597
890.748	19620
890.871	19483
890.995	19373
891.118	19434
891.241	19529
891.364	19434
891.488	19537
891.611	19346
891.734	19365
891.857	19491
891.98	19502
892.103	19453
892.226	19506
892.349	19350
892.471	19263
892.594	19240
892.717	19388
892.839	19209
892.962	19411
893.085	19495
893.207	19358
893.33	19228
893.452	19255
893.575	19365
893.697	19403
893.819	19411
893.941	19476
894.064	19499
894.186	19339
894.308	19297
894.43	19476
894.552	19510
894.674	19529
894.796	19278
894.918	19301
895.04	19396
895.161	19521
895.283	19388
895.405	19221
895.526	19400
895.648	19350
895.769	19263
895.891	19350
896.012	19537
896.134	19400
896.255	19343
896.376	19346
896.498	19289
896.619	19434
896.74	19453
896.861	19472
896.982	19769
897.103	19772
897.224	19647
897.345	19544
897.466	19590
897.587	19632
897.708	19738
897.828	19658
897.949	19575
898.07	19559
898.19	19616
898.311	19715
898.431	19548
898.552	19597
898.672	19635
898.792	19750
898.913	19696
899.033	19476
899.153	19415
899.273	19285
899.393	19358
899.513	19480
899.633	19365
899.753	19411
899.873	19430
899.993	19392
900.113	19381
900.232	19289
900.352	19320
900.472	19282
900.591	19050
900.711	19202
900.83	19072
900.95	19156
901.069	19285
901.189	19110
901.308	18779
901.427	18772
901.546	18715
901.665	18848
901.784	18871
901.904	18684
902.023	18498
902.141	18323
902.26	18251
902.379	18361
902.498	18289
902.617	18178
902.735	18239
902.854	18224
902.973	18201
903.091	17923
903.21	17980
903.328	17961
903.446	17836
903.565	17760
903.683	17775
903.801	17547
903.919	17623
904.038	17737
904.156	17551
904.274	17798
904.392	17463
904.51	17486
904.627	17433
904.745	17600
904.863	17611
904.981	17345
905.098	17193
905.216	17261
905.334	17246
905.451	17231
905.569	17204
905.686	17200
905.803	17200
905.921	17022
906.038	17128
906.155	17014
906.272	16927
906.389	16858
906.506	16858
906.623	16824
906.74	16771
906.857	16615
906.974	16615
907.091	16828
907.208	16881
907.324	16687
907.441	16611
907.557	16489
907.674	16451
907.79	16371
907.907	16390
908.023	16512
908.139	16367
908.256	16382
908.372	16462
908.488	16367
908.604	16154
908.72	16131
908.836	16169
908.952	16082
909.068	16230
909.184	16325
909.3	16219
909.415	16223
909.531	16219
909.647	16021
909.762	15918
909.878	15911
909.993	15968
910.108	15949
910.224	15888
910.339	15842
910.454	15755
910.57	15827
910.685	15641
910.8	15838
910.915	15854
911.03	15682
911.145	15572
911.259	15492
911.374	15549
911.489	15397
911.604	15408
911.718	15249
911.833	15268
911.947	15211
912.062	15173
912.176	15287
912.291	15317
912.405	15268
912.519	15488
912.633	15424
912.748	15237
912.862	15291
912.976	15062
913.09	14906
913.204	15039
913.318	15169
913.431	15173
913.545	15195
913.659	15138
913.772	15051
913.886	14899
914	14880
914.113	14963
914.226	14994
914.34	14952
914.453	14769
914.566	14895
914.68	14765
914.793	14762
914.906	14590
915.019	14625
915.132	14427
915.245	14526
915.358	14564
915.47	14522
915.583	14533
915.696	14511
915.809	14625
915.921	14667
916.034	14526
916.146	14446
916.259	14355
916.371	14522
916.483	14499
916.595	14400
916.708	14533
916.82	14362
916.932	14362
917.044	14381
917.156	14374
917.268	14237
917.38	14214
917.491	14164
917.603	14183
917.715	14199
917.826	14347
917.938	14149
918.049	14062
918.161	14126
918.272	14199
918.384	14256
918.495	14081
918.606	13963
918.717	13902
918.828	14069
918.939	14024
919.05	13860
919.161	13997
919.272	13723
919.383	13856
919.494	13959
919.604	14206
919.715	14020
919.826	13883
919.936	13906
920.047	14050
920.157	13986
920.267	14180
920.378	14024
920.488	13887
920.598	14134
920.708	14309
920.818	14062
920.928	14092
921.038	14275
921.148	14157
921.258	13932
921.368	13887
921.477	13750
921.587	13685
921.697	13628
921.806	13750
921.916	13559
922.025	13407
922.134	13297
922.244	13384
922.353	13396
922.462	13228
922.571	13183
922.68	13084
922.789	12913
922.898	12981
923.007	12905
923.116	13004
923.224	12951
923.333	12905
923.442	12745
923.55	12825
923.659	12848
923.767	12924
923.876	12829
923.984	12913
924.092	12688
924.201	12848
924.309	12772
924.417	12715
924.525	12563
924.633	12719
924.741	13480
924.849	12433
924.956	12574
925.064	12395
925.172	12437
925.279	12365
925.387	12445
925.494	12448
925.602	12536
925.709	12544
925.816	12285
925.924	12429
926.031	12517
926.138	12395
926.245	12467
926.352	12281
926.459	12407
926.566	12414
926.673	12346
926.779	12228
926.886	12209
926.993	12155
927.099	12003
927.206	11980
927.312	11942
927.419	12057
927.525	12030
927.631	12076
927.737	11942
927.843	11836
927.95	11760
928.056	11893
928.162	11794
928.267	11977
928.373	12494
928.479	11939
928.585	11630
928.69	11726
928.796	11843
928.901	11836
929.007	11592
929.112	11691
929.218	11611
929.323	11581
929.428	11615
929.533	11741
929.638	11459
929.743	11630
929.848	11589
929.953	11512
930.058	11425
930.163	11185
930.267	11311
930.372	11376
930.477	11159
930.581	11551
930.685	11345
930.79	11170
930.894	11128
930.998	11239
931.103	11273
931.207	10972
931.311	10854
931.415	10786
931.519	10714
931.623	10565
