Data from test_V78500241_3378.txt Node
Date: Fri Mar 25 15:33:23 CST 2022
User: usil
Spectrometer: V785-0024
Trigger mode: 0
Integration Time (sec): 4.000000E-1
Scans to average: 1
Nonlinearity correction enabled: false
Boxcar width: 0
Storing dark spectrum: false
XAxis mode: Wavelengths
Number of Pixels in Spectrum: 1024
>>>>>Begin Spectral Data<<<<<
801.071	27363
801.214	27283
801.356	26967
801.499	27017
801.641	26754
801.783	26800
801.926	26891
802.068	26765
802.211	26682
802.353	26739
802.496	26564
802.638	26511
802.78	26313
802.923	26355
803.065	26442
803.208	26275
803.35	26476
803.492	26583
803.635	26492
803.777	26522
803.919	26499
804.061	27001
804.204	26655
804.346	26667
804.488	26526
804.63	26537
804.773	26351
804.915	26522
805.057	26613
805.199	26712
805.341	26678
805.483	26754
805.626	26720
805.768	26571
805.91	26792
806.052	26739
806.194	26590
806.336	26906
806.478	26686
806.62	26609
806.762	26796
806.904	26872
807.046	27116
807.188	27199
807.33	27089
807.472	27180
807.614	27043
807.756	26967
807.898	26979
808.04	26887
808.182	26754
808.324	26925
808.465	26998
808.607	27127
808.749	27195
808.891	27401
809.033	27367
809.174	27450
809.316	27245
809.458	27226
809.6	27275
809.741	27523
809.883	27374
810.025	27538
810.166	27644
810.308	27675
810.45	27496
810.591	27485
810.733	27401
810.875	27306
811.016	27249
811.158	27260
811.299	27302
811.441	27230
811.582	27454
811.724	27260
811.865	27233
812.007	27218
812.148	27386
812.29	27351
812.431	27325
812.573	27686
812.714	27583
812.855	27629
812.997	27759
813.138	27880
813.279	27842
813.421	27831
813.562	27861
813.703	27641
813.845	27492
813.986	27252
814.127	27112
814.268	27017
814.41	26887
814.551	26876
814.692	27062
814.833	26823
814.974	26986
815.115	26982
815.256	26769
815.397	26800
815.539	26826
815.68	26693
815.821	26746
815.962	26674
816.103	26651
816.244	26552
816.385	26568
816.526	26385
816.666	26374
816.807	26149
816.948	26305
817.089	26252
817.23	26237
817.371	26199
817.512	26168
817.653	26149
817.793	26191
817.934	26164
818.075	26096
818.216	26183
818.356	26145
818.497	26073
818.638	25997
818.778	26027
818.919	25974
819.06	26027
819.2	26039
819.341	26180
819.481	26069
819.622	26233
819.762	26598
819.903	26370
820.043	26355
820.184	26427
820.324	26332
820.465	26290
820.605	26347
820.746	26065
820.886	26111
821.026	26320
821.167	26130
821.307	26305
821.447	26187
821.588	25959
821.728	26012
821.868	25947
822.008	25742
822.149	25529
822.289	25651
822.429	25453
822.569	25354
822.709	25362
822.849	25122
822.99	25183
823.13	25118
823.27	25133
823.41	24890
823.55	25015
823.69	24981
823.83	25095
823.97	24802
824.11	24787
824.25	24684
824.389	24875
824.529	24764
824.669	24703
824.809	24859
824.949	24859
825.089	24962
825.228	24817
825.368	24532
825.508	24798
825.648	24650
825.787	24665
825.927	24681
826.067	24661
826.206	24757
826.346	24768
826.485	24871
826.625	24646
826.765	24768
826.904	24642
827.044	24486
827.183	24498
827.323	24403
827.462	24410
827.601	24369
827.741	24289
827.88	24490
828.02	24262
828.159	24388
828.298	24334
828.437	24369
828.577	24163
828.716	24403
828.855	24254
828.994	24102
829.134	24038
829.273	24171
829.412	24190
829.551	24022
829.69	24117
829.829	24079
829.968	24163
830.107	24167
830.246	24163
830.385	24106
830.524	23882
830.663	23912
830.802	23885
830.941	23707
831.08	23840
831.219	23874
831.357	23771
831.496	23950
831.635	23691
831.774	23596
831.913	23653
832.051	23448
832.19	23463
832.329	23524
832.467	23433
832.606	23406
832.744	23360
832.883	23501
833.022	23303
833.16	23326
833.299	23349
833.437	23528
833.576	23482
833.714	23490
833.852	23474
833.991	23471
834.129	23531
834.267	23547
834.406	23493
834.544	23417
834.682	23429
834.821	23368
834.959	23630
835.097	23478
835.235	23604
835.373	23376
835.511	23573
835.65	23307
835.788	23345
835.926	23159
836.064	23155
836.202	23174
836.34	23258
836.478	23436
836.615	23239
836.753	23220
836.891	23258
837.029	23490
837.167	23303
837.305	23159
837.443	23140
837.58	23109
837.718	23109
837.856	23197
837.993	23124
838.131	23258
838.269	22972
838.406	23113
838.544	23022
838.681	22854
838.819	22797
838.956	22744
839.094	22748
839.231	22927
839.369	22744
839.506	23105
839.643	22858
839.781	22546
839.918	22569
840.055	22565
840.193	22561
840.33	22497
840.467	22637
840.604	22679
840.742	22793
840.879	22497
841.016	22474
841.153	22535
841.29	22584
841.427	22542
841.564	22531
841.701	22523
841.838	22622
841.975	22440
842.112	22634
842.249	22421
842.385	22382
842.522	22527
842.659	22413
842.796	22394
842.933	22436
843.069	22215
843.206	22318
843.343	22443
843.479	22398
843.616	22310
843.752	22169
843.889	22120
844.025	22310
844.162	22116
844.298	22261
844.435	22074
844.571	22150
844.708	22162
844.844	22173
844.98	22246
845.117	22348
845.253	22051
845.389	21956
845.525	21979
845.661	21975
845.798	21770
845.934	22036
846.07	21850
846.206	21838
846.342	21975
846.478	21766
846.614	21610
846.75	21568
846.886	21690
847.022	21652
847.158	21622
847.294	21618
847.429	21648
847.565	21526
847.701	21861
847.837	21313
847.972	21355
848.108	21412
848.244	21420
848.379	21214
848.515	21089
848.65	21173
848.786	21222
848.921	21184
849.057	21313
849.192	21306
849.328	21241
849.463	21264
849.598	21165
849.734	21009
849.869	20982
850.004	20853
850.14	20994
850.275	20914
850.41	20899
850.545	20899
850.68	20990
850.815	20921
850.95	20956
851.085	21150
851.22	21173
851.355	20948
851.49	20929
851.625	20944
851.76	20921
851.895	20937
852.03	20891
852.165	21009
852.299	20944
852.434	21108
852.569	20849
852.703	20925
852.838	21020
852.973	21001
853.107	21116
853.242	20800
853.376	20754
853.511	20716
853.645	20811
853.78	20929
853.914	20853
854.048	20686
854.183	20697
854.317	20853
854.451	21013
854.585	20735
854.72	20746
854.854	20804
854.988	20777
855.122	20746
855.256	20640
855.39	20769
855.524	21001
855.658	20872
855.792	20838
855.926	20754
856.06	20876
856.194	20986
856.327	20735
856.461	20648
856.595	20819
856.729	20800
856.862	20857
856.996	20899
857.13	20845
857.263	20941
857.397	20838
857.53	20849
857.664	20849
857.797	20952
857.931	20883
858.064	20788
858.197	21013
858.331	20876
858.464	20845
858.597	20720
858.731	20804
858.864	20765
858.997	20720
859.13	20746
859.263	20754
859.396	20815
859.529	20785
859.662	20754
859.795	20724
859.928	20826
860.061	21112
860.194	21032
860.327	20819
860.46	20819
860.592	20918
860.725	20937
860.858	20918
860.99	20826
861.123	20727
861.256	20735
861.388	20830
861.521	21587
861.653	20735
861.786	20606
861.918	20629
862.05	20701
862.183	20777
862.315	20777
862.447	20811
862.58	20651
862.712	20583
862.844	20522
862.976	20693
863.108	20522
863.24	20990
863.372	20385
863.504	20484
863.636	20533
863.768	20541
863.9	20518
864.032	20408
864.164	20393
864.296	20575
864.428	20621
864.559	20583
864.691	20526
864.823	20564
864.954	20507
865.086	20655
865.217	20412
865.349	20351
865.48	20396
865.612	20442
865.743	20621
865.875	20564
866.006	20404
866.137	20564
866.269	20400
866.4	20446
866.531	20271
866.662	20381
866.793	20332
866.924	20450
867.055	20431
867.186	20309
867.317	20347
867.448	20286
867.579	20256
867.71	20301
867.841	20336
867.972	20244
868.103	20320
868.233	20415
868.364	20507
868.495	20552
868.625	20648
868.756	20746
868.886	20492
869.017	20613
869.147	20640
869.278	20670
869.408	20606
869.539	20594
869.669	20651
869.799	20648
869.929	20743
870.06	20613
870.19	20857
870.32	20849
870.45	20963
870.58	20986
870.71	21024
870.84	21116
870.97	21036
871.1	21009
871.23	21104
871.36	21135
871.489	21157
871.619	21161
871.749	21245
871.879	21207
872.008	21336
872.138	21218
872.267	21157
872.397	21195
872.526	20956
872.656	21138
872.785	20982
872.915	21256
873.044	21291
873.173	21169
873.303	21302
873.432	21192
873.561	21222
873.69	21199
873.819	21279
873.948	21245
874.077	21218
874.206	21294
874.335	21283
874.464	21321
874.593	21488
874.722	21401
874.851	21450
874.979	21561
875.108	21477
875.237	21481
875.365	21367
875.494	21431
875.623	21599
875.751	21485
875.88	21443
876.008	21572
876.136	21675
876.265	21979
876.393	22078
876.521	22006
876.65	21945
876.778	21911
876.906	21785
877.034	21789
877.162	21770
877.29	21759
877.418	21873
877.546	21835
877.674	21884
877.802	21778
877.93	21812
878.058	21819
878.185	21762
878.313	21816
878.441	21873
878.568	21637
878.696	21812
878.824	21876
878.951	21895
879.079	22101
879.206	22029
879.333	21922
879.461	21789
879.588	21907
879.715	22010
879.842	22135
879.97	21911
880.097	21720
880.224	21663
880.351	21797
880.478	21679
880.605	21728
880.732	21717
880.859	21838
880.986	21606
881.112	21614
881.239	21515
881.366	21397
881.493	21313
881.619	21325
881.746	21264
881.872	21150
881.999	21214
882.125	21127
882.252	21214
882.378	21165
882.505	21348
882.631	21104
882.757	20845
882.883	20971
883.01	21058
883.136	20910
883.262	20746
883.388	20788
883.514	20918
883.64	20906
883.766	20861
883.892	20762
884.018	20819
884.143	20941
884.269	20880
884.395	20758
884.52	20552
884.646	20648
884.772	20476
884.897	20518
885.023	20533
885.148	20659
885.274	20727
885.399	20701
885.524	20648
885.65	20552
885.775	20640
885.9	20648
886.025	20575
886.15	20613
886.275	20545
886.4	20427
886.525	20511
886.65	20511
886.775	20545
886.9	20644
887.025	20701
887.149	20465
887.274	20305
887.399	20377
887.523	20385
887.648	20202
887.773	20240
887.897	20339
888.021	20412
888.146	20347
888.27	20446
888.395	20473
888.519	20434
888.643	20286
888.767	20404
888.891	20313
889.015	20206
889.139	20336
889.263	20103
889.387	20233
889.511	20473
889.635	20252
889.759	20142
889.883	20145
890.006	20096
890.13	20339
890.254	20130
890.377	20218
890.501	19925
890.624	19830
890.748	19974
890.871	19693
890.995	19670
891.118	19830
891.241	19753
891.364	19685
891.488	19852
891.611	19757
891.734	19761
891.857	19738
891.98	19715
892.103	19769
892.226	19666
892.349	19689
892.471	19483
892.594	19685
892.717	19795
892.839	19674
892.962	19670
893.085	19704
893.207	19696
893.33	19548
893.452	19616
893.575	19632
893.697	19666
893.819	19765
893.941	19791
894.064	19738
894.186	19719
894.308	19567
894.43	19628
894.552	19803
894.674	19723
894.796	19616
894.918	19674
895.04	19578
895.161	19712
895.283	19586
895.405	19552
895.526	19529
895.648	19609
895.769	19666
895.891	19643
896.012	19856
896.134	19784
896.255	19776
896.376	19552
896.498	19609
896.619	19731
896.74	19700
896.861	19849
896.982	19947
897.103	20199
897.224	19928
897.345	19898
897.466	19833
897.587	19917
897.708	19982
897.828	19951
897.949	19913
898.07	19715
898.19	19814
898.311	19951
898.431	19799
898.552	19890
898.672	19811
898.792	19936
898.913	19928
899.033	19818
899.153	19849
899.273	19578
899.393	19689
899.513	19807
899.633	19655
899.753	19708
899.873	19487
899.993	19571
900.113	19586
900.232	19693
900.352	19582
900.472	19460
900.591	19373
900.711	19403
900.83	19308
900.95	19464
901.069	19533
901.189	19282
901.308	19072
901.427	18970
901.546	18916
901.665	19050
901.784	19057
901.904	18920
902.023	18894
902.141	18566
902.26	18536
902.379	18661
902.498	18456
902.617	18521
902.735	18559
902.854	18570
902.973	18471
903.091	18216
903.21	18224
903.328	18136
903.446	18178
903.565	17999
903.683	18007
903.801	17923
903.919	17965
904.038	17893
904.156	17809
904.274	17870
904.392	17733
904.51	17794
904.627	17756
904.745	17821
904.863	17809
904.981	17585
905.098	17490
905.216	17433
905.334	17459
905.451	17509
905.569	17524
905.686	17543
905.803	17402
905.921	17299
906.038	17414
906.155	17265
906.272	17071
906.389	17128
906.506	17025
906.623	16938
906.74	16968
906.857	16892
906.974	16965
907.091	17052
907.208	17029
907.324	17041
907.441	16904
907.557	16755
907.674	16664
907.79	16687
907.907	16733
908.023	16721
908.139	16740
908.256	16702
908.372	16592
908.488	16580
908.604	16577
908.72	16432
908.836	16455
908.952	16485
909.068	16424
909.184	16561
909.3	16405
909.415	16481
909.531	16447
909.647	16230
909.762	16204
909.878	16139
909.993	16150
910.108	16207
910.224	16166
910.339	16048
910.454	15945
910.57	15892
910.685	15918
910.8	16154
910.915	16177
911.03	15964
911.145	15705
911.259	15682
911.374	15709
911.489	15739
911.604	15629
911.718	15557
911.833	15469
911.947	15420
912.062	15435
912.176	15511
912.291	15492
912.405	15568
912.519	15800
912.633	15599
912.748	15466
912.862	15553
912.976	15264
913.09	15184
913.204	15256
913.318	15287
913.431	15405
913.545	15367
913.659	15443
913.772	15306
913.886	15161
914	15104
914.113	15245
914.226	15211
914.34	15123
914.453	15017
914.566	15112
914.68	15070
914.793	15043
914.906	14811
915.019	14823
915.132	14701
915.245	14800
915.358	14765
915.47	14708
915.583	14804
915.696	14678
915.809	14804
915.921	14842
916.034	14632
916.146	14610
916.259	14594
916.371	14891
916.483	14678
916.595	14648
916.708	14507
916.82	14537
916.932	14476
917.044	14625
917.156	14492
917.268	14450
917.38	14454
917.491	14332
917.603	14286
917.715	14537
917.826	14518
917.938	14301
918.049	14309
918.161	14362
918.272	14526
918.384	14598
918.495	14347
918.606	14294
918.717	14130
918.828	14214
918.939	14210
919.05	14077
919.161	14126
919.272	13963
919.383	14054
919.494	14191
919.604	14370
919.715	14115
919.826	14111
919.936	14145
920.047	14199
920.157	14134
920.267	14286
920.378	14294
920.488	14088
920.598	14290
920.708	14419
920.818	14351
920.928	14259
921.038	14442
921.148	14442
921.258	14111
921.368	14039
921.477	13978
921.587	13913
921.697	13807
921.806	13978
921.916	13753
922.025	13548
922.134	13521
922.244	13582
922.353	13540
922.462	13415
922.571	13339
922.68	13308
922.789	13198
922.898	13206
923.007	13137
923.116	13179
923.224	13099
923.333	13160
923.442	13038
923.55	13023
923.659	13129
923.767	13110
923.876	13019
923.984	13095
924.092	12890
924.201	12966
924.309	12951
924.417	12935
924.525	12890
924.633	12905
924.741	13772
924.849	12734
924.956	12817
925.064	12711
925.172	12551
925.279	12585
925.387	12696
925.494	12631
925.602	12760
925.709	12791
925.816	12578
925.924	12627
926.031	12703
926.138	12604
926.245	12620
926.352	12582
926.459	12673
926.566	12669
926.673	12566
926.779	12513
926.886	12441
926.993	12243
927.099	12197
927.206	12159
927.312	12152
927.419	12296
927.525	12292
927.631	12213
927.737	12095
927.843	12159
927.95	12003
928.056	12034
928.162	12083
928.267	12083
928.373	12623
928.479	12197
928.585	11866
928.69	12045
928.796	12038
928.901	11939
929.007	11786
929.112	11912
929.218	11893
929.323	11790
929.428	11790
929.533	11901
929.638	11699
929.743	11714
929.848	11752
929.953	11870
930.058	11573
930.163	11551
930.267	11505
930.372	11596
930.477	11490
930.581	11634
930.685	11501
930.79	11315
930.894	11448
930.998	11330
931.103	11505
931.207	11105
931.311	11029
931.415	10984
931.519	10824
931.623	10736
