Data from test_V78500241_1472.txt Node
Date: Fri Mar 25 15:20:06 CST 2022
User: usil
Spectrometer: V785-0024
Trigger mode: 0
Integration Time (sec): 4.000000E-1
Scans to average: 1
Nonlinearity correction enabled: false
Boxcar width: 0
Storing dark spectrum: false
XAxis mode: Wavelengths
Number of Pixels in Spectrum: 1024
>>>>>Begin Spectral Data<<<<<
801.071	27926
801.214	27854
801.356	27603
801.499	27511
801.641	27317
801.783	27378
801.926	27462
802.068	27329
802.211	27374
802.353	27367
802.496	27150
802.638	27005
802.78	27005
802.923	27001
803.065	26849
803.208	26956
803.35	26948
803.492	27199
803.635	27184
803.777	27173
803.919	27233
804.061	27595
804.204	27199
804.346	27157
804.488	27127
804.63	27264
804.773	27142
804.915	27211
805.057	27431
805.199	27176
805.341	27298
805.483	27313
805.626	27363
805.768	27374
805.91	27378
806.052	27351
806.194	27298
806.336	27530
806.478	27462
806.62	27321
806.762	27473
806.904	27568
807.046	27835
807.188	27736
807.33	27759
807.472	27956
807.614	27759
807.756	27835
807.898	27587
808.04	27660
808.182	27675
808.324	27641
808.465	27701
808.607	27819
808.749	27960
808.891	28055
809.033	28025
809.174	28223
809.316	27914
809.458	28002
809.6	27884
809.741	28059
809.883	28128
810.025	28390
810.166	28223
810.308	28329
810.45	28299
810.591	28211
810.733	28025
810.875	27994
811.016	27865
811.158	27964
811.299	28021
811.441	28082
811.582	28265
811.724	28002
811.865	28067
812.007	28074
812.148	27964
812.29	28124
812.431	28261
812.573	28432
812.714	28421
812.855	28535
812.997	28546
813.138	28774
813.279	28771
813.421	28577
813.562	28573
813.703	28299
813.845	28207
813.986	28051
814.127	27972
814.268	27743
814.41	27816
814.551	27622
814.692	27747
814.833	27572
814.974	27660
815.115	27686
815.256	27458
815.397	27534
815.539	27530
815.68	27427
815.821	27458
815.962	27637
816.103	27534
816.244	27294
816.385	27237
816.526	27294
816.666	27173
816.807	26899
816.948	27074
817.089	27089
817.23	26982
817.371	26902
817.512	27100
817.653	26990
817.793	26910
817.934	26883
818.075	26979
818.216	26986
818.356	26937
818.497	26826
818.638	26602
818.778	26587
818.919	26686
819.06	26731
819.2	26883
819.341	26967
819.481	27104
819.622	27085
819.762	27325
819.903	27302
820.043	27161
820.184	27283
820.324	27127
820.465	27211
820.605	27058
820.746	27005
820.886	26944
821.026	27032
821.167	27066
821.307	27096
821.447	26990
821.588	26807
821.728	26777
821.868	26659
822.008	26499
822.149	26514
822.289	26465
822.429	26240
822.569	26168
822.709	26012
822.849	26077
822.99	25951
823.13	25928
823.27	25925
823.41	25837
823.55	25666
823.69	25712
823.83	25761
823.97	25681
824.11	25540
824.25	25525
824.389	25552
824.529	25708
824.669	25468
824.809	25868
824.949	25772
825.089	25765
825.228	25533
825.368	25411
825.508	25403
825.648	25472
825.787	25491
825.927	25476
826.067	25487
826.206	25438
826.346	25430
826.485	25556
826.625	25499
826.765	25601
826.904	25525
827.044	25282
827.183	25251
827.323	25088
827.462	25285
827.601	25164
827.741	25103
827.88	25171
828.02	25034
828.159	25240
828.298	25289
828.437	25171
828.577	25091
828.716	25118
828.855	25107
828.994	24890
829.134	24806
829.273	24871
829.412	24817
829.551	24837
829.69	24871
829.829	24802
829.968	25004
830.107	24859
830.246	24890
830.385	24875
830.524	24787
830.663	24684
830.802	24544
830.941	24563
831.08	24376
831.219	24563
831.357	24479
831.496	24715
831.635	24388
831.774	24456
831.913	24243
832.051	24243
832.19	24235
832.329	24285
832.467	24220
832.606	24114
832.744	24091
832.883	24159
833.022	24095
833.16	24174
833.299	24235
833.437	24083
833.576	24281
833.714	24273
833.852	24258
833.991	24133
834.129	24292
834.267	24251
834.406	24201
834.544	24296
834.682	24068
834.821	24205
834.959	24486
835.097	24178
835.235	24239
835.373	24178
835.511	24174
835.65	23996
835.788	24091
835.926	24022
836.064	23863
836.202	23805
836.34	23973
836.478	24152
836.615	23927
836.753	24049
836.891	24121
837.029	24114
837.167	23923
837.305	23908
837.443	24022
837.58	23760
837.718	23786
837.856	23859
837.993	23760
838.131	23786
838.269	23703
838.406	23691
838.544	23634
838.681	23482
838.819	23463
838.956	23353
839.094	23273
839.231	23391
839.369	23448
839.506	23676
839.643	23600
839.781	23345
839.918	23280
840.055	23334
840.193	23288
840.33	23356
840.467	23220
840.604	23223
840.742	23520
840.879	23121
841.016	23109
841.153	23117
841.29	23402
841.427	23193
841.564	23280
841.701	23261
841.838	23326
841.975	23033
842.112	23094
842.249	23029
842.385	22946
842.522	23212
842.659	23109
842.796	23041
842.933	23086
843.069	22976
843.206	22923
843.343	22953
843.479	22919
843.616	23018
843.752	22885
843.889	22824
844.025	22896
844.162	22778
844.298	22953
844.435	22725
844.571	22839
844.708	22839
844.844	22908
844.98	22908
845.117	22942
845.253	22797
845.389	22672
845.525	22573
845.661	22668
845.798	22531
845.934	22512
846.07	22363
846.206	22527
846.342	22588
846.478	22409
846.614	22192
846.75	22188
846.886	22280
847.022	22310
847.158	22261
847.294	22025
847.429	22215
847.565	22196
847.701	22417
847.837	22006
847.972	21876
848.108	22105
848.244	22147
848.379	21797
848.515	21911
848.65	21770
848.786	21857
848.921	21724
849.057	22036
849.192	21892
849.328	21865
849.463	21778
849.598	21747
849.734	21644
849.869	21660
850.004	21553
850.14	21663
850.275	21694
850.41	21428
850.545	21549
850.68	21637
850.815	21568
850.95	21633
851.085	21641
851.22	21720
851.355	21576
851.49	21591
851.625	21629
851.76	21447
851.895	21466
852.03	21458
852.165	21618
852.299	21568
852.434	21568
852.569	21747
852.703	21633
852.838	21720
852.973	21679
853.107	21861
853.242	21462
853.376	21439
853.511	21340
853.645	21401
853.78	21515
853.914	21344
854.048	21348
854.183	21397
854.317	21420
854.451	21629
854.585	21298
854.72	21462
854.854	21507
854.988	21302
855.122	21443
855.256	21283
855.39	21351
855.524	21454
855.658	21477
855.792	21564
855.926	21580
856.06	21435
856.194	21481
856.327	21310
856.461	21382
856.595	21386
856.729	21435
856.862	21477
856.996	21454
857.13	21351
857.263	21545
857.397	21549
857.53	21416
857.664	21382
857.797	21504
857.931	21492
858.064	21431
858.197	21462
858.331	21359
858.464	21367
858.597	21420
858.731	21351
858.864	21351
858.997	21336
859.13	21488
859.263	21424
859.396	21439
859.529	21279
859.662	21264
859.795	21291
859.928	21435
860.061	21458
860.194	21504
860.327	21351
860.46	21466
860.592	21553
860.725	21477
860.858	21561
860.99	21420
861.123	21336
861.256	21469
861.388	21393
861.521	21964
861.653	21287
861.786	21165
861.918	21233
862.05	21222
862.183	21336
862.315	21405
862.447	21344
862.58	21382
862.712	21222
862.844	21055
862.976	21264
863.108	21203
863.24	21629
863.372	21020
863.504	21233
863.636	21047
863.768	21077
863.9	21116
864.032	21074
864.164	20982
864.296	21180
864.428	21070
864.559	21116
864.691	21036
864.823	21214
864.954	21100
865.086	21138
865.217	21001
865.349	21017
865.48	21020
865.612	21123
865.743	21176
865.875	20902
866.006	21009
866.137	21062
866.269	20963
866.4	20967
866.531	21001
866.662	21020
866.793	20994
866.924	21036
867.055	20937
867.186	20887
867.317	20975
867.448	20811
867.579	20937
867.71	20834
867.841	20914
867.972	21020
868.103	20925
868.233	21017
868.364	21085
868.495	20952
868.625	21112
868.756	21222
868.886	21138
869.017	21203
869.147	21302
869.278	21275
869.408	21169
869.539	21127
869.669	21150
869.799	21264
869.929	21260
870.06	21211
870.19	21507
870.32	21542
870.45	21534
870.58	21469
870.71	21622
870.84	21622
870.97	21496
871.1	21469
871.23	21759
871.36	21720
871.489	21732
871.619	21675
871.749	21747
871.879	21675
872.008	21762
872.138	21705
872.267	21728
872.397	21797
872.526	21648
872.656	21591
872.785	21496
872.915	21766
873.044	21857
873.173	21762
873.303	21812
873.432	21808
873.561	21747
873.69	21816
873.819	21694
873.948	21953
874.077	21857
874.206	21774
874.335	21739
874.464	21797
874.593	21953
874.722	22021
874.851	22021
874.979	22143
875.108	21968
875.237	21956
875.365	21907
875.494	22013
875.623	22150
875.751	21975
875.88	22120
876.008	22192
876.136	22147
876.265	22363
876.393	22580
876.521	22462
876.65	22474
876.778	22424
876.906	22306
877.034	22356
877.162	22375
877.29	22306
877.418	22421
877.546	22337
877.674	22375
877.802	22417
877.93	22344
878.058	22215
878.185	22135
878.313	22352
878.441	22322
878.568	22223
878.696	22280
878.824	22424
878.951	22470
879.079	22481
879.206	22755
879.333	22489
879.461	22375
879.588	22443
879.715	22390
879.842	22706
879.97	22466
880.097	22143
880.224	22124
880.351	22147
880.478	22169
880.605	22147
880.732	22166
880.859	22447
880.986	22097
881.112	22246
881.239	22040
881.366	21949
881.493	21804
881.619	21759
881.746	21774
881.872	21781
881.999	21656
882.125	21724
882.252	21739
882.378	21804
882.505	21903
882.631	21576
882.757	21389
882.883	21481
883.01	21557
883.136	21412
883.262	21313
883.388	21173
883.514	21382
883.64	21439
883.766	21351
883.892	21264
884.018	21340
884.143	21405
884.269	21386
884.395	21112
884.52	21043
884.646	21096
884.772	21047
884.897	21005
885.023	21150
885.148	21169
885.274	21252
885.399	21241
885.524	21013
885.65	21214
885.775	21165
885.9	20982
886.025	21192
886.15	21123
886.275	21013
886.4	20864
886.525	21005
886.65	21009
886.775	20975
886.9	21233
887.025	21313
887.149	21074
887.274	20883
887.399	20800
887.523	20849
887.648	20800
887.773	20758
887.897	20929
888.021	20868
888.146	20765
888.27	20952
888.395	20979
888.519	20830
888.643	20861
888.767	20899
888.891	20762
889.015	20674
889.139	20735
889.263	20674
889.387	20663
889.511	20769
889.635	20868
889.759	20659
889.883	20602
890.006	20716
890.13	20773
890.254	20442
890.377	20564
890.501	20503
890.624	20347
890.748	20457
890.871	20336
890.995	20267
891.118	20191
891.241	20244
891.364	20225
891.488	20271
891.611	20180
891.734	20317
891.857	20229
891.98	20221
892.103	20237
892.226	20111
892.349	20107
892.471	19989
892.594	20103
892.717	20153
892.839	20020
892.962	20107
893.085	20020
893.207	20065
893.33	20069
893.452	20050
893.575	20122
893.697	20077
893.819	20221
893.941	20252
894.064	20252
894.186	20035
894.308	19928
894.43	20244
894.552	20244
894.674	20161
894.796	20043
894.918	19963
895.04	20115
895.161	20282
895.283	20092
895.405	20092
895.526	20043
895.648	20164
895.769	20001
895.891	20115
896.012	20301
896.134	20172
896.255	20164
896.376	20058
896.498	20115
896.619	20164
896.74	20062
896.861	20161
896.982	20476
897.103	20632
897.224	20263
897.345	20400
897.466	20286
897.587	20336
897.708	20404
897.828	20336
897.949	20248
898.07	20180
898.19	20263
898.311	20381
898.431	20309
898.552	20366
898.672	20427
898.792	20438
898.913	20351
899.033	20267
899.153	20206
899.273	20024
899.393	20149
899.513	20043
899.633	20138
899.753	20172
899.873	20012
899.993	20115
900.113	20065
900.232	19997
900.352	20046
900.472	20039
900.591	19849
900.711	19959
900.83	19906
900.95	19822
901.069	19883
901.189	19727
901.308	19594
901.427	19438
901.546	19575
901.665	19392
901.784	19502
901.904	19324
902.023	19160
902.141	19084
902.26	19012
902.379	19072
902.498	18924
902.617	18916
902.735	19000
902.854	18886
902.973	18928
903.091	18642
903.21	18646
903.328	18616
903.446	18506
903.565	18593
903.683	18578
903.801	18247
903.919	18410
904.038	18403
904.156	18243
904.274	18270
904.392	18167
904.51	18220
904.627	18247
904.745	18285
904.863	18243
904.981	17973
905.098	17908
905.216	17779
905.334	17935
905.451	17840
905.569	17771
905.686	17954
905.803	17920
905.921	17668
906.038	17878
906.155	17745
906.272	17642
906.389	17547
906.506	17440
906.623	17440
906.74	17421
906.857	17258
906.974	17440
907.091	17497
907.208	17581
907.324	17436
907.441	17235
907.557	17151
907.674	17185
907.79	17075
907.907	17109
908.023	17269
908.139	17075
908.256	17136
908.372	17151
908.488	16965
908.604	16869
908.72	16740
908.836	16820
908.952	16873
909.068	16820
909.184	16965
909.3	16790
909.415	16881
909.531	16866
909.647	16493
909.762	16538
909.878	16485
909.993	16527
910.108	16497
910.224	16459
910.339	16546
910.454	16405
910.57	16337
910.685	16295
910.8	16588
910.915	16478
911.03	16379
911.145	16215
911.259	16139
911.374	16048
911.489	16078
911.604	16013
911.718	15857
911.833	15755
911.947	15930
912.062	15728
912.176	15827
912.291	15892
912.405	15876
912.519	16036
912.633	16074
912.748	15915
912.862	15785
912.976	15747
913.09	15675
913.204	15679
913.318	15686
913.431	15793
913.545	15793
913.659	15690
913.772	15675
913.886	15492
914	15526
914.113	15614
914.226	15530
914.34	15549
914.453	15553
914.566	15504
914.68	15389
914.793	15408
914.906	15100
915.019	15100
915.132	15142
915.245	15017
915.358	15154
915.47	15150
915.583	15028
915.696	15211
915.809	15230
915.921	15233
916.034	15146
916.146	15005
916.259	15024
916.371	15047
916.483	15100
916.595	14956
916.708	14902
916.82	14937
916.932	14921
917.044	14960
917.156	14948
917.268	14678
917.38	14785
917.491	14678
917.603	14792
917.715	14880
917.826	14933
917.938	14682
918.049	14568
918.161	14781
918.272	14872
918.384	14887
918.495	14682
918.606	14533
918.717	14473
918.828	14541
918.939	14507
919.05	14473
919.161	14438
919.272	14286
919.383	14461
919.494	14560
919.604	14663
919.715	14507
919.826	14450
919.936	14476
920.047	14526
920.157	14503
920.267	14678
920.378	14503
920.488	14537
920.598	14632
920.708	14708
920.818	14541
920.928	14610
921.038	14804
921.148	14724
921.258	14492
921.368	14343
921.477	14225
921.587	14248
921.697	14107
921.806	14233
921.916	14088
922.025	13791
922.134	13784
922.244	13864
922.353	13868
922.462	13685
922.571	13712
922.68	13552
922.789	13483
922.898	13537
923.007	13499
923.116	13556
923.224	13495
923.333	13499
923.442	13335
923.55	13244
923.659	13369
923.767	13365
923.876	13289
923.984	13278
924.092	13213
924.201	13270
924.309	13266
924.417	13221
924.525	13171
924.633	13228
924.741	13849
924.849	12894
924.956	13110
925.064	13038
925.172	12943
925.279	12928
925.387	12935
925.494	12859
925.602	12981
925.709	12981
925.816	12859
925.924	12848
926.031	12951
926.138	12852
926.245	12996
926.352	12795
926.459	12913
926.566	12897
926.673	12837
926.779	12722
926.886	12688
926.993	12502
927.099	12513
927.206	12426
927.312	12437
927.419	12521
927.525	12380
927.631	12506
927.737	12403
927.843	12418
927.95	12289
928.056	12346
928.162	12346
928.267	12346
928.373	12814
928.479	12418
928.585	12205
928.69	12239
928.796	12262
928.901	12262
929.007	12087
929.112	12117
929.218	12152
929.323	12060
929.428	12026
929.533	12175
929.638	11920
929.743	12011
929.848	12022
929.953	11992
930.058	11847
930.163	11752
930.267	11703
930.372	11859
930.477	11676
930.581	11904
930.685	11745
930.79	11608
930.894	11600
930.998	11570
931.103	11737
931.207	11356
931.311	11239
931.415	11242
931.519	11052
931.623	10991
