Data from test_V78500241_3038.txt Node
Date: Fri Mar 25 15:31:00 CST 2022
User: usil
Spectrometer: V785-0024
Trigger mode: 0
Integration Time (sec): 4.000000E-1
Scans to average: 1
Nonlinearity correction enabled: false
Boxcar width: 0
Storing dark spectrum: false
XAxis mode: Wavelengths
Number of Pixels in Spectrum: 1024
>>>>>Begin Spectral Data<<<<<
801.071	27188
801.214	27291
801.356	27058
801.499	26834
801.641	26864
801.783	26765
801.926	26914
802.068	26727
802.211	26689
802.353	26587
802.496	26682
802.638	26473
802.78	26484
802.923	26290
803.065	26202
803.208	26263
803.35	26415
803.492	26549
803.635	26705
803.777	26552
803.919	26625
804.061	26838
804.204	26727
804.346	26522
804.488	26526
804.63	26507
804.773	26511
804.915	26537
805.057	26727
805.199	26545
805.341	26602
805.483	26495
805.626	26765
805.768	26526
805.91	26773
806.052	26777
806.194	26686
806.336	26861
806.478	26743
806.62	26693
806.762	26899
806.904	27028
807.046	27218
807.188	26982
807.33	27108
807.472	27287
807.614	27028
807.756	27005
807.898	26948
808.04	26918
808.182	26823
808.324	26956
808.465	26994
808.607	27192
808.749	27192
808.891	27389
809.033	27420
809.174	27416
809.316	27348
809.458	27344
809.6	27252
809.741	27367
809.883	27397
810.025	27595
810.166	27698
810.308	27633
810.45	27633
810.591	27504
810.733	27218
810.875	27283
811.016	27161
811.158	27165
811.299	27351
811.441	27374
811.582	27454
811.724	27317
811.865	27211
812.007	27256
812.148	27211
812.29	27355
812.431	27439
812.573	27568
812.714	27682
812.855	27793
812.997	27861
813.138	28093
813.279	27953
813.421	27717
813.562	27698
813.703	27633
813.845	27420
813.986	27226
814.127	26918
814.268	26933
814.41	27020
814.551	26891
814.692	27070
814.833	26807
814.974	26883
815.115	26940
815.256	26929
815.397	26876
815.539	26876
815.68	26644
815.821	26678
815.962	26758
816.103	26842
816.244	26613
816.385	26537
816.526	26533
816.666	26305
816.807	26145
816.948	26313
817.089	26309
817.23	26199
817.371	26126
817.512	26225
817.653	26252
817.793	26062
817.934	26119
818.075	26100
818.216	26202
818.356	26062
818.497	26084
818.638	25917
818.778	26043
818.919	25955
819.06	25909
819.2	26046
819.341	26248
819.481	26210
819.622	26347
819.762	26564
819.903	26484
820.043	26343
820.184	26381
820.324	26336
820.465	26278
820.605	26176
820.746	26259
820.886	26100
821.026	26210
821.167	26176
821.307	26138
821.447	26161
821.588	26111
821.728	25864
821.868	25807
822.008	25715
822.149	25643
822.289	25613
822.429	25483
822.569	25358
822.709	25324
822.849	25065
822.99	25202
823.13	24981
823.27	25065
823.41	25015
823.55	24802
823.69	24920
823.83	24951
823.97	24947
824.11	24753
824.25	24677
824.389	24681
824.529	24837
824.669	24749
824.809	24867
824.949	24882
825.089	24787
825.228	24776
825.368	24574
825.508	24570
825.648	24646
825.787	24700
825.927	24757
826.067	24559
826.206	24684
826.346	24639
826.485	24760
826.625	24589
826.765	24787
826.904	24764
827.044	24464
827.183	24582
827.323	24350
827.462	24426
827.601	24266
827.741	24380
827.88	24410
828.02	24186
828.159	24391
828.298	24334
828.437	24365
828.577	24372
828.716	24502
828.855	24228
828.994	24110
829.134	24049
829.273	24095
829.412	23950
829.551	24030
829.69	24007
829.829	24125
829.968	23954
830.107	24201
830.246	23961
830.385	23980
830.524	23988
830.663	23771
830.802	23813
830.941	23676
831.08	23649
831.219	23843
831.357	23710
831.496	23771
831.635	23695
831.774	23638
831.913	23604
832.051	23459
832.19	23410
832.329	23391
832.467	23467
832.606	23261
832.744	23189
832.883	23292
833.022	23334
833.16	23425
833.299	23395
833.437	23307
833.576	23417
833.714	23463
833.852	23558
833.991	23425
834.129	23467
834.267	23455
834.406	23402
834.544	23486
834.682	23284
834.821	23296
834.959	23512
835.097	23284
835.235	23493
835.373	23322
835.511	23383
835.65	23216
835.788	23235
835.926	23041
836.064	23010
836.202	23147
836.34	23322
836.478	23261
836.615	23220
836.753	23170
836.891	23318
837.029	23250
837.167	23136
837.305	23109
837.443	23162
837.58	23010
837.718	23140
837.856	23060
837.993	22965
838.131	23197
838.269	22911
838.406	22892
838.544	22869
838.681	22793
838.819	22691
838.956	22599
839.094	22626
839.231	22618
839.369	22831
839.506	22949
839.643	22873
839.781	22565
839.918	22554
840.055	22512
840.193	22531
840.33	22546
840.467	22626
840.604	22512
840.742	22733
840.879	22287
841.016	22440
841.153	22303
841.29	22588
841.427	22466
841.564	22478
841.701	22424
841.838	22386
841.975	22394
842.112	22360
842.249	22181
842.385	22306
842.522	22436
842.659	22211
842.796	22204
842.933	22265
843.069	22181
843.206	22238
843.343	22249
843.479	22207
843.616	22299
843.752	22063
843.889	22074
844.025	22055
844.162	22059
844.298	22040
844.435	22017
844.571	21991
844.708	22021
844.844	22112
844.98	22055
845.117	21998
845.253	21876
845.389	21816
845.525	21812
845.661	21838
845.798	21854
845.934	21899
846.07	21823
846.206	21781
846.342	21907
846.478	21694
846.614	21625
846.75	21504
846.886	21511
847.022	21507
847.158	21496
847.294	21469
847.429	21492
847.565	21564
847.701	21682
847.837	21249
847.972	21176
848.108	21348
848.244	21249
848.379	21116
848.515	20998
848.65	21062
848.786	21104
848.921	21009
849.057	21218
849.192	21123
849.328	21131
849.463	21074
849.598	21154
849.734	20956
849.869	20887
850.004	20800
850.14	20842
850.275	20902
850.41	20705
850.545	20765
850.68	20834
850.815	20963
850.95	20975
851.085	20944
851.22	20982
851.355	20701
851.49	20815
851.625	20811
851.76	20830
851.895	20750
852.03	20686
852.165	20830
852.299	20986
852.434	20925
852.569	20800
852.703	20921
852.838	20963
852.973	20948
853.107	20823
853.242	20845
853.376	20769
853.511	20552
853.645	20659
853.78	20849
853.914	20678
854.048	20648
854.183	20659
854.317	20670
854.451	20933
854.585	20765
854.72	20659
854.854	20750
854.988	20606
855.122	20621
855.256	20393
855.39	20659
855.524	20804
855.658	20689
855.792	20705
855.926	20727
856.06	20754
856.194	20830
856.327	20533
856.461	20587
856.595	20598
856.729	20606
856.862	20670
856.996	20667
857.13	20648
857.263	20705
857.397	20750
857.53	20743
857.664	20678
857.797	20758
857.931	20758
858.064	20708
858.197	20727
858.331	20708
858.464	20571
858.597	20606
858.731	20537
858.864	20583
858.997	20564
859.13	20727
859.263	20697
859.396	20587
859.529	20705
859.662	20682
859.795	20484
859.928	20724
860.061	20724
860.194	20769
860.327	20663
860.46	20727
860.592	20811
860.725	20788
860.858	20937
860.99	20636
861.123	20613
861.256	20617
861.388	20720
861.521	21332
861.653	20583
861.786	20465
861.918	20457
862.05	20507
862.183	20518
862.315	20571
862.447	20663
862.58	20621
862.712	20389
862.844	20415
862.976	20412
863.108	20549
863.24	20853
863.372	20343
863.504	20355
863.636	20347
863.768	20419
863.9	20446
864.032	20351
864.164	20374
864.296	20438
864.428	20522
864.559	20427
864.691	20484
864.823	20385
864.954	20237
865.086	20374
865.217	20298
865.349	20191
865.48	20305
865.612	20298
865.743	20431
865.875	20275
866.006	20180
866.137	20294
866.269	20267
866.4	20252
866.531	20271
866.662	20153
866.793	20221
866.924	20237
867.055	20320
867.186	20301
867.317	20164
867.448	20233
867.579	20294
867.71	20145
867.841	20115
867.972	20195
868.103	20206
868.233	20298
868.364	20168
868.495	20237
868.625	20431
868.756	20484
868.886	20339
869.017	20473
869.147	20598
869.278	20560
869.408	20514
869.539	20461
869.669	20541
869.799	20533
869.929	20655
870.06	20590
870.19	20830
870.32	20796
870.45	20857
870.58	20842
870.71	21001
870.84	20990
870.97	20876
871.1	20842
871.23	21047
871.36	21039
871.489	21020
871.619	21070
871.749	21116
871.879	21062
872.008	21150
872.138	21096
872.267	20979
872.397	21043
872.526	20952
872.656	20929
872.785	20937
872.915	21089
873.044	21180
873.173	21230
873.303	21074
873.432	21131
873.561	21138
873.69	21173
873.819	21135
873.948	21131
874.077	21180
874.206	21024
874.335	21047
874.464	21176
874.593	21374
874.722	21230
874.851	21313
874.979	21279
875.108	21443
875.237	21252
875.365	21325
875.494	21382
875.623	21435
875.751	21363
875.88	21332
876.008	21424
876.136	21443
876.265	21705
876.393	21907
876.521	21865
876.65	21789
876.778	21759
876.906	21705
877.034	21694
877.162	21755
877.29	21641
877.418	21641
877.546	21720
877.674	21614
877.802	21675
877.93	21755
878.058	21587
878.185	21618
878.313	21606
878.441	21641
878.568	21504
878.696	21629
878.824	21652
878.951	21656
879.079	21846
879.206	21861
879.333	21732
879.461	21774
879.588	21819
879.715	21880
879.842	21934
879.97	21793
880.097	21530
880.224	21542
880.351	21591
880.478	21545
880.605	21485
880.732	21511
880.859	21618
880.986	21519
881.112	21637
881.239	21374
881.366	21336
881.493	21108
881.619	21036
881.746	21100
881.872	21138
881.999	21009
882.125	21017
882.252	21180
882.378	20994
882.505	21146
882.631	20948
882.757	20842
882.883	20849
883.01	20971
883.136	20701
883.262	20651
883.388	20674
883.514	20712
883.64	20796
883.766	20765
883.892	20667
884.018	20621
884.143	20823
884.269	20785
884.395	20366
884.52	20488
884.646	20465
884.772	20438
884.897	20438
885.023	20259
885.148	20609
885.274	20674
885.399	20518
885.524	20339
885.65	20347
885.775	20492
885.9	20457
886.025	20587
886.15	20552
886.275	20377
886.4	20320
886.525	20377
886.65	20370
886.775	20438
886.9	20457
887.025	20617
887.149	20377
887.274	20282
887.399	20256
887.523	20229
887.648	20172
887.773	20084
887.897	20332
888.021	20419
888.146	20298
888.27	20366
888.395	20259
888.519	20210
888.643	20305
888.767	20275
888.891	20180
889.015	20050
889.139	20065
889.263	19982
889.387	20065
889.511	20161
889.635	20180
889.759	20031
889.883	20084
890.006	19997
890.13	20100
890.254	19963
890.377	19970
890.501	19811
890.624	19765
890.748	19780
890.871	19635
890.995	19529
891.118	19518
891.241	19510
891.364	19582
891.488	19776
891.611	19616
891.734	19601
891.857	19597
891.98	19571
892.103	19662
892.226	19597
892.349	19575
892.471	19487
892.594	19556
892.717	19597
892.839	19590
892.962	19586
893.085	19548
893.207	19540
893.33	19419
893.452	19441
893.575	19449
893.697	19499
893.819	19635
893.941	19727
894.064	19635
894.186	19594
894.308	19434
894.43	19559
894.552	19814
894.674	19712
894.796	19499
894.918	19460
895.04	19377
895.161	19647
895.283	19499
895.405	19518
895.526	19586
895.648	19537
895.769	19666
895.891	19643
896.012	19590
896.134	19658
896.255	19563
896.376	19567
896.498	19529
896.619	19590
896.74	19537
896.861	19594
896.982	19818
897.103	19868
897.224	19830
897.345	19795
897.466	19647
897.587	19791
897.708	19974
897.828	19826
897.949	19674
898.07	19567
898.19	19727
898.311	19860
898.431	19742
898.552	19666
898.672	19791
898.792	19769
898.913	19719
899.033	19670
899.153	19537
899.273	19525
899.393	19609
899.513	19559
899.633	19552
899.753	19460
899.873	19403
899.993	19495
900.113	19540
900.232	19506
900.352	19449
900.472	19289
900.591	19297
900.711	19362
900.83	19190
900.95	19339
901.069	19316
901.189	19285
901.308	19072
901.427	18867
901.546	18962
901.665	18958
901.784	18875
901.904	18745
902.023	18692
902.141	18490
902.26	18452
902.379	18616
902.498	18407
902.617	18372
902.735	18509
902.854	18528
902.973	18369
903.091	18098
903.21	18102
903.328	18091
903.446	18022
903.565	17901
903.683	17931
903.801	17942
903.919	17988
904.038	17912
904.156	17729
904.274	17752
904.392	17619
904.51	17729
904.627	17764
904.745	17726
904.863	17615
904.981	17505
905.098	17258
905.216	17288
905.334	17364
905.451	17379
905.569	17368
905.686	17410
905.803	17455
905.921	17170
906.038	17265
906.155	17060
906.272	16934
906.389	17018
906.506	16900
906.623	16919
906.74	16896
906.857	16835
906.974	16778
907.091	16953
907.208	17037
907.324	16953
907.441	16653
907.557	16710
907.674	16656
907.79	16622
907.907	16622
908.023	16618
908.139	16584
908.256	16535
908.372	16538
908.488	16519
908.604	16360
908.72	16352
908.836	16314
908.952	16382
909.068	16303
909.184	16466
909.3	16284
909.415	16413
909.531	16382
909.647	16112
909.762	16032
909.878	16002
909.993	16116
910.108	16074
910.224	16036
910.339	15956
910.454	15926
910.57	15808
910.685	15766
910.8	16097
910.915	15926
911.03	15934
911.145	15698
911.259	15694
911.374	15496
911.489	15652
911.604	15530
911.718	15443
911.833	15393
911.947	15389
912.062	15313
912.176	15401
912.291	15492
912.405	15412
912.519	15618
912.633	15671
912.748	15450
912.862	15355
912.976	15283
913.09	15214
913.204	15192
913.318	15233
913.431	15268
913.545	15222
913.659	15401
913.772	15142
913.886	15070
914	14979
914.113	15032
914.226	15135
914.34	15104
914.453	14887
914.566	15055
914.68	14929
914.793	14937
914.906	14712
915.019	14629
915.132	14735
915.245	14708
915.358	14648
915.47	14663
915.583	14781
915.696	14575
915.809	14815
915.921	14792
916.034	14575
916.146	14541
916.259	14617
916.371	14632
916.483	14537
916.595	14450
916.708	14469
916.82	14484
916.932	14469
917.044	14427
917.156	14434
917.268	14278
917.38	14282
917.491	14278
917.603	14366
917.715	14393
917.826	14450
917.938	14275
918.049	14199
918.161	14240
918.272	14347
918.384	14355
918.495	14328
918.606	14134
918.717	14077
918.828	14115
918.939	14126
919.05	14016
919.161	14149
919.272	13868
919.383	13913
919.494	14142
919.604	14271
919.715	14138
919.826	13978
919.936	14050
920.047	14123
920.157	14088
920.267	14286
920.378	14073
920.488	13932
920.598	14107
920.708	14328
920.818	14199
920.928	14172
921.038	14370
921.148	14278
921.258	14012
921.368	13902
921.477	13780
921.587	13818
921.697	13757
921.806	13845
921.916	13636
922.025	13552
922.134	13559
922.244	13438
922.353	13472
922.462	13381
922.571	13255
922.68	13209
922.789	13095
922.898	13076
923.007	13061
923.116	13107
923.224	13027
923.333	13084
923.442	12989
923.55	12973
923.659	13046
923.767	12935
923.876	12909
923.984	12905
924.092	12962
924.201	12875
924.309	12837
924.417	12859
924.525	12798
924.633	12837
924.741	13677
924.849	12585
924.956	12772
925.064	12570
925.172	12513
925.279	12563
925.387	12612
925.494	12540
925.602	12604
925.709	12578
925.816	12422
925.924	12513
926.031	12574
926.138	12429
926.245	12563
926.352	12414
926.459	12559
926.566	12578
926.673	12486
926.779	12247
926.886	12292
926.993	12213
927.099	12175
927.206	12114
927.312	12095
927.419	12239
927.525	12140
927.631	12148
927.737	12057
927.843	11931
927.95	11882
928.056	11878
928.162	12041
928.267	12053
928.373	12650
928.479	11999
928.585	11779
928.69	11897
928.796	11965
928.901	11847
929.007	11718
929.112	11805
929.218	11771
929.323	11695
929.428	11604
929.533	11771
929.638	11619
929.743	11592
929.848	11695
929.953	11653
930.058	11558
930.163	11307
930.267	11391
930.372	11493
930.477	11379
930.581	11630
930.685	11387
930.79	11239
930.894	11356
930.998	11261
931.103	11448
931.207	11060
931.311	10987
931.415	10904
931.519	10710
931.623	10691
