Data from test_V78500241_490.txt Node
Date: Fri Mar 25 15:13:16 CST 2022
User: usil
Spectrometer: V785-0024
Trigger mode: 0
Integration Time (sec): 4.000000E-1
Scans to average: 1
Nonlinearity correction enabled: false
Boxcar width: 0
Storing dark spectrum: false
XAxis mode: Wavelengths
Number of Pixels in Spectrum: 1024
>>>>>Begin Spectral Data<<<<<
801.071	27519
801.214	27435
801.356	27112
801.499	27233
801.641	27020
801.783	27032
801.926	27108
802.068	27093
802.211	26887
802.353	26891
802.496	26731
802.638	26758
802.78	26636
802.923	26648
803.065	26541
803.208	26701
803.35	26705
803.492	26906
803.635	26777
803.777	26754
803.919	27017
804.061	27074
804.204	26796
804.346	26712
804.488	26769
804.63	26819
804.773	26849
804.915	26906
805.057	26940
805.199	26914
805.341	26887
805.483	26960
805.626	26944
805.768	27009
805.91	26864
806.052	27005
806.194	26902
806.336	27089
806.478	26963
806.62	27108
806.762	27051
806.904	27256
807.046	27450
807.188	27462
807.33	27329
807.472	27496
807.614	27294
807.756	27378
807.898	27245
808.04	27104
808.182	27241
808.324	27294
808.465	27268
808.607	27393
808.749	27359
808.891	27557
809.033	27751
809.174	27625
809.316	27496
809.458	27591
809.6	27427
809.741	27694
809.883	27717
810.025	27838
810.166	27842
810.308	27842
810.45	27873
810.591	27804
810.733	27675
810.875	27545
811.016	27427
811.158	27458
811.299	27606
811.441	27812
811.582	27679
811.724	27629
811.865	27568
812.007	27625
812.148	27473
812.29	27488
812.431	27842
812.573	28021
812.714	27918
812.855	28234
812.997	28158
813.138	28394
813.279	28154
813.421	28162
813.562	28093
813.703	27701
813.845	27713
813.986	27477
814.127	27283
814.268	27222
814.41	27275
814.551	27135
814.692	27325
814.833	27188
814.974	27150
815.115	27275
815.256	27013
815.397	27233
815.539	27150
815.68	27165
815.821	27188
815.962	27146
816.103	26960
816.244	26861
816.385	26781
816.526	26621
816.666	26632
816.807	26579
816.948	26663
817.089	26659
817.23	26579
817.371	26670
817.512	26492
817.653	26469
817.793	26355
817.934	26609
818.075	26617
818.216	26575
818.356	26507
818.497	26480
818.638	26339
818.778	26282
818.919	26366
819.06	26385
819.2	26473
819.341	26461
819.481	26518
819.622	26670
819.762	26929
819.903	26921
820.043	26758
820.184	26769
820.324	26689
820.465	26781
820.605	26644
820.746	26552
820.886	26571
821.026	26686
821.167	26575
821.307	26777
821.447	26541
821.588	26469
821.728	26244
821.868	26244
822.008	26043
822.149	26096
822.289	25890
822.429	25799
822.569	25685
822.709	25620
822.849	25594
822.99	25464
823.13	25491
823.27	25533
823.41	25301
823.55	25141
823.69	25430
823.83	25206
823.97	25297
824.11	25156
824.25	25050
824.389	25107
824.529	25194
824.669	25190
824.809	25175
824.949	25183
825.089	25278
825.228	25240
825.368	25076
825.508	25126
825.648	24939
825.787	25042
825.927	25053
826.067	25031
826.206	24939
826.346	25012
826.485	24939
826.625	24844
826.765	25099
826.904	25046
827.044	24783
827.183	24715
827.323	24673
827.462	24688
827.601	24787
827.741	24730
827.88	24810
828.02	24578
828.159	24688
828.298	24825
828.437	24757
828.577	24734
828.716	24772
828.855	24684
828.994	24395
829.134	24372
829.273	24475
829.412	24353
829.551	24315
829.69	24475
829.829	24547
829.968	24681
830.107	24528
830.246	24357
830.385	24388
830.524	24426
830.663	24251
830.802	24106
830.941	24026
831.08	24015
831.219	24178
831.357	24155
831.496	24194
831.635	24026
831.774	23908
831.913	23885
832.051	23912
832.19	23904
832.329	23893
832.467	23745
832.606	23657
832.744	23756
832.883	23722
833.022	23668
833.16	23798
833.299	23893
833.437	23748
833.576	23885
833.714	23802
833.852	23824
833.991	23897
834.129	23878
834.267	23767
834.406	23775
834.544	23942
834.682	23771
834.821	23767
834.959	24003
835.097	23726
835.235	23710
835.373	23783
835.511	23828
835.65	23695
835.788	23729
835.926	23668
836.064	23486
836.202	23524
836.34	23661
836.478	23573
836.615	23687
836.753	23653
836.891	23585
837.029	23676
837.167	23585
837.305	23634
837.443	23433
837.58	23520
837.718	23615
837.856	23551
837.993	23467
838.131	23570
838.269	23433
838.406	23452
838.544	23372
838.681	23155
838.819	23056
838.956	23010
839.094	22889
839.231	23022
839.369	23227
839.506	23250
839.643	23117
839.781	22904
839.918	22850
840.055	22972
840.193	22889
840.33	22858
840.467	22733
840.604	22934
840.742	23090
840.879	22691
841.016	22816
841.153	22866
841.29	22938
841.427	22889
841.564	22995
841.701	22869
841.838	22904
841.975	22744
842.112	22778
842.249	22854
842.385	22706
842.522	22786
842.659	22641
842.796	22557
842.933	22550
843.069	22588
843.206	22573
843.343	22569
843.479	22653
843.616	22641
843.752	22470
843.889	22405
844.025	22660
844.162	22440
844.298	22603
844.435	22413
844.571	22337
844.708	22451
844.844	22538
844.98	22497
845.117	22603
845.253	22257
845.389	22280
845.525	22367
845.661	22318
845.798	22211
845.934	22272
846.07	22101
846.206	22337
846.342	22249
846.478	22246
846.614	22086
846.75	21861
846.886	21972
847.022	21964
847.158	21991
847.294	21937
847.429	21994
847.565	21873
847.701	22135
847.837	21819
847.972	21580
848.108	21637
848.244	21686
848.379	21549
848.515	21507
848.65	21454
848.786	21530
848.921	21488
849.057	21667
849.192	21557
849.328	21534
849.463	21523
849.598	21511
849.734	21416
849.869	21405
850.004	21298
850.14	21374
850.275	21420
850.41	21207
850.545	21241
850.68	21256
850.815	21275
850.95	21237
851.085	21416
851.22	21420
851.355	21321
851.49	21264
851.625	21100
851.76	21237
851.895	21062
852.03	21222
852.165	21321
852.299	21325
852.434	21367
852.569	21233
852.703	21230
852.838	21268
852.973	21435
853.107	21386
853.242	21192
853.376	21062
853.511	20994
853.645	21013
853.78	21146
853.914	21150
854.048	21119
854.183	21085
854.317	21154
854.451	21256
854.585	21188
854.72	21070
854.854	21119
854.988	21020
855.122	21055
855.256	20944
855.39	21127
855.524	21173
855.658	21020
855.792	21150
855.926	21112
856.06	21070
856.194	21203
856.327	21062
856.461	21192
856.595	21142
856.729	21192
856.862	21245
856.996	21154
857.13	21222
857.263	21207
857.397	21211
857.53	21100
857.664	21089
857.797	21192
857.931	21192
858.064	21112
858.197	21287
858.331	20918
858.464	21077
858.597	20902
858.731	21001
858.864	21039
858.997	21119
859.13	21058
859.263	21146
859.396	21142
859.529	21036
859.662	21051
859.795	21070
859.928	21055
860.061	21260
860.194	21344
860.327	21055
860.46	21096
860.592	21176
860.725	21184
860.858	21184
860.99	21081
861.123	20956
861.256	20963
861.388	21028
861.521	21861
861.653	21089
861.786	20861
861.918	20925
862.05	20918
862.183	20982
862.315	21009
862.447	21055
862.58	21024
862.712	20864
862.844	20804
862.976	20990
863.108	20887
863.24	21203
863.372	20689
863.504	20765
863.636	20921
863.768	20823
863.9	20754
864.032	20804
864.164	20762
864.296	20921
864.428	20876
864.559	20796
864.691	20811
864.823	20804
864.954	20880
865.086	20788
865.217	20659
865.349	20587
865.48	20708
865.612	20857
865.743	20864
865.875	20648
866.006	20526
866.137	20644
866.269	20606
866.4	20670
866.531	20609
866.662	20530
866.793	20571
866.924	20712
867.055	20716
867.186	20678
867.317	20568
867.448	20492
867.579	20651
867.71	20549
867.841	20632
867.972	20667
868.103	20644
868.233	20632
868.364	20632
868.495	20800
868.625	20788
868.756	20880
868.886	20769
869.017	20876
869.147	20937
869.278	21089
869.408	20876
869.539	20868
869.669	20899
869.799	20967
869.929	20914
870.06	20937
870.19	21089
870.32	21036
870.45	21237
870.58	21230
870.71	21458
870.84	21302
870.97	21310
871.1	21268
871.23	21416
871.36	21351
871.489	21306
871.619	21492
871.749	21374
871.879	21481
872.008	21530
872.138	21485
872.267	21420
872.397	21294
872.526	21294
872.656	21268
872.785	21348
872.915	21469
873.044	21599
873.173	21401
873.303	21523
873.432	21641
873.561	21637
873.69	21431
873.819	21492
873.948	21511
874.077	21492
874.206	21325
874.335	21351
874.464	21542
874.593	21648
874.722	21694
874.851	21808
874.979	21797
875.108	21838
875.237	21690
875.365	21637
875.494	21667
875.623	21797
875.751	21739
875.88	21679
876.008	21812
876.136	21911
876.265	22109
876.393	22196
876.521	22188
876.65	22234
876.778	22185
876.906	22105
877.034	22025
877.162	22162
877.29	21953
877.418	22074
877.546	22120
877.674	22048
877.802	22055
877.93	21975
878.058	22120
878.185	21895
878.313	22025
878.441	21987
878.568	21956
878.696	21991
878.824	22067
878.951	22154
879.079	22093
879.206	22417
879.333	22246
879.461	22070
879.588	22230
879.715	22299
879.842	22382
879.97	22143
880.097	22010
880.224	21793
880.351	21911
880.478	21899
880.605	21789
880.732	21915
880.859	22177
880.986	21922
881.112	21915
881.239	21876
881.366	21663
881.493	21496
881.619	21481
881.746	21511
881.872	21447
881.999	21469
882.125	21310
882.252	21511
882.378	21401
882.505	21526
882.631	21237
882.757	21135
882.883	21389
883.01	21268
883.136	21146
883.262	21085
883.388	21001
883.514	21252
883.64	21268
883.766	21199
883.892	20849
884.018	21051
884.143	21150
884.269	21222
884.395	20895
884.52	20956
884.646	20956
884.772	20720
884.897	20800
885.023	20864
885.148	20899
885.274	21074
885.399	20933
885.524	20906
885.65	20914
885.775	21001
885.9	20902
886.025	20986
886.15	20982
886.275	20800
886.4	20876
886.525	20864
886.65	20853
886.775	20693
886.9	20921
887.025	20952
887.149	20868
887.274	20625
887.399	20533
887.523	20598
887.648	20651
887.773	20480
887.897	20705
888.021	20667
888.146	20617
888.27	20796
888.395	20727
888.519	20785
888.643	20754
888.767	20682
888.891	20579
889.015	20541
889.139	20499
889.263	20328
889.387	20446
889.511	20708
889.635	20598
889.759	20412
889.883	20412
890.006	20568
890.13	20514
890.254	20332
890.377	20305
890.501	20256
890.624	20088
890.748	20172
890.871	20062
890.995	20008
891.118	19986
891.241	20012
891.364	19974
891.488	20164
891.611	20027
891.734	20077
891.857	20073
891.98	20100
892.103	20031
892.226	20046
892.349	19871
892.471	19890
892.594	19837
892.717	19849
892.839	19921
892.962	19883
893.085	20058
893.207	19879
893.33	19902
893.452	19738
893.575	19951
893.697	19932
893.819	20126
893.941	20134
894.064	19978
894.186	19784
894.308	19761
894.43	19993
894.552	19967
894.674	19963
894.796	19898
894.918	19890
895.04	19875
895.161	20012
895.283	19947
895.405	19921
895.526	19856
895.648	19841
895.769	19917
895.891	19845
896.012	19955
896.134	19890
896.255	19940
896.376	19837
896.498	19913
896.619	19906
896.74	19890
896.861	19894
896.982	20225
897.103	20309
897.224	20195
897.345	20046
897.466	19982
897.587	20100
897.708	20282
897.828	20168
897.949	20054
898.07	19894
898.19	20069
898.311	20176
898.431	20077
898.552	20077
898.672	20134
898.792	20168
898.913	20221
899.033	19913
899.153	19989
899.273	19780
899.393	19830
899.513	19921
899.633	19921
899.753	19883
899.873	19723
899.993	19852
900.113	19826
900.232	19833
900.352	19841
900.472	19693
900.591	19677
900.711	19689
900.83	19422
900.95	19727
901.069	19712
901.189	19537
901.308	19244
901.427	19320
901.546	19304
901.665	19156
901.784	19274
901.904	19050
902.023	18905
902.141	18810
902.26	18730
902.379	18856
902.498	18795
902.617	18753
902.735	18764
902.854	18798
902.973	18623
903.091	18418
903.21	18422
903.328	18388
903.446	18262
903.565	18323
903.683	18323
903.801	18171
903.919	18232
904.038	18197
904.156	17961
904.274	18045
904.392	17851
904.51	17885
904.627	18015
904.745	18019
904.863	17984
904.981	17752
905.098	17745
905.216	17691
905.334	17775
905.451	17722
905.569	17786
905.686	17687
905.803	17752
905.921	17463
906.038	17566
906.155	17471
906.272	17417
906.389	17315
906.506	17227
906.623	17208
906.74	17239
906.857	17216
906.974	17174
907.091	17349
907.208	17322
907.324	17216
907.441	17056
907.557	16908
907.674	16934
907.79	16869
907.907	16862
908.023	16927
908.139	16938
908.256	16965
908.372	16797
908.488	16801
908.604	16713
908.72	16637
908.836	16637
908.952	16580
909.068	16679
909.184	16824
909.3	16706
909.415	16740
909.531	16660
909.647	16402
909.762	16341
909.878	16398
909.993	16424
910.108	16265
910.224	16276
910.339	16322
910.454	16181
910.57	16223
910.685	16063
910.8	16314
910.915	16375
911.03	16139
911.145	16116
911.259	15926
911.374	15972
911.489	15945
911.604	15804
911.718	15717
911.833	15701
911.947	15561
912.062	15564
912.176	15755
912.291	15701
912.405	15667
912.519	15888
912.633	15835
912.748	15705
912.862	15717
912.976	15603
913.09	15545
913.204	15526
913.318	15564
913.431	15637
913.545	15599
913.659	15561
913.772	15424
913.886	15428
914	15313
914.113	15405
914.226	15469
914.34	15469
914.453	15291
914.566	15408
914.68	15230
914.793	15192
914.906	15077
915.019	14921
915.132	14906
915.245	14975
915.358	14971
915.47	14845
915.583	14975
915.696	14948
915.809	15036
915.921	15028
916.034	14921
916.146	14819
916.259	14830
916.371	14918
916.483	14941
916.595	14773
916.708	14796
916.82	14769
916.932	14644
917.044	14758
917.156	14716
917.268	14587
917.38	14667
917.491	14625
917.603	14583
917.715	14602
917.826	14682
917.938	14613
918.049	14503
918.161	14564
918.272	14663
918.384	14712
918.495	14552
918.606	14374
918.717	14355
918.828	14301
918.939	14347
919.05	14332
919.161	14355
919.272	14187
919.383	14202
919.494	14381
919.604	14579
919.715	14362
919.826	14271
919.936	14324
920.047	14450
920.157	14355
920.267	14495
920.378	14370
920.488	14252
920.598	14556
920.708	14556
920.818	14461
920.928	14454
921.038	14667
921.148	14568
921.258	14328
921.368	14218
921.477	14073
921.587	14115
921.697	13921
921.806	14130
921.916	13936
922.025	13811
922.134	13715
922.244	13639
922.353	13799
922.462	13601
922.571	13518
922.68	13384
922.789	13324
922.898	13407
923.007	13308
923.116	13301
923.224	13403
923.333	13259
923.442	13232
923.55	13175
923.659	13194
923.767	13225
923.876	13190
923.984	13225
924.092	13080
924.201	13137
924.309	13137
924.417	13069
924.525	13084
924.633	13034
924.741	13883
924.849	12833
924.956	12932
925.064	12806
925.172	12734
925.279	12821
925.387	12848
925.494	12791
925.602	12890
925.709	12878
925.816	12681
925.924	12779
926.031	12810
926.138	12673
926.245	12783
926.352	12639
926.459	12745
926.566	12814
926.673	12612
926.779	12601
926.886	12574
926.993	12506
927.099	12346
927.206	12334
927.312	12296
927.419	12338
927.525	12308
927.631	12391
927.737	12197
927.843	12186
927.95	12129
928.056	12178
928.162	12175
928.267	12262
928.373	12745
928.479	12213
928.585	12079
928.69	12060
928.796	12178
928.901	12129
929.007	11802
929.112	12144
929.218	11996
929.323	11984
929.428	11935
929.533	12136
929.638	11950
929.743	11843
929.848	11870
929.953	11847
930.058	11767
930.163	11566
930.267	11585
930.372	11756
930.477	11653
930.581	11817
930.685	11661
930.79	11558
930.894	11490
930.998	11440
931.103	11638
931.207	11235
931.311	11212
931.415	11075
931.519	10869
931.623	10892
