Data from test_V78500241_710.txt Node
Date: Fri Mar 25 15:14:48 CST 2022
User: usil
Spectrometer: V785-0024
Trigger mode: 0
Integration Time (sec): 4.000000E-1
Scans to average: 1
Nonlinearity correction enabled: false
Boxcar width: 0
Storing dark spectrum: false
XAxis mode: Wavelengths
Number of Pixels in Spectrum: 1024
>>>>>Begin Spectral Data<<<<<
801.071	27819
801.214	27876
801.356	27603
801.499	27778
801.641	27599
801.783	27576
801.926	27660
802.068	27477
802.211	27492
802.353	27287
802.496	27268
802.638	27256
802.78	27176
802.923	27055
803.065	27233
803.208	27135
803.35	27192
803.492	27249
803.635	27264
803.777	27310
803.919	27378
804.061	27576
804.204	27447
804.346	27226
804.488	27283
804.63	27408
804.773	27237
804.915	27500
805.057	27420
805.199	27207
805.341	27336
805.483	27637
805.626	27427
805.768	27374
805.91	27454
806.052	27515
806.194	27454
806.336	27568
806.478	27561
806.62	27389
806.762	27698
806.904	27759
807.046	27926
807.188	27888
807.33	27937
807.472	27926
807.614	27884
807.756	27835
807.898	27876
808.04	27686
808.182	27724
808.324	27816
808.465	27850
808.607	28017
808.749	28090
808.891	28230
809.033	28207
809.174	28238
809.316	28097
809.458	28101
809.6	28169
809.741	28246
809.883	28424
810.025	28451
810.166	28535
810.308	28500
810.45	28424
810.591	28280
810.733	28242
810.875	28169
811.016	28093
811.158	28086
811.299	28375
811.441	28253
811.582	28299
811.724	28124
811.865	28097
812.007	28051
812.148	28253
812.29	28207
812.431	28257
812.573	28493
812.714	28561
812.855	28557
812.997	28881
813.138	28942
813.279	28839
813.421	28763
813.562	28557
813.703	28512
813.845	28398
813.986	28051
814.127	27781
814.268	27762
814.41	27934
814.551	27800
814.692	27842
814.833	27732
814.974	27774
815.115	27804
815.256	27679
815.397	27656
815.539	27724
815.68	27785
815.821	27545
815.962	27682
816.103	27679
816.244	27538
816.385	27507
816.526	27447
816.666	27329
816.807	27108
816.948	27169
817.089	27427
817.23	27264
817.371	27180
817.512	27241
817.653	27081
817.793	26982
817.934	27077
818.075	27188
818.216	27161
818.356	27100
818.497	26971
818.638	26921
818.778	26956
818.919	26940
819.06	26994
819.2	27036
819.341	27199
819.481	27310
819.622	27268
819.762	27420
819.903	27424
820.043	27321
820.184	27245
820.324	27241
820.465	27340
820.605	27283
820.746	27367
820.886	27192
821.026	27302
821.167	27245
821.307	27370
821.447	27157
821.588	27123
821.728	26906
821.868	26758
822.008	26708
822.149	26545
822.289	26636
822.429	26442
822.569	26339
822.709	26290
822.849	26138
822.99	26237
823.13	26233
823.27	26180
823.41	25966
823.55	25845
823.69	25963
823.83	25944
823.97	25833
824.11	25902
824.25	25772
824.389	25727
824.529	25818
824.669	25761
824.809	25928
824.949	25944
825.089	25841
825.228	25906
825.368	25715
825.508	25818
825.648	25635
825.787	25658
825.927	25761
826.067	25624
826.206	25655
826.346	25734
826.485	25788
826.625	25605
826.765	25750
826.904	25780
827.044	25586
827.183	25365
827.323	25350
827.462	25434
827.601	25514
827.741	25316
827.88	25304
828.02	25259
828.159	25354
828.298	25502
828.437	25434
828.577	25365
828.716	25525
828.855	25312
828.994	25008
829.134	25004
829.273	25160
829.412	25194
829.551	25084
829.69	25114
829.829	24962
829.968	25118
830.107	25240
830.246	25053
830.385	25057
830.524	25015
830.663	24928
830.802	24783
830.941	24760
831.08	24665
831.219	24791
831.357	24840
831.496	24894
831.635	24779
831.774	24589
831.913	24532
832.051	24513
832.19	24410
832.329	24528
832.467	24437
832.606	24334
832.744	24414
832.883	24452
833.022	24350
833.16	24391
833.299	24479
833.437	24422
833.576	24422
833.714	24448
833.852	24517
833.991	24498
834.129	24464
834.267	24597
834.406	24441
834.544	24429
834.682	24464
834.821	24361
834.959	24490
835.097	24281
835.235	24475
835.373	24467
835.511	24464
835.65	24289
835.788	24266
835.926	24106
836.064	24155
836.202	24159
836.34	24353
836.478	24426
836.615	24213
836.753	24338
836.891	24395
837.029	24270
837.167	24254
837.305	24239
837.443	24167
837.58	24102
837.718	24163
837.856	24155
837.993	23954
838.131	23977
838.269	23935
838.406	24095
838.544	23942
838.681	23851
838.819	23703
838.956	23676
839.094	23524
839.231	23707
839.369	23657
839.506	23935
839.643	23726
839.781	23562
839.918	23433
840.055	23524
840.193	23516
840.33	23372
840.467	23577
840.604	23455
840.742	23611
840.879	23372
841.016	23421
841.153	23368
841.29	23608
841.427	23444
841.564	23444
841.701	23429
841.838	23368
841.975	23478
842.112	23364
842.249	23330
842.385	23220
842.522	23528
842.659	23242
842.796	23124
842.933	23246
843.069	23121
843.206	23174
843.343	23280
843.479	23242
843.616	23265
843.752	23006
843.889	23052
844.025	23102
844.162	22980
844.298	23193
844.435	23044
844.571	22934
844.708	23083
844.844	23159
844.98	23067
845.117	23140
845.253	23010
845.389	22896
845.525	22968
845.661	22961
845.798	22824
845.934	22961
846.07	22782
846.206	22816
846.342	22858
846.478	22847
846.614	22580
846.75	22398
846.886	22557
847.022	22493
847.158	22421
847.294	22470
847.429	22462
847.565	22440
847.701	22634
847.837	22200
847.972	22181
848.108	22276
848.244	22166
848.379	22055
848.515	22017
848.65	22040
848.786	21983
848.921	22025
849.057	22223
849.192	22082
849.328	22154
849.463	22090
849.598	22017
849.734	21972
849.869	21884
850.004	21804
850.14	21816
850.275	21816
850.41	21812
850.545	21835
850.68	21778
850.815	21854
850.95	21774
851.085	21994
851.22	21926
851.355	21789
851.49	21812
851.625	21880
851.76	21804
851.895	21656
852.03	21728
852.165	21789
852.299	21778
852.434	21869
852.569	21892
852.703	21804
852.838	21926
852.973	21991
853.107	21937
853.242	21747
853.376	21614
853.511	21485
853.645	21648
853.78	21751
853.914	21717
854.048	21652
854.183	21698
854.317	21652
854.451	21842
854.585	21561
854.72	21713
854.854	21846
854.988	21679
855.122	21641
855.256	21511
855.39	21583
855.524	21679
855.658	21599
855.792	21583
855.926	21755
856.06	21641
856.194	21739
856.327	21606
856.461	21671
856.595	21564
856.729	21568
856.862	21854
856.996	21656
857.13	21679
857.263	21762
857.397	21682
857.53	21603
857.664	21709
857.797	21633
857.931	21713
858.064	21694
858.197	21663
858.331	21720
858.464	21625
858.597	21618
858.731	21614
858.864	21545
858.997	21519
859.13	21751
859.263	21656
859.396	21713
859.529	21603
859.662	21629
859.795	21652
859.928	21656
860.061	21808
860.194	21884
860.327	21747
860.46	21572
860.592	21838
860.725	21876
860.858	21713
860.99	21576
861.123	21534
861.256	21549
861.388	21770
861.521	22447
861.653	21545
861.786	21507
861.918	21386
862.05	21481
862.183	21637
862.315	21660
862.447	21542
862.58	21564
862.712	21408
862.844	21302
862.976	21306
863.108	21226
863.24	21622
863.372	21306
863.504	21188
863.636	21283
863.768	21363
863.9	21317
864.032	21272
864.164	21374
864.296	21325
864.428	21412
864.559	21397
864.691	21344
864.823	21370
864.954	21363
865.086	21355
865.217	21329
865.349	21112
865.48	21306
865.612	21241
865.743	21412
865.875	21321
866.006	21252
866.137	21192
866.269	21237
866.4	21344
866.531	21203
866.662	21157
866.793	21146
866.924	21154
867.055	21192
867.186	21154
867.317	21127
867.448	21077
867.579	21237
867.71	21036
867.841	21032
867.972	21222
868.103	21135
868.233	21180
868.364	21192
868.495	21176
868.625	21412
868.756	21515
868.886	21203
869.017	21469
869.147	21523
869.278	21549
869.408	21447
869.539	21359
869.669	21469
869.799	21561
869.929	21469
870.06	21485
870.19	21606
870.32	21587
870.45	21766
870.58	21770
870.71	21998
870.84	22021
870.97	21884
871.1	21755
871.23	21865
871.36	22036
871.489	21934
871.619	21949
871.749	21892
871.879	21968
872.008	22116
872.138	22059
872.267	21975
872.397	21880
872.526	21861
872.656	21842
872.785	21838
872.915	21994
873.044	21998
873.173	22048
873.303	22051
873.432	22147
873.561	22029
873.69	22040
873.819	22078
873.948	22067
874.077	21956
874.206	21941
874.335	22040
874.464	22120
874.593	22242
874.722	22242
874.851	22234
874.979	22120
875.108	22246
875.237	22173
875.365	22143
875.494	22219
875.623	22375
875.751	22219
875.88	22150
876.008	22421
876.136	22523
876.265	22733
876.393	22706
876.521	22763
876.65	22672
876.778	22577
876.906	22523
877.034	22573
877.162	22546
877.29	22538
877.418	22603
877.546	22561
877.674	22588
877.802	22538
877.93	22497
878.058	22462
878.185	22470
878.313	22607
878.441	22497
878.568	22367
878.696	22538
878.824	22561
878.951	22694
879.079	22801
879.206	22873
879.333	22721
879.461	22672
879.588	22668
879.715	22603
879.842	22896
879.97	22611
880.097	22421
880.224	22348
880.351	22474
880.478	22303
880.605	22417
880.732	22272
880.859	22557
880.986	22352
881.112	22504
881.239	22333
881.366	22067
881.493	22059
881.619	21979
881.746	21956
881.872	21998
881.999	22040
882.125	21865
882.252	22006
882.378	22013
882.505	21987
882.631	21915
882.757	21698
882.883	21739
883.01	21747
883.136	21511
883.262	21629
883.388	21538
883.514	21622
883.64	21701
883.766	21660
883.892	21462
884.018	21557
884.143	21599
884.269	21762
884.395	21386
884.52	21256
884.646	21283
884.772	21249
884.897	21226
885.023	21355
885.148	21477
885.274	21386
885.399	21405
885.524	21264
885.65	21298
885.775	21241
885.9	21192
886.025	21435
886.15	21389
886.275	21230
886.4	21146
886.525	21226
886.65	21211
886.775	21344
886.9	21291
887.025	21488
887.149	21291
887.274	21131
887.399	21020
887.523	21066
887.648	21043
887.773	21017
887.897	21230
888.021	21184
888.146	21001
888.27	21176
888.395	21131
888.519	21096
888.643	21096
888.767	21024
888.891	20986
889.015	20986
889.139	20914
889.263	20830
889.387	20921
889.511	21138
889.635	20891
889.759	20807
889.883	20811
890.006	20853
890.13	21032
890.254	20895
890.377	20754
890.501	20552
890.624	20629
890.748	20655
890.871	20552
890.995	20461
891.118	20404
891.241	20473
891.364	20332
891.488	20564
891.611	20419
891.734	20442
891.857	20598
891.98	20579
892.103	20522
892.226	20347
892.349	20362
892.471	20199
892.594	20400
892.717	20381
892.839	20298
892.962	20294
893.085	20377
893.207	20210
893.33	20237
893.452	20244
893.575	20259
893.697	20210
893.819	20499
893.941	20514
894.064	20499
894.186	20202
894.308	20244
894.43	20473
894.552	20434
894.674	20438
894.796	20210
894.918	20267
895.04	20294
895.161	20381
895.283	20320
895.405	20278
895.526	20389
895.648	20244
895.769	20259
895.891	20412
896.012	20317
896.134	20305
896.255	20301
896.376	20427
896.498	20199
896.619	20282
896.74	20290
896.861	20290
896.982	20655
897.103	20769
897.224	20484
897.345	20587
897.466	20400
897.587	20526
897.708	20533
897.828	20495
897.949	20480
898.07	20218
898.19	20370
898.311	20564
898.431	20366
898.552	20526
898.672	20579
898.792	20545
898.913	20476
899.033	20385
899.153	20256
899.273	20225
899.393	20259
899.513	20351
899.633	20206
899.753	20244
899.873	20168
899.993	20267
900.113	20256
900.232	20267
900.352	20252
900.472	20172
900.591	19982
900.711	20077
900.83	19928
900.95	20111
901.069	20096
901.189	19852
901.308	19731
901.427	19685
901.546	19689
901.665	19582
901.784	19575
901.904	19563
902.023	19343
902.141	19244
902.26	19187
902.379	19221
902.498	19145
902.617	19057
902.735	19118
902.854	19103
902.973	19076
903.091	18764
903.21	18760
903.328	18829
903.446	18722
903.565	18620
903.683	18525
903.801	18494
903.919	18502
904.038	18570
904.156	18369
904.274	18525
904.392	18270
904.51	18384
904.627	18266
904.745	18376
904.863	18422
904.981	18049
905.098	18140
905.216	18136
905.334	18117
905.451	18041
905.569	17916
905.686	18148
905.803	17999
905.921	17843
906.038	17885
906.155	17935
906.272	17714
906.389	17691
906.506	17585
906.623	17573
906.74	17467
906.857	17440
906.974	17684
907.091	17558
907.208	17577
907.324	17687
907.441	17448
907.557	17376
907.674	17311
907.79	17254
907.907	17265
908.023	17364
908.139	17334
908.256	17299
908.372	17216
908.488	17242
908.604	17033
908.72	17048
908.836	17048
908.952	16987
909.068	16987
909.184	17086
909.3	17143
909.415	16995
909.531	16987
909.647	16812
909.762	16649
909.878	16599
909.993	16679
910.108	16755
910.224	16694
910.339	16698
910.454	16672
910.57	16580
910.685	16421
910.8	16702
910.915	16736
911.03	16596
911.145	16436
911.259	16360
911.374	16276
911.489	16337
911.604	16249
911.718	16162
911.833	16120
911.947	15888
912.062	15964
912.176	16002
912.291	16032
912.405	16002
912.519	16143
912.633	16173
912.748	16116
912.862	15934
912.976	15888
913.09	15797
913.204	15819
913.318	15816
913.431	15861
913.545	15918
913.659	15994
913.772	15831
913.886	15762
914	15663
914.113	15770
914.226	15770
914.34	15667
914.453	15599
914.566	15679
914.68	15648
914.793	15637
914.906	15397
915.019	15249
915.132	15245
915.245	15294
915.358	15176
915.47	15176
915.583	15397
915.696	15344
915.809	15405
915.921	15294
916.034	15146
916.146	15207
916.259	15093
916.371	15165
916.483	15169
916.595	15074
916.708	15138
916.82	15161
916.932	15017
917.044	15058
917.156	15062
917.268	14883
917.38	14971
917.491	14925
917.603	14929
917.715	14986
917.826	14960
917.938	14944
918.049	14800
918.161	14895
918.272	15051
918.384	15024
918.495	14762
918.606	14735
918.717	14583
918.828	14629
918.939	14697
919.05	14594
919.161	14579
919.272	14480
919.383	14450
919.494	14758
919.604	14815
919.715	14670
919.826	14621
919.936	14568
920.047	14727
920.157	14598
920.267	14765
920.378	14667
920.488	14556
920.598	14758
920.708	14975
920.818	14800
920.928	14762
921.038	14960
921.148	14788
921.258	14598
921.368	14560
921.477	14370
921.587	14434
921.697	14324
921.806	14374
921.916	14134
922.025	14050
922.134	14043
922.244	13887
922.353	13955
922.462	13871
922.571	13841
922.68	13666
922.789	13734
922.898	13647
923.007	13575
923.116	13712
923.224	13571
923.333	13628
923.442	13483
923.55	13457
923.659	13449
923.767	13480
923.876	13449
923.984	13460
924.092	13384
924.201	13453
924.309	13419
924.417	13403
924.525	13232
924.633	13304
924.741	14187
924.849	13114
924.956	13297
925.064	13091
925.172	12966
925.279	13031
925.387	13072
925.494	13110
925.602	13232
925.709	13091
925.816	12856
925.924	12954
926.031	13110
926.138	13042
926.245	13034
926.352	12894
926.459	13053
926.566	13114
926.673	12848
926.779	12783
926.886	12783
926.993	12738
927.099	12707
927.206	12555
927.312	12551
927.419	12692
927.525	12669
927.631	12620
927.737	12597
927.843	12448
927.95	12391
928.056	12448
928.162	12479
928.267	12414
928.373	13137
928.479	12422
928.585	12251
928.69	12441
928.796	12407
928.901	12327
929.007	12114
929.112	12224
929.218	12251
929.323	12224
929.428	12095
929.533	12270
929.638	12129
929.743	12076
929.848	12106
929.953	12114
930.058	12007
930.163	11843
930.267	11904
930.372	12003
930.477	11832
930.581	12022
930.685	11817
930.79	11760
930.894	11767
930.998	11668
931.103	11764
931.207	11516
931.311	11349
931.415	11391
931.519	11147
931.623	11079
