Data from test_V78500241_1573.txt Node
Date: Fri Mar 25 15:20:48 CST 2022
User: usil
Spectrometer: V785-0024
Trigger mode: 0
Integration Time (sec): 4.000000E-1
Scans to average: 1
Nonlinearity correction enabled: false
Boxcar width: 0
Storing dark spectrum: false
XAxis mode: Wavelengths
Number of Pixels in Spectrum: 1024
>>>>>Begin Spectral Data<<<<<
801.071	28097
801.214	27892
801.356	27656
801.499	27534
801.641	27420
801.783	27530
801.926	27526
802.068	27374
802.211	27466
802.353	27367
802.496	27336
802.638	27142
802.78	27142
802.923	27081
803.065	27077
803.208	27089
803.35	27138
803.492	27245
803.635	27306
803.777	27169
803.919	27405
804.061	27660
804.204	27348
804.346	27340
804.488	27249
804.63	27260
804.773	27192
804.915	27302
805.057	27401
805.199	27435
805.341	27420
805.483	27416
805.626	27469
805.768	27389
805.91	27386
806.052	27507
806.194	27481
806.336	27599
806.478	27408
806.62	27313
806.762	27629
806.904	27682
807.046	27823
807.188	27827
807.33	27953
807.472	27876
807.614	27781
807.756	27903
807.898	27903
808.04	27682
808.182	27618
808.324	27663
808.465	27743
808.607	28044
808.749	28143
808.891	28116
809.033	28200
809.174	28063
809.316	28029
809.458	28032
809.6	28021
809.741	28131
809.883	28219
810.025	28421
810.166	28390
810.308	28333
810.45	28306
810.591	28337
810.733	28070
810.875	28063
811.016	28044
811.158	27956
811.299	28105
811.441	28318
811.582	28234
811.724	28044
811.865	28074
812.007	28044
812.148	28074
812.29	28139
812.431	28238
812.573	28421
812.714	28523
812.855	28736
812.997	28710
813.138	28908
813.279	28687
813.421	28649
813.562	28538
813.703	28531
813.845	28360
813.986	28021
814.127	27865
814.268	27747
814.41	27880
814.551	27682
814.692	27869
814.833	27774
814.974	27739
815.115	27656
815.256	27759
815.397	27713
815.539	27682
815.68	27492
815.821	27416
815.962	27637
816.103	27481
816.244	27606
816.385	27355
816.526	27272
816.666	27264
816.807	27104
816.948	27146
817.089	27294
817.23	27135
817.371	27051
817.512	27070
817.653	27058
817.793	27051
817.934	27173
818.075	27055
818.216	27112
818.356	27195
818.497	27001
818.638	26830
818.778	27032
818.919	26899
819.06	27001
819.2	27062
819.341	27180
819.481	27074
819.622	27252
819.762	27500
819.903	27408
820.043	27230
820.184	27252
820.324	27131
820.465	27268
820.605	27370
820.746	27154
820.886	26956
821.026	27207
821.167	27142
821.307	27249
821.447	27123
821.588	26910
821.728	26842
821.868	26800
822.008	26674
822.149	26571
822.289	26590
822.429	26275
822.569	26221
822.709	26393
822.849	26126
822.99	26130
823.13	26191
823.27	26134
823.41	25890
823.55	25803
823.69	25875
823.83	25986
823.97	25887
824.11	25731
824.25	25670
824.389	25712
824.529	25864
824.669	25780
824.809	25982
824.949	25708
825.089	25799
825.228	25696
825.368	25552
825.508	25518
825.648	25552
825.787	25765
825.927	25567
826.067	25411
826.206	25578
826.346	25655
826.485	25628
826.625	25552
826.765	25780
826.904	25540
827.044	25346
827.183	25422
827.323	25194
827.462	25335
827.601	25381
827.741	25327
827.88	25411
828.02	25088
828.159	25221
828.298	25282
828.437	25343
828.577	25282
828.716	25381
828.855	25202
828.994	25133
829.134	24958
829.273	24996
829.412	24890
829.551	25000
829.69	25012
829.829	25069
829.968	25050
830.107	25091
830.246	24958
830.385	25015
830.524	24859
830.663	24795
830.802	24696
830.941	24692
831.08	24582
831.219	24726
831.357	24764
831.496	24798
831.635	24669
831.774	24593
831.913	24502
832.051	24505
832.19	24414
832.329	24399
832.467	24429
832.606	24232
832.744	24300
832.883	24254
833.022	24228
833.16	24308
833.299	24483
833.437	24471
833.576	24357
833.714	24395
833.852	24441
833.991	24403
834.129	24429
834.267	24433
834.406	24308
834.544	24429
834.682	24433
834.821	24308
834.959	24559
835.097	24372
835.235	24391
835.373	24342
835.511	24330
835.65	24232
835.788	24182
835.926	23950
836.064	23908
836.202	24007
836.34	24110
836.478	24235
836.615	24117
836.753	24315
836.891	24281
837.029	24167
837.167	24098
837.305	24045
837.443	23916
837.58	24117
837.718	24087
837.856	24049
837.993	23992
838.131	24079
838.269	23790
838.406	23832
838.544	23855
838.681	23771
838.819	23634
838.956	23467
839.094	23490
839.231	23684
839.369	23623
839.506	23874
839.643	23703
839.781	23417
839.918	23417
840.055	23509
840.193	23535
840.33	23349
840.467	23417
840.604	23341
840.742	23676
840.879	23303
841.016	23341
841.153	23349
841.29	23615
841.427	23406
841.564	23440
841.701	23341
841.838	23261
841.975	23235
842.112	23307
842.249	23261
842.385	23166
842.522	23353
842.659	23204
842.796	23067
842.933	23113
843.069	23204
843.206	23105
843.343	23140
843.479	23067
843.616	23124
843.752	22953
843.889	22831
844.025	23075
844.162	22858
844.298	23003
844.435	22858
844.571	22911
844.708	22980
844.844	23075
844.98	22995
845.117	22999
845.253	22759
845.389	22755
845.525	22713
845.661	22820
845.798	22626
845.934	22801
846.07	22512
846.206	22793
846.342	22774
846.478	22694
846.614	22538
846.75	22276
846.886	22402
847.022	22424
847.158	22466
847.294	22436
847.429	22360
847.565	22257
847.701	22554
847.837	22268
847.972	22105
848.108	22147
848.244	22181
848.379	22070
848.515	21911
848.65	21915
848.786	21994
848.921	21899
849.057	22044
849.192	22116
849.328	21983
849.463	21895
849.598	21899
849.734	21766
849.869	21876
850.004	21778
850.14	21941
850.275	21774
850.41	21568
850.545	21637
850.68	21576
850.815	21637
850.95	21736
851.085	21922
851.22	21800
851.355	21762
851.49	21751
851.625	21629
851.76	21675
851.895	21591
852.03	21679
852.165	21724
852.299	21698
852.434	21755
852.569	21690
852.703	21728
852.838	21808
852.973	21838
853.107	21907
853.242	21728
853.376	21488
853.511	21439
853.645	21507
853.78	21652
853.914	21583
854.048	21359
854.183	21523
854.317	21614
854.451	21762
854.585	21393
854.72	21519
854.854	21663
854.988	21435
855.122	21523
855.256	21393
855.39	21618
855.524	21568
855.658	21633
855.792	21610
855.926	21511
856.06	21625
856.194	21690
856.327	21572
856.461	21466
856.595	21568
856.729	21618
856.862	21713
856.996	21568
857.13	21633
857.263	21667
857.397	21713
857.53	21507
857.664	21595
857.797	21690
857.931	21652
858.064	21644
858.197	21641
858.331	21496
858.464	21553
858.597	21435
858.731	21507
858.864	21538
858.997	21511
859.13	21595
859.263	21515
859.396	21564
859.529	21473
859.662	21526
859.795	21488
859.928	21622
860.061	21576
860.194	21774
860.327	21610
860.46	21549
860.592	21580
860.725	21751
860.858	21739
860.99	21671
861.123	21416
861.256	21428
861.388	21496
861.521	22188
861.653	21332
861.786	21329
861.918	21340
862.05	21397
862.183	21469
862.315	21473
862.447	21622
862.58	21393
862.712	21287
862.844	21195
862.976	21363
863.108	21401
863.24	21614
863.372	21233
863.504	21313
863.636	21211
863.768	21359
863.9	21230
864.032	21169
864.164	21192
864.296	21252
864.428	21405
864.559	21256
864.691	21226
864.823	21268
864.954	21325
865.086	21207
865.217	21135
865.349	21116
865.48	21157
865.612	21043
865.743	21195
865.875	21058
866.006	21074
866.137	21123
866.269	21199
866.4	21093
866.531	21005
866.662	21043
866.793	21203
866.924	21089
867.055	21116
867.186	21104
867.317	21184
867.448	21017
867.579	21036
867.71	20925
867.841	21096
867.972	20986
868.103	21074
868.233	20925
868.364	21127
868.495	21252
868.625	21264
868.756	21386
868.886	21245
869.017	21325
869.147	21382
869.278	21389
869.408	21329
869.539	21313
869.669	21443
869.799	21332
869.929	21408
870.06	21363
870.19	21629
870.32	21523
870.45	21705
870.58	21660
870.71	21778
870.84	21766
870.97	21747
871.1	21705
871.23	21907
871.36	21934
871.489	21747
871.619	21743
871.749	21975
871.879	21964
872.008	22044
872.138	21880
872.267	21926
872.397	21736
872.526	21846
872.656	21861
872.785	21679
872.915	21888
873.044	21964
873.173	21930
873.303	21960
873.432	21918
873.561	22044
873.69	21903
873.819	21994
873.948	21975
874.077	21854
874.206	21895
874.335	21911
874.464	21880
874.593	22287
874.722	22124
874.851	22150
874.979	22158
875.108	22181
875.237	22021
875.365	22124
875.494	22078
875.623	22181
875.751	22215
875.88	22261
876.008	22291
876.136	22462
876.265	22474
876.393	22630
876.521	22504
876.65	22641
876.778	22607
876.906	22500
877.034	22493
877.162	22523
877.29	22409
877.418	22512
877.546	22485
877.674	22485
877.802	22508
877.93	22447
878.058	22421
878.185	22428
878.313	22405
878.441	22470
878.568	22272
878.696	22451
878.824	22489
878.951	22615
879.079	22557
879.206	22660
879.333	22512
879.461	22489
879.588	22607
879.715	22702
879.842	22801
879.97	22592
880.097	22413
880.224	22249
880.351	22333
880.478	22287
880.605	22211
880.732	22299
880.859	22599
880.986	22356
881.112	22443
881.239	22211
881.366	22082
881.493	22036
881.619	21956
881.746	21865
881.872	21907
881.999	21778
882.125	21747
882.252	21827
882.378	21953
882.505	21968
882.631	21717
882.757	21530
882.883	21701
883.01	21591
883.136	21599
883.262	21511
883.388	21329
883.514	21542
883.64	21515
883.766	21389
883.892	21306
884.018	21367
884.143	21561
884.269	21720
884.395	21310
884.52	21264
884.646	21287
884.772	21252
884.897	20937
885.023	21241
885.148	21264
885.274	21401
885.399	21355
885.524	21252
885.65	21207
885.775	21279
885.9	21104
886.025	21291
886.15	21241
886.275	21203
886.4	21173
886.525	21260
886.65	21055
886.775	21203
886.9	21237
887.025	21313
887.149	21207
887.274	21032
887.399	21001
887.523	20895
887.648	20971
887.773	20864
887.897	21024
888.021	21020
888.146	20914
888.27	21017
888.395	21055
888.519	21005
888.643	20956
888.767	21032
888.891	20826
889.015	20849
889.139	20842
889.263	20872
889.387	20743
889.511	20918
889.635	20883
889.759	20754
889.883	20796
890.006	20857
890.13	20864
890.254	20724
890.377	20648
890.501	20431
890.624	20431
890.748	20606
890.871	20419
890.995	20377
891.118	20240
891.241	20336
891.364	20267
891.488	20533
891.611	20377
891.734	20298
891.857	20412
891.98	20358
892.103	20408
892.226	20370
892.349	20290
892.471	20138
892.594	20351
892.717	20263
892.839	20206
892.962	20278
893.085	20248
893.207	20263
893.33	20172
893.452	20172
893.575	20267
893.697	20385
893.819	20461
893.941	20362
894.064	20412
894.186	20122
894.308	20180
894.43	20313
894.552	20457
894.674	20351
894.796	20199
894.918	20286
895.04	20142
895.161	20294
895.283	20290
895.405	20103
895.526	20377
895.648	20259
895.769	20294
895.891	20419
896.012	20301
896.134	20259
896.255	20210
896.376	20195
896.498	20233
896.619	20267
896.74	20073
896.861	20218
896.982	20617
897.103	20651
897.224	20484
897.345	20476
897.466	20465
897.587	20514
897.708	20651
897.828	20571
897.949	20423
898.07	20343
898.19	20317
898.311	20400
898.431	20480
898.552	20476
898.672	20438
898.792	20568
898.913	20400
899.033	20419
899.153	20324
899.273	20145
899.393	20233
899.513	20256
899.633	20138
899.753	20225
899.873	20214
899.993	20267
900.113	20172
900.232	20130
900.352	20149
900.472	20088
900.591	19967
900.711	20035
900.83	19986
900.95	20073
901.069	20035
901.189	19890
901.308	19677
901.427	19556
901.546	19506
901.665	19499
901.784	19693
901.904	19346
902.023	19403
902.141	19107
902.26	19019
902.379	19198
902.498	19012
902.617	19122
902.735	19031
902.854	19050
902.973	18977
903.091	18776
903.21	18696
903.328	18863
903.446	18665
903.565	18536
903.683	18525
903.801	18399
903.919	18460
904.038	18479
904.156	18213
904.274	18376
904.392	18365
904.51	18251
904.627	18277
904.745	18384
904.863	18410
904.981	18068
905.098	17977
905.216	18098
905.334	18133
905.451	18064
905.569	17988
905.686	17984
905.803	17927
905.921	17843
906.038	17817
906.155	17756
906.272	17558
906.389	17642
906.506	17512
906.623	17577
906.74	17497
906.857	17425
906.974	17421
907.091	17570
907.208	17566
907.324	17573
907.441	17516
907.557	17189
907.674	17204
907.79	17216
907.907	17208
908.023	17277
908.139	17170
908.256	17166
908.372	17197
908.488	17064
908.604	16987
908.72	16843
908.836	17006
908.952	16934
909.068	16976
909.184	17102
909.3	17010
909.415	16961
909.531	17060
909.647	16771
909.762	16672
909.878	16577
909.993	16725
910.108	16558
910.224	16622
910.339	16569
910.454	16500
910.57	16478
910.685	16447
910.8	16725
910.915	16641
911.03	16409
911.145	16303
911.259	16215
911.374	16265
911.489	16223
911.604	16090
911.718	16021
911.833	15953
911.947	15937
912.062	15865
912.176	15983
912.291	16021
912.405	15945
912.519	16090
912.633	16131
912.748	16025
912.862	16040
912.976	15835
913.09	15694
913.204	15762
913.318	15831
913.431	15892
913.545	15873
913.659	15827
913.772	15888
913.886	15629
914	15606
914.113	15648
914.226	15850
914.34	15625
914.453	15466
914.566	15652
914.68	15454
914.793	15469
914.906	15302
915.019	15184
915.132	15283
915.245	15184
915.358	15184
915.47	15218
915.583	15256
915.696	15226
915.809	15291
915.921	15252
916.034	15055
916.146	15150
916.259	15127
916.371	15207
916.483	15108
916.595	15085
916.708	15028
916.82	15119
916.932	14986
917.044	15032
917.156	14948
917.268	14952
917.38	14800
917.491	14807
917.603	14872
917.715	14918
917.826	14967
917.938	14743
918.049	14705
918.161	14868
918.272	14861
918.384	14872
918.495	14735
918.606	14667
918.717	14541
918.828	14602
918.939	14613
919.05	14442
919.161	14659
919.272	14377
919.383	14476
919.494	14629
919.604	14743
919.715	14613
919.826	14469
919.936	14438
920.047	14564
920.157	14583
920.267	14712
920.378	14522
920.488	14545
920.598	14746
920.708	14781
920.818	14651
920.928	14720
921.038	14899
921.148	14807
921.258	14568
921.368	14408
921.477	14210
921.587	14385
921.697	14130
921.806	14301
921.916	14206
922.025	14050
922.134	14020
922.244	13921
922.353	13860
922.462	13841
922.571	13761
922.68	13586
922.789	13559
922.898	13609
923.007	13506
923.116	13590
923.224	13529
923.333	13662
923.442	13293
923.55	13480
923.659	13438
923.767	13525
923.876	13377
923.984	13457
924.092	13384
924.201	13324
924.309	13293
924.417	13403
924.525	13343
924.633	13274
924.741	14024
924.849	13000
924.956	13190
925.064	13069
925.172	12985
925.279	12970
925.387	13080
925.494	12916
925.602	13084
925.709	12977
925.816	12886
925.924	12920
926.031	12996
926.138	12932
926.245	13076
926.352	12848
926.459	13027
926.566	12970
926.673	12916
926.779	12787
926.886	12772
926.993	12623
927.099	12642
927.206	12544
927.312	12570
927.419	12544
927.525	12521
927.631	12601
927.737	12410
927.843	12365
927.95	12346
928.056	12369
928.162	12365
928.267	12300
928.373	13027
928.479	12441
928.585	12190
928.69	12300
928.796	12437
928.901	12315
929.007	12201
929.112	12281
929.218	12197
929.323	12163
929.428	12148
929.533	12273
929.638	12064
929.743	12076
929.848	12091
929.953	12030
930.058	12011
930.163	11775
930.267	11794
930.372	11882
930.477	11767
930.581	11988
930.685	11863
930.79	11726
930.894	11741
930.998	11653
931.103	11741
931.207	11414
931.311	11376
931.415	11258
931.519	11159
931.623	10995
