Data from test_V78500241_3247.txt Node
Date: Fri Mar 25 15:32:28 CST 2022
User: usil
Spectrometer: V785-0024
Trigger mode: 0
Integration Time (sec): 4.000000E-1
Scans to average: 1
Nonlinearity correction enabled: false
Boxcar width: 0
Storing dark spectrum: false
XAxis mode: Wavelengths
Number of Pixels in Spectrum: 1024
>>>>>Begin Spectral Data<<<<<
801.071	27291
801.214	27047
801.356	26971
801.499	26868
801.641	26762
801.783	26686
801.926	26804
802.068	26769
802.211	26804
802.353	26796
802.496	26511
802.638	26400
802.78	26492
802.923	26286
803.065	26271
803.208	26263
803.35	26473
803.492	26476
803.635	26629
803.777	26396
803.919	26678
804.061	26834
804.204	26606
804.346	26511
804.488	26541
804.63	26511
804.773	26385
804.915	26488
805.057	26762
805.199	26446
805.341	26606
805.483	26678
805.626	26545
805.768	26594
805.91	26735
806.052	26705
806.194	26590
806.336	26785
806.478	26640
806.62	26518
806.762	26830
806.904	26910
807.046	27074
807.188	27062
807.33	27001
807.472	27203
807.614	26937
807.756	27051
807.898	26982
808.04	26944
808.182	26895
808.324	26918
808.465	27024
808.607	27138
808.749	27348
808.891	27439
809.033	27370
809.174	27310
809.316	27287
809.458	27211
809.6	27157
809.741	27389
809.883	27363
810.025	27542
810.166	27583
810.308	27572
810.45	27580
810.591	27504
810.733	27340
810.875	27184
811.016	27112
811.158	27169
811.299	27386
811.441	27485
811.582	27439
811.724	27363
811.865	27218
812.007	27195
812.148	27321
812.29	27378
812.431	27412
812.573	27606
812.714	27652
812.855	27724
812.997	27888
813.138	27888
813.279	27918
813.421	27694
813.562	27781
813.703	27652
813.845	27401
813.986	27180
814.127	26948
814.268	26937
814.41	26944
814.551	26830
814.692	26982
814.833	26876
814.974	26887
815.115	26834
815.256	26826
815.397	26800
815.539	26861
815.68	26746
815.821	26644
815.962	26659
816.103	26864
816.244	26526
816.385	26575
816.526	26560
816.666	26248
816.807	26218
816.948	26195
817.089	26214
817.23	26320
817.371	26210
817.512	26062
817.653	26107
817.793	26157
817.934	26084
818.075	26214
818.216	26168
818.356	26176
818.497	26005
818.638	25852
818.778	25898
818.919	25913
819.06	25970
819.2	26153
819.341	26119
819.481	26153
819.622	26195
819.762	26579
819.903	26317
820.043	26347
820.184	26240
820.324	26225
820.465	26343
820.605	26275
820.746	26218
820.886	25982
821.026	26153
821.167	26233
821.307	26305
821.447	26218
821.588	26081
821.728	25841
821.868	25757
822.008	25563
822.149	25624
822.289	25655
822.429	25377
822.569	25259
822.709	25392
822.849	25179
822.99	25099
823.13	25008
823.27	25095
823.41	24913
823.55	24844
823.69	24973
823.83	24954
823.97	24943
824.11	24711
824.25	24776
824.389	24856
824.529	24798
824.669	24745
824.809	24890
824.949	24806
825.089	24764
825.228	24814
825.368	24646
825.508	24563
825.648	24738
825.787	24715
825.927	24585
826.067	24597
826.206	24585
826.346	24757
826.485	24760
826.625	24555
826.765	24806
826.904	24814
827.044	24498
827.183	24479
827.323	24216
827.462	24437
827.601	24384
827.741	24334
827.88	24479
828.02	24239
828.159	24292
828.298	24311
828.437	24323
828.577	24296
828.716	24441
828.855	24372
828.994	24083
829.134	24079
829.273	24232
829.412	24098
829.551	24034
829.69	24015
829.829	24232
829.968	24068
830.107	24125
830.246	24148
830.385	24125
830.524	24064
830.663	23870
830.802	23783
830.941	23767
831.08	23630
831.219	23764
831.357	23729
831.496	23908
831.635	23691
831.774	23695
831.913	23627
832.051	23406
832.19	23486
832.329	23501
832.467	23402
832.606	23444
832.744	23337
832.883	23471
833.022	23474
833.16	23379
833.299	23482
833.437	23592
833.576	23520
833.714	23531
833.852	23543
833.991	23505
834.129	23653
834.267	23551
834.406	23558
834.544	23531
834.682	23421
834.821	23448
834.959	23657
835.097	23414
835.235	23459
835.373	23463
835.511	23414
835.65	23360
835.788	23337
835.926	23155
836.064	23212
836.202	23090
836.34	23414
836.478	23414
836.615	23364
836.753	23200
836.891	23421
837.029	23292
837.167	23265
837.305	23159
837.443	23307
837.58	23113
837.718	23398
837.856	23136
837.993	23094
838.131	23231
838.269	23083
838.406	23250
838.544	23029
838.681	22820
838.819	22831
838.956	22687
839.094	22698
839.231	22683
839.369	22847
839.506	23052
839.643	22919
839.781	22675
839.918	22630
840.055	22634
840.193	22550
840.33	22569
840.467	22649
840.604	22706
840.742	22877
840.879	22398
841.016	22481
841.153	22375
841.29	22675
841.427	22618
841.564	22622
841.701	22573
841.838	22611
841.975	22493
842.112	22424
842.249	22550
842.385	22363
842.522	22535
842.659	22314
842.796	22367
842.933	22344
843.069	22196
843.206	22215
843.343	22337
843.479	22333
843.616	22382
843.752	22109
843.889	22200
844.025	22223
844.162	22166
844.298	22112
844.435	22223
844.571	22200
844.708	22207
844.844	22280
844.98	22299
845.117	22147
845.253	22025
845.389	21915
845.525	21983
845.661	21960
845.798	21934
845.934	21915
846.07	21762
846.206	21793
846.342	21899
846.478	21876
846.614	21618
846.75	21675
846.886	21576
847.022	21724
847.158	21500
847.294	21507
847.429	21667
847.565	21507
847.701	21899
847.837	21321
847.972	21264
848.108	21428
848.244	21382
848.379	21116
848.515	21135
848.65	21154
848.786	21169
848.921	21302
849.057	21279
849.192	21279
849.328	21279
849.463	21180
849.598	21188
849.734	21070
849.869	21203
850.004	20960
850.14	20944
850.275	20902
850.41	20967
850.545	20994
850.68	20948
850.815	21108
850.95	20918
851.085	21169
851.22	21100
851.355	20941
851.49	20864
851.625	20880
851.76	20956
851.895	20857
852.03	20986
852.165	20941
852.299	20937
852.434	21055
852.569	20933
852.703	20937
852.838	20982
852.973	21047
853.107	21070
853.242	20895
853.376	20758
853.511	20598
853.645	20792
853.78	20902
853.914	20876
854.048	20659
854.183	20811
854.317	20826
854.451	20975
854.585	20697
854.72	20823
854.854	20777
854.988	20765
855.122	20678
855.256	20629
855.39	20796
855.524	20914
855.658	20826
855.792	20804
855.926	20788
856.06	20758
856.194	20834
856.327	20868
856.461	20758
856.595	20701
856.729	20739
856.862	20807
856.996	20800
857.13	20895
857.263	20895
857.397	20876
857.53	20754
857.664	20956
857.797	20887
857.931	20826
858.064	20754
858.197	20883
858.331	20823
858.464	20815
858.597	20701
858.731	20674
858.864	20712
858.997	20743
859.13	20727
859.263	20693
859.396	20804
859.529	20777
859.662	20648
859.795	20716
859.928	20720
860.061	21028
860.194	21005
860.327	20876
860.46	20765
860.592	20857
860.725	20845
860.858	20918
860.99	20830
861.123	20705
861.256	20625
861.388	20781
861.521	21283
861.653	20587
861.786	20526
861.918	20495
862.05	20754
862.183	20712
862.315	20743
862.447	20758
862.58	20625
862.712	20541
862.844	20587
862.976	20663
863.108	20629
863.24	20944
863.372	20522
863.504	20461
863.636	20450
863.768	20575
863.9	20514
864.032	20434
864.164	20438
864.296	20526
864.428	20575
864.559	20571
864.691	20590
864.823	20415
864.954	20423
865.086	20499
865.217	20480
865.349	20358
865.48	20377
865.612	20362
865.743	20537
865.875	20336
866.006	20404
866.137	20343
866.269	20423
866.4	20473
866.531	20343
866.662	20202
866.793	20385
866.924	20358
867.055	20362
867.186	20320
867.317	20271
867.448	20305
867.579	20370
867.71	20275
867.841	20294
867.972	20267
868.103	20301
868.233	20450
868.364	20286
868.495	20347
868.625	20625
868.756	20621
868.886	20526
869.017	20571
869.147	20682
869.278	20571
869.408	20625
869.539	20594
869.669	20682
869.799	20648
869.929	20746
870.06	20651
870.19	20807
870.32	20849
870.45	20823
870.58	20998
870.71	21138
870.84	21100
870.97	20982
871.1	20910
871.23	21112
871.36	21214
871.489	21081
871.619	21180
871.749	21150
871.879	21135
872.008	21287
872.138	21142
872.267	21279
872.397	21119
872.526	21077
872.656	21077
872.785	21062
872.915	21272
873.044	21310
873.173	21066
873.303	21241
873.432	21199
873.561	21287
873.69	21119
873.819	21188
873.948	21165
874.077	21123
874.206	21123
874.335	21222
874.464	21378
874.593	21367
874.722	21473
874.851	21526
874.979	21488
875.108	21287
875.237	21313
875.365	21332
875.494	21443
875.623	21568
875.751	21439
875.88	21469
876.008	21523
876.136	21667
876.265	21857
876.393	21899
876.521	21827
876.65	21953
876.778	21831
876.906	21789
877.034	21831
877.162	21819
877.29	21724
877.418	21781
877.546	21808
877.674	21903
877.802	21736
877.93	21781
878.058	21823
878.185	21690
878.313	21618
878.441	21751
878.568	21656
878.696	21717
878.824	21724
878.951	21983
879.079	21892
879.206	22188
879.333	21785
879.461	21907
879.588	21899
879.715	21930
879.842	22086
879.97	21941
880.097	21701
880.224	21633
880.351	21660
880.478	21587
880.605	21663
880.732	21747
880.859	21838
880.986	21663
881.112	21549
881.239	21443
881.366	21310
881.493	21268
881.619	21237
881.746	21161
881.872	21154
881.999	21214
882.125	21077
882.252	21249
882.378	21161
882.505	21389
882.631	21085
882.757	20815
882.883	21036
883.01	20880
883.136	20876
883.262	20872
883.388	20823
883.514	20937
883.64	21009
883.766	20891
883.892	20796
884.018	20651
884.143	21036
884.269	20937
884.395	20716
884.52	20541
884.646	20625
884.772	20450
884.897	20339
885.023	20518
885.148	20651
885.274	20762
885.399	20724
885.524	20583
885.65	20606
885.775	20621
885.9	20495
886.025	20571
886.15	20461
886.275	20587
886.4	20419
886.525	20530
886.65	20651
886.775	20484
886.9	20594
887.025	20815
887.149	20495
887.274	20419
887.399	20313
887.523	20324
887.648	20339
887.773	20206
887.897	20438
888.021	20332
888.146	20271
888.27	20457
888.395	20377
888.519	20301
888.643	20404
888.767	20393
888.891	20244
889.015	20168
889.139	20142
889.263	20096
889.387	20202
889.511	20290
889.635	20122
889.759	20126
889.883	20183
890.006	20187
890.13	20187
890.254	20138
890.377	20035
890.501	19955
890.624	19879
890.748	19932
890.871	19776
890.995	19696
891.118	19620
891.241	19765
891.364	19712
891.488	19925
891.611	19750
891.734	19655
891.857	19738
891.98	19784
892.103	19643
892.226	19784
892.349	19635
892.471	19518
892.594	19609
892.717	19632
892.839	19670
892.962	19685
893.085	19674
893.207	19613
893.33	19518
893.452	19415
893.575	19712
893.697	19605
893.819	19856
893.941	19776
894.064	19765
894.186	19419
894.308	19548
894.43	19753
894.552	19837
894.674	19784
894.796	19430
894.918	19616
895.04	19594
895.161	19757
895.283	19628
895.405	19483
895.526	19670
895.648	19620
895.769	19704
895.891	19571
896.012	19738
896.134	19643
896.255	19590
896.376	19677
896.498	19609
896.619	19700
896.74	19628
896.861	19704
896.982	19921
897.103	20084
897.224	20069
897.345	19833
897.466	19784
897.587	19841
897.708	19978
897.828	19833
897.949	19784
898.07	19727
898.19	19807
898.311	19898
898.431	19814
898.552	19845
898.672	19898
898.792	19875
898.913	19890
899.033	19761
899.153	19662
899.273	19582
899.393	19651
899.513	19715
899.633	19616
899.753	19502
899.873	19506
899.993	19674
900.113	19525
900.232	19548
900.352	19495
900.472	19521
900.591	19403
900.711	19438
900.83	19358
900.95	19464
901.069	19521
901.189	19316
901.308	19015
901.427	18924
901.546	18947
901.665	18981
901.784	18916
901.904	18760
902.023	18833
902.141	18646
902.26	18551
902.379	18570
902.498	18494
902.617	18437
902.735	18658
902.854	18327
902.973	18391
903.091	18178
903.21	18114
903.328	18258
903.446	18064
903.565	18060
903.683	18041
903.801	17878
903.919	18022
904.038	17923
904.156	17779
904.274	17752
904.392	17745
904.51	17722
904.627	17718
904.745	17733
904.863	17832
904.981	17497
905.098	17429
905.216	17341
905.334	17463
905.451	17501
905.569	17379
905.686	17486
905.803	17467
905.921	17311
906.038	17402
906.155	17170
906.272	17117
906.389	17162
906.506	17033
906.623	16999
906.74	17003
906.857	16828
906.974	16858
907.091	17041
907.208	16968
907.324	17003
907.441	16881
907.557	16782
907.674	16630
907.79	16596
907.907	16717
908.023	16740
908.139	16683
908.256	16622
908.372	16592
908.488	16645
908.604	16497
908.72	16424
908.836	16402
908.952	16375
909.068	16451
909.184	16565
909.3	16367
909.415	16573
909.531	16394
909.647	16185
909.762	16154
909.878	16211
909.993	16219
910.108	16150
910.224	16158
910.339	16147
910.454	15975
910.57	15918
910.685	15918
910.8	16116
910.915	16078
911.03	15869
911.145	15739
911.259	15739
911.374	15686
911.489	15701
911.604	15728
911.718	15542
911.833	15466
911.947	15405
912.062	15348
912.176	15530
912.291	15458
912.405	15599
912.519	15549
912.633	15694
912.748	15564
912.862	15439
912.976	15355
913.09	15332
913.204	15313
913.318	15260
913.431	15530
913.545	15458
913.659	15363
913.772	15241
913.886	15165
914	15062
914.113	15214
914.226	15195
914.34	15074
914.453	14971
914.566	15176
914.68	14925
914.793	14937
914.906	14800
915.019	14746
915.132	14621
915.245	14606
915.358	14811
915.47	14777
915.583	14724
915.696	14659
915.809	14811
915.921	14750
916.034	14659
916.146	14602
916.259	14568
916.371	14708
916.483	14682
916.595	14610
916.708	14598
916.82	14503
916.932	14533
917.044	14545
917.156	14484
917.268	14351
917.38	14370
917.491	14396
917.603	14442
917.715	14457
917.826	14400
917.938	14351
918.049	14286
918.161	14301
918.272	14484
918.384	14507
918.495	14290
918.606	14157
918.717	14100
918.828	14183
918.939	14195
919.05	14111
919.161	14100
919.272	13833
919.383	14035
919.494	14206
919.604	14305
919.715	14134
919.826	14050
919.936	14100
920.047	14172
920.157	14187
920.267	14275
920.378	14123
920.488	14126
920.598	14324
920.708	14438
920.818	14237
920.928	14271
921.038	14469
921.148	14252
921.258	14119
921.368	14016
921.477	13913
921.587	13963
921.697	13753
921.806	13932
921.916	13674
922.025	13556
922.134	13552
922.244	13468
922.353	13537
922.462	13369
922.571	13362
922.68	13198
922.789	13171
922.898	13175
923.007	13175
923.116	13263
923.224	13228
923.333	13137
923.442	13110
923.55	13031
923.659	13008
923.767	13004
923.876	12932
923.984	13012
924.092	12916
924.201	12989
924.309	12970
924.417	12916
924.525	12867
924.633	12825
924.741	13712
924.849	12654
924.956	12810
925.064	12616
925.172	12616
925.279	12582
925.387	12654
925.494	12604
925.602	12658
925.709	12646
925.816	12429
925.924	12551
926.031	12616
926.138	12578
926.245	12646
926.352	12346
926.459	12536
926.566	12597
926.673	12475
926.779	12403
926.886	12334
926.993	12258
927.099	12201
927.206	12076
927.312	12083
927.419	12209
927.525	12197
927.631	12186
927.737	12091
927.843	11946
927.95	11923
928.056	11999
928.162	12003
928.267	12072
928.373	12654
928.479	12106
928.585	11870
928.69	11977
928.796	11954
928.901	11882
929.007	11733
929.112	11866
929.218	11855
929.323	11836
929.428	11661
929.533	11904
929.638	11710
929.743	11634
929.848	11756
929.953	11646
930.058	11573
930.163	11471
930.267	11395
930.372	11558
930.477	11436
930.581	11505
930.685	11463
930.79	11349
930.894	11395
930.998	11277
931.103	11398
931.207	11098
931.311	10934
931.415	10980
931.519	10721
931.623	10752
