Data from test_V78500241_494.txt Node
Date: Fri Mar 25 15:13:17 CST 2022
User: usil
Spectrometer: V785-0024
Trigger mode: 0
Integration Time (sec): 4.000000E-1
Scans to average: 1
Nonlinearity correction enabled: false
Boxcar width: 0
Storing dark spectrum: false
XAxis mode: Wavelengths
Number of Pixels in Spectrum: 1024
>>>>>Begin Spectral Data<<<<<
801.071	27466
801.214	27523
801.356	27252
801.499	27283
801.641	27127
801.783	27104
801.926	27081
802.068	26937
802.211	26910
802.353	26902
802.496	26705
802.638	26682
802.78	26644
802.923	26625
803.065	26552
803.208	26777
803.35	26739
803.492	26727
803.635	26849
803.777	26823
803.919	26762
804.061	27157
804.204	26956
804.346	26815
804.488	26769
804.63	26940
804.773	26693
804.915	26944
805.057	26921
805.199	26940
805.341	26872
805.483	27047
805.626	26868
805.768	26861
805.91	26872
806.052	26880
806.194	26849
806.336	27135
806.478	27013
806.62	27062
806.762	27089
806.904	27298
807.046	27534
807.188	27393
807.33	27325
807.472	27393
807.614	27374
807.756	27329
807.898	27287
808.04	27241
808.182	27222
808.324	27214
808.465	27272
808.607	27351
808.749	27618
808.891	27603
809.033	27698
809.174	27736
809.316	27591
809.458	27526
809.6	27641
809.741	27515
809.883	27629
810.025	27869
810.166	27918
810.308	27922
810.45	27793
810.591	27816
810.733	27778
810.875	27576
811.016	27549
811.158	27515
811.299	27686
811.441	27918
811.582	27682
811.724	27641
811.865	27572
812.007	27583
812.148	27583
812.29	27682
812.431	27743
812.573	27956
812.714	28078
812.855	28055
812.997	28265
813.138	28352
813.279	28322
813.421	28200
813.562	28025
813.703	27994
813.845	27968
813.986	27606
814.127	27340
814.268	27218
814.41	27332
814.551	27348
814.692	27336
814.833	27176
814.974	27230
815.115	27287
815.256	27135
815.397	27131
815.539	27176
815.68	27157
815.821	27089
815.962	27013
816.103	27104
816.244	26933
816.385	26975
816.526	26777
816.666	26701
816.807	26609
816.948	26613
817.089	26682
817.23	26727
817.371	26533
817.512	26674
817.653	26644
817.793	26579
817.934	26655
818.075	26602
818.216	26564
818.356	26469
818.497	26453
818.638	26278
818.778	26351
818.919	26336
819.06	26358
819.2	26507
819.341	26552
819.481	26560
819.622	26823
819.762	26895
819.903	26785
820.043	26819
820.184	26720
820.324	26686
820.465	26670
820.605	26777
820.746	26788
820.886	26476
821.026	26651
821.167	26701
821.307	26648
821.447	26609
821.588	26533
821.728	26385
821.868	26164
822.008	26161
822.149	26180
822.289	26016
822.429	25849
822.569	25727
822.709	25704
822.849	25479
822.99	25518
823.13	25556
823.27	25472
823.41	25293
823.55	25164
823.69	25301
823.83	25407
823.97	25335
824.11	25145
824.25	25088
824.389	25107
824.529	25293
824.669	25213
824.809	25388
824.949	25255
825.089	25263
825.228	25251
825.368	25031
825.508	25057
825.648	25099
825.787	25114
825.927	25053
826.067	25053
826.206	24973
826.346	24954
826.485	24966
826.625	25027
826.765	25148
826.904	25137
827.044	24741
827.183	24890
827.323	24764
827.462	24848
827.601	24814
827.741	24745
827.88	24806
828.02	24593
828.159	24741
828.298	24772
828.437	24833
828.577	24787
828.716	24757
828.855	24593
828.994	24536
829.134	24475
829.273	24486
829.412	24437
829.551	24475
829.69	24502
829.829	24437
829.968	24563
830.107	24536
830.246	24433
830.385	24410
830.524	24315
830.663	24308
830.802	24182
830.941	24026
831.08	24102
831.219	24167
831.357	24239
831.496	24300
831.635	24034
831.774	24026
831.913	23863
832.051	23889
832.19	23866
832.329	23977
832.467	23703
832.606	23733
832.744	23836
832.883	23813
833.022	23771
833.16	23851
833.299	23748
833.437	23935
833.576	23927
833.714	23752
833.852	23912
833.991	23783
834.129	24140
834.267	23984
834.406	23699
834.544	23805
834.682	23817
834.821	23798
834.959	23889
835.097	23912
835.235	23832
835.373	23878
835.511	23756
835.65	23615
835.788	23657
835.926	23661
836.064	23573
836.202	23627
836.34	23623
836.478	23752
836.615	23604
836.753	23786
836.891	23805
837.029	23771
837.167	23707
837.305	23509
837.443	23535
837.58	23543
837.718	23459
837.856	23414
837.993	23356
838.131	23433
838.269	23318
838.406	23376
838.544	23330
838.681	23052
838.819	23288
838.956	22957
839.094	22930
839.231	23067
839.369	23029
839.506	23356
839.643	23265
839.781	22938
839.918	23003
840.055	23044
840.193	22915
840.33	23010
840.467	23037
840.604	22953
840.742	23200
840.879	22702
841.016	22824
841.153	22649
841.29	22968
841.427	22923
841.564	22999
841.701	22889
841.838	22896
841.975	22733
842.112	22786
842.249	22752
842.385	22645
842.522	22843
842.659	22660
842.796	22713
842.933	22618
843.069	22599
843.206	22519
843.343	22702
843.479	22706
843.616	22672
843.752	22546
843.889	22618
844.025	22554
844.162	22443
844.298	22508
844.435	22356
844.571	22382
844.708	22478
844.844	22679
844.98	22550
845.117	22466
845.253	22367
845.389	22394
845.525	22314
845.661	22413
845.798	22093
845.934	22284
846.07	22147
846.206	22230
846.342	22337
846.478	22128
846.614	22017
846.75	21873
846.886	21934
847.022	22040
847.158	21884
847.294	21838
847.429	21994
847.565	21922
847.701	22207
847.837	21568
847.972	21553
848.108	21838
848.244	21774
848.379	21504
848.515	21572
848.65	21603
848.786	21622
848.921	21504
849.057	21656
849.192	21568
849.328	21538
849.463	21504
849.598	21496
849.734	21401
849.869	21450
850.004	21233
850.14	21336
850.275	21279
850.41	21249
850.545	21275
850.68	21207
850.815	21332
850.95	21294
851.085	21488
851.22	21325
851.355	21203
851.49	21294
851.625	21275
851.76	21302
851.895	21279
852.03	21260
852.165	21272
852.299	21291
852.434	21382
852.569	21443
852.703	21344
852.838	21382
852.973	21610
853.107	21416
853.242	21389
853.376	21283
853.511	21051
853.645	21051
853.78	21401
853.914	21184
854.048	21112
854.183	21192
854.317	21180
854.451	21230
854.585	21066
854.72	21188
854.854	21245
854.988	21119
855.122	21211
855.256	20967
855.39	21116
855.524	21211
855.658	21241
855.792	21173
855.926	21207
856.06	21176
856.194	21199
856.327	21123
856.461	21089
856.595	21051
856.729	21154
856.862	21344
856.996	21214
857.13	21146
857.263	21268
857.397	21199
857.53	21195
857.664	21195
857.797	21268
857.931	21252
858.064	21180
858.197	21169
858.331	21169
858.464	21161
858.597	21001
858.731	21024
858.864	21146
858.997	20994
859.13	21055
859.263	21203
859.396	21344
859.529	21165
859.662	21142
859.795	21100
859.928	21169
860.061	21279
860.194	21203
860.327	21321
860.46	21047
860.592	21089
860.725	21340
860.858	21272
860.99	21226
861.123	21036
861.256	21058
861.388	21176
861.521	21876
861.653	21028
861.786	20899
861.918	20921
862.05	20963
862.183	21047
862.315	21131
862.447	21176
862.58	21013
862.712	20902
862.844	20815
862.976	20910
863.108	20845
863.24	21161
863.372	20842
863.504	20910
863.636	20887
863.768	20902
863.9	20857
864.032	20876
864.164	20902
864.296	20880
864.428	20910
864.559	20895
864.691	20998
864.823	20807
864.954	20899
865.086	20849
865.217	20773
865.349	20648
865.48	20754
865.612	20765
865.743	20864
865.875	20769
866.006	20686
866.137	20765
866.269	20807
866.4	20674
866.531	20674
866.662	20602
866.793	20716
866.924	20769
867.055	20735
867.186	20735
867.317	20636
867.448	20587
867.579	20636
867.71	20537
867.841	20488
867.972	20735
868.103	20739
868.233	20644
868.364	20811
868.495	20819
868.625	20845
868.756	21024
868.886	20990
869.017	20941
869.147	20902
869.278	21055
869.408	21024
869.539	20960
869.669	20929
869.799	20990
869.929	21009
870.06	21039
870.19	21195
870.32	21176
870.45	21184
870.58	21363
870.71	21420
870.84	21374
870.97	21321
871.1	21294
871.23	21420
871.36	21443
871.489	21370
871.619	21401
871.749	21443
871.879	21424
872.008	21599
872.138	21477
872.267	21454
872.397	21424
872.526	21272
872.656	21325
872.785	21393
872.915	21530
873.044	21629
873.173	21424
873.303	21618
873.432	21599
873.561	21591
873.69	21572
873.819	21515
873.948	21488
874.077	21454
874.206	21496
874.335	21534
874.464	21717
874.593	21827
874.722	21648
874.851	21797
874.979	21789
875.108	21720
875.237	21774
875.365	21717
875.494	21808
875.623	21861
875.751	21759
875.88	21732
876.008	21991
876.136	21941
876.265	22196
876.393	22310
876.521	22181
876.65	22276
876.778	22158
876.906	22192
877.034	22063
877.162	22147
877.29	22120
877.418	22124
877.546	22246
877.674	22021
877.802	21979
877.93	22070
878.058	22204
878.185	21960
878.313	22101
878.441	22055
878.568	21895
878.696	22124
878.824	22162
878.951	22154
879.079	22337
879.206	22436
879.333	22329
879.461	22177
879.588	22257
879.715	22284
879.842	22379
879.97	22131
880.097	21941
880.224	22051
880.351	21975
880.478	22017
880.605	21987
880.732	21835
880.859	22234
880.986	21956
881.112	22006
881.239	21861
881.366	21660
881.493	21549
881.619	21595
881.746	21538
881.872	21447
881.999	21424
882.125	21447
882.252	21610
882.378	21485
882.505	21663
882.631	21439
882.757	21367
882.883	21291
883.01	21138
883.136	21226
883.262	21192
883.388	21077
883.514	21313
883.64	21116
883.766	21211
883.892	20830
884.018	21131
884.143	21081
884.269	21195
884.395	20864
884.52	20811
884.646	20895
884.772	20941
884.897	20785
885.023	20819
885.148	20807
885.274	20998
885.399	20948
885.524	20895
885.65	20834
885.775	20887
885.9	20716
886.025	20948
886.15	20895
886.275	20845
886.4	20659
886.525	20762
886.65	20762
886.775	20864
886.9	21005
887.025	21020
887.149	20872
887.274	20629
887.399	20644
887.523	20568
887.648	20507
887.773	20640
887.897	20724
888.021	20735
888.146	20564
888.27	20640
888.395	20674
888.519	20708
888.643	20625
888.767	20632
888.891	20514
889.015	20552
889.139	20541
889.263	20465
889.387	20545
889.511	20716
889.635	20609
889.759	20412
889.883	20427
890.006	20415
890.13	20488
890.254	20282
890.377	20355
890.501	20218
890.624	20218
890.748	20317
890.871	20039
890.995	20065
891.118	19963
891.241	20103
891.364	20035
891.488	20077
891.611	20065
891.734	19997
891.857	20050
891.98	19993
892.103	20031
892.226	20039
892.349	20039
892.471	19868
892.594	19890
892.717	19852
892.839	19913
892.962	19959
893.085	19959
893.207	19883
893.33	19780
893.452	19909
893.575	19982
893.697	19845
893.819	20012
893.941	20092
894.064	20115
894.186	19795
894.308	19894
894.43	20001
894.552	20043
894.674	20024
894.796	19883
894.918	19814
895.04	19841
895.161	19940
895.283	19906
895.405	19830
895.526	19898
895.648	19898
895.769	19940
895.891	19936
896.012	19982
896.134	20073
896.255	19959
896.376	19837
896.498	19883
896.619	19978
896.74	19799
896.861	19947
896.982	20191
897.103	20408
897.224	20221
897.345	20145
897.466	20084
897.587	20180
897.708	20267
897.828	20176
897.949	20050
898.07	20016
898.19	20001
898.311	20122
898.431	20142
898.552	20084
898.672	20187
898.792	20225
898.913	19993
899.033	20058
899.153	19944
899.273	19780
899.393	19902
899.513	19883
899.633	19917
899.753	19951
899.873	19833
899.993	19860
900.113	19761
900.232	19822
900.352	19906
900.472	19803
900.591	19537
900.711	19647
900.83	19723
900.95	19662
901.069	19765
901.189	19544
901.308	19346
901.427	19301
901.546	19221
901.665	19312
901.784	19259
901.904	19099
902.023	19065
902.141	18795
902.26	18825
902.379	18829
902.498	18768
902.617	18726
902.735	18700
902.854	18734
902.973	18661
903.091	18448
903.21	18502
903.328	18399
903.446	18311
903.565	18251
903.683	18334
903.801	18064
903.919	18194
904.038	18136
904.156	18038
904.274	18038
904.392	18034
904.51	17999
904.627	18038
904.745	18091
904.863	18068
904.981	17851
905.098	17703
905.216	17695
905.334	17794
905.451	17707
905.569	17661
905.686	17604
905.803	17649
905.921	17364
906.038	17668
906.155	17570
906.272	17433
906.389	17414
906.506	17159
906.623	17204
906.74	17231
906.857	17079
906.974	17242
907.091	17185
907.208	17322
907.324	17284
907.441	17056
907.557	16991
907.674	16991
907.79	16885
907.907	16892
908.023	16972
908.139	16984
908.256	16862
908.372	16850
908.488	16858
908.604	16767
908.72	16615
908.836	16584
908.952	16645
909.068	16618
909.184	16717
909.3	16675
909.415	16672
909.531	16615
909.647	16523
909.762	16424
909.878	16375
909.993	16424
910.108	16363
910.224	16306
910.339	16265
910.454	16253
910.57	16166
910.685	16223
910.8	16310
910.915	16303
911.03	16242
911.145	15884
911.259	16025
911.374	16040
911.489	15987
911.604	15819
911.718	15785
911.833	15717
911.947	15633
912.062	15538
912.176	15698
912.291	15694
912.405	15785
912.519	15774
912.633	15930
912.748	15739
912.862	15709
912.976	15542
913.09	15507
913.204	15519
913.318	15542
913.431	15557
913.545	15637
913.659	15595
913.772	15610
913.886	15363
914	15332
914.113	15359
914.226	15424
914.34	15374
914.453	15275
914.566	15382
914.68	15329
914.793	15180
914.906	15013
915.019	15001
915.132	14948
915.245	14811
915.358	14902
915.47	14933
915.583	15017
915.696	15013
915.809	15142
915.921	15081
916.034	14899
916.146	14914
916.259	14796
916.371	14906
916.483	14887
916.595	14788
916.708	14838
916.82	14712
916.932	14777
917.044	14777
917.156	14689
917.268	14560
917.38	14697
917.491	14579
917.603	14640
917.715	14651
917.826	14849
917.938	14488
918.049	14381
918.161	14549
918.272	14762
918.384	14705
918.495	14499
918.606	14450
918.717	14362
918.828	14461
918.939	14377
919.05	14355
919.161	14438
919.272	14195
919.383	14263
919.494	14461
919.604	14670
919.715	14400
919.826	14267
919.936	14328
920.047	14533
920.157	14290
920.267	14564
920.378	14423
920.488	14374
920.598	14522
920.708	14712
920.818	14438
920.928	14473
921.038	14648
921.148	14564
921.258	14404
921.368	14191
921.477	14119
921.587	14149
921.697	14020
921.806	14119
921.916	13940
922.025	13765
922.134	13753
922.244	13685
922.353	13769
922.462	13643
922.571	13636
922.68	13438
922.789	13392
922.898	13400
923.007	13369
923.116	13422
923.224	13438
923.333	13350
923.442	13301
923.55	13266
923.659	13244
923.767	13331
923.876	13206
923.984	13202
924.092	13225
924.201	13149
924.309	13179
924.417	13164
924.525	13149
924.633	13095
924.741	13860
924.849	12909
924.956	13019
925.064	12882
925.172	12848
925.279	12806
925.387	12833
925.494	12810
925.602	12916
925.709	12867
925.816	12768
925.924	12757
926.031	12814
926.138	12738
926.245	12833
926.352	12715
926.459	12707
926.566	12852
926.673	12768
926.779	12639
926.886	12574
926.993	12353
927.099	12388
927.206	12380
927.312	12365
927.419	12452
927.525	12429
927.631	12418
927.737	12285
927.843	12159
927.95	12186
928.056	12235
928.162	12251
928.267	12216
928.373	12692
928.479	12220
928.585	12091
928.69	12300
928.796	12216
928.901	12133
929.007	11965
929.112	12068
929.218	12140
929.323	11916
929.428	11931
929.533	12068
929.638	11874
929.743	11973
929.848	11920
929.953	11920
930.058	11783
930.163	11627
930.267	11737
930.372	11809
930.477	11653
930.581	11843
930.685	11707
930.79	11535
930.894	11551
930.998	11554
931.103	11661
931.207	11341
931.311	11140
931.415	11208
931.519	10999
931.623	10976
