Data from test_V78500241_1918.txt Node
Date: Fri Mar 25 15:23:12 CST 2022
User: usil
Spectrometer: V785-0024
Trigger mode: 0
Integration Time (sec): 4.000000E-1
Scans to average: 1
Nonlinearity correction enabled: false
Boxcar width: 0
Storing dark spectrum: false
XAxis mode: Wavelengths
Number of Pixels in Spectrum: 1024
>>>>>Begin Spectral Data<<<<<
801.071	27701
801.214	27519
801.356	27393
801.499	27370
801.641	27275
801.783	27131
801.926	27127
802.068	27245
802.211	27169
802.353	26982
802.496	26902
802.638	26895
802.78	26735
802.923	26830
803.065	26781
803.208	26705
803.35	26960
803.492	26937
803.635	27017
803.777	26948
803.919	27116
804.061	27397
804.204	27055
804.346	26925
804.488	26948
804.63	26940
804.773	26975
804.915	27032
805.057	27074
805.199	26746
805.341	27108
805.483	27150
805.626	27058
805.768	27005
805.91	27135
806.052	27081
806.194	27100
806.336	27302
806.478	27230
806.62	27207
806.762	27287
806.904	27420
807.046	27496
807.188	27595
807.33	27492
807.472	27656
807.614	27412
807.756	27469
807.898	27340
808.04	27306
808.182	27249
808.324	27378
808.465	27431
808.607	27690
808.749	27759
808.891	27732
809.033	27842
809.174	27797
809.316	27751
809.458	27766
809.6	27599
809.741	27774
809.883	27835
810.025	27934
810.166	27960
810.308	27991
810.45	28010
810.591	27812
810.733	27838
810.875	27705
811.016	27682
811.158	27660
811.299	27682
811.441	27865
811.582	27827
811.724	27686
811.865	27652
812.007	27663
812.148	27698
812.29	27797
812.431	27800
812.573	28078
812.714	28287
812.855	28272
812.997	28470
813.138	28474
813.279	28398
813.421	28306
813.562	28139
813.703	28173
813.845	27827
813.986	27713
814.127	27572
814.268	27473
814.41	27504
814.551	27340
814.692	27603
814.833	27496
814.974	27272
815.115	27329
815.256	27386
815.397	27264
815.539	27408
815.68	27249
815.821	27161
815.962	27275
816.103	27245
816.244	27093
816.385	26918
816.526	26944
816.666	26724
816.807	26617
816.948	26807
817.089	26830
817.23	26708
817.371	26712
817.512	26849
817.653	26701
817.793	26613
817.934	26621
818.075	26655
818.216	26708
818.356	26769
818.497	26571
818.638	26286
818.778	26492
818.919	26587
819.06	26400
819.2	26609
819.341	26724
819.481	26648
819.622	26960
819.762	27070
819.903	26971
820.043	26914
820.184	26826
820.324	26804
820.465	26921
820.605	26716
820.746	26682
820.886	26689
821.026	26804
821.167	26716
821.307	26838
821.447	26705
821.588	26590
821.728	26438
821.868	26366
822.008	26206
822.149	26199
822.289	26054
822.429	26043
822.569	25925
822.709	25845
822.849	25662
822.99	25670
823.13	25578
823.27	25632
823.41	25525
823.55	25468
823.69	25400
823.83	25537
823.97	25411
824.11	25301
824.25	25293
824.389	25308
824.529	25384
824.669	25365
824.809	25518
824.949	25403
825.089	25468
825.228	25403
825.368	25099
825.508	25270
825.648	25107
825.787	25152
825.927	25263
826.067	25114
826.206	25183
826.346	25209
826.485	25221
826.625	25240
826.765	25263
826.904	25217
827.044	24981
827.183	25015
827.323	25015
827.462	24958
827.601	25008
827.741	24783
827.88	24878
828.02	24863
828.159	24817
828.298	24977
828.437	24966
828.577	24783
828.716	24882
828.855	24764
828.994	24650
829.134	24597
829.273	24677
829.412	24528
829.551	24544
829.69	24582
829.829	24593
829.968	24749
830.107	24806
830.246	24555
830.385	24517
830.524	24639
830.663	24342
830.802	24422
830.941	24178
831.08	24209
831.219	24327
831.357	24361
831.496	24422
831.635	24232
831.774	24060
831.913	24194
832.051	24098
832.19	24087
832.329	23996
832.467	23828
832.606	23901
832.744	23889
832.883	23828
833.022	23821
833.16	23798
833.299	23954
833.437	23961
833.576	23961
833.714	23939
833.852	24011
833.991	24045
834.129	24057
834.267	23996
834.406	23950
834.544	24049
834.682	24007
834.821	23893
834.959	24136
835.097	24007
835.235	23973
835.373	23847
835.511	23942
835.65	23802
835.788	23805
835.926	23752
836.064	23661
836.202	23729
836.34	23798
836.478	23885
836.615	23832
836.753	23672
836.891	23889
837.029	23912
837.167	23771
837.305	23733
837.443	23592
837.58	23710
837.718	23684
837.856	23752
837.993	23699
838.131	23646
838.269	23493
838.406	23516
838.544	23417
838.681	23395
838.819	23246
838.956	23216
839.094	23025
839.231	23052
839.369	23250
839.506	23463
839.643	23284
839.781	23311
839.918	23094
840.055	23227
840.193	23090
840.33	22991
840.467	23113
840.604	23056
840.742	23250
840.879	22972
841.016	23033
841.153	22949
841.29	23208
841.427	22938
841.564	23041
841.701	23113
841.838	22980
841.975	22976
842.112	22995
842.249	22892
842.385	22930
842.522	23090
842.659	22862
842.796	22812
842.933	22828
843.069	22828
843.206	22752
843.343	22809
843.479	22786
843.616	22839
843.752	22615
843.889	22611
844.025	22675
844.162	22622
844.298	22653
844.435	22637
844.571	22580
844.708	22611
844.844	22725
844.98	22721
845.117	22668
845.253	22535
845.389	22459
845.525	22554
845.661	22390
845.798	22402
845.934	22299
846.07	22379
846.206	22192
846.342	22497
846.478	22261
846.614	22139
846.75	21987
846.886	21979
847.022	22090
847.158	22082
847.294	22185
847.429	22010
847.565	21979
847.701	22177
847.837	21800
847.972	21747
848.108	21857
848.244	21911
848.379	21762
848.515	21625
848.65	21561
848.786	21622
848.921	21679
849.057	21701
849.192	21686
849.328	21660
849.463	21618
849.598	21580
849.734	21557
849.869	21587
850.004	21424
850.14	21462
850.275	21359
850.41	21317
850.545	21249
850.68	21306
850.815	21408
850.95	21412
851.085	21599
851.22	21485
851.355	21542
851.49	21401
851.625	21500
851.76	21389
851.895	21256
852.03	21378
852.165	21378
852.299	21412
852.434	21458
852.569	21507
852.703	21340
852.838	21534
852.973	21606
853.107	21538
853.242	21252
853.376	21226
853.511	21207
853.645	21256
853.78	21317
853.914	21382
854.048	21279
854.183	21154
854.317	21294
854.451	21348
854.585	21218
854.72	21294
854.854	21195
854.988	21131
855.122	21279
855.256	21108
855.39	21180
855.524	21397
855.658	21408
855.792	21211
855.926	21195
856.06	21249
856.194	21382
856.327	21104
856.461	21249
856.595	21218
856.729	21279
856.862	21214
856.996	21260
857.13	21344
857.263	21393
857.397	21340
857.53	21272
857.664	21272
857.797	21173
857.931	21306
858.064	21268
858.197	21348
858.331	21188
858.464	21302
858.597	21119
858.731	21264
858.864	21142
858.997	21165
859.13	21241
859.263	21230
859.396	21393
859.529	21173
859.662	21230
859.795	21203
859.928	21268
860.061	21363
860.194	21256
860.327	21222
860.46	21188
860.592	21283
860.725	21477
860.858	21416
860.99	21291
861.123	21157
861.256	21249
861.388	21173
861.521	21979
861.653	20982
861.786	21005
861.918	21062
862.05	21150
862.183	21222
862.315	21135
862.447	21214
862.58	21096
862.712	20944
862.844	21020
862.976	20998
863.108	21005
863.24	21348
863.372	20811
863.504	20918
863.636	21001
863.768	20994
863.9	20956
864.032	20975
864.164	20971
864.296	20990
864.428	21165
864.559	21127
864.691	20941
864.823	20921
864.954	20937
865.086	20956
865.217	20746
865.349	20849
865.48	20811
865.612	20925
865.743	20960
865.875	20933
866.006	20773
866.137	20929
866.269	20716
866.4	20834
866.531	20769
866.662	20746
866.793	20735
866.924	20632
867.055	20842
867.186	20708
867.317	20731
867.448	20796
867.579	20682
867.71	20686
867.841	20686
867.972	20716
868.103	20762
868.233	20758
868.364	20754
868.495	20979
868.625	20979
868.756	21127
868.886	20994
869.017	20941
869.147	21116
869.278	21055
869.408	20979
869.539	21093
869.669	21032
869.799	20963
869.929	21192
870.06	21222
870.19	21325
870.32	21256
870.45	21359
870.58	21348
870.71	21595
870.84	21496
870.97	21431
871.1	21424
871.23	21450
871.36	21591
871.489	21557
871.619	21443
871.749	21625
871.879	21663
872.008	21819
872.138	21606
872.267	21485
872.397	21519
872.526	21477
872.656	21534
872.785	21530
872.915	21720
873.044	21793
873.173	21652
873.303	21622
873.432	21755
873.561	21869
873.69	21625
873.819	21587
873.948	21682
874.077	21736
874.206	21606
874.335	21690
874.464	21660
874.593	21941
874.722	21964
874.851	21736
874.979	21998
875.108	21873
875.237	21713
875.365	21717
875.494	21953
875.623	21937
875.751	21835
875.88	21964
876.008	21876
876.136	21975
876.265	22207
876.393	22485
876.521	22371
876.65	22360
876.778	22310
876.906	22120
877.034	22131
877.162	22268
877.29	22135
877.418	22215
877.546	22219
877.674	22181
877.802	22128
877.93	22135
878.058	22211
878.185	22207
878.313	22246
878.441	22219
878.568	22051
878.696	22070
878.824	22055
878.951	22261
879.079	22306
879.206	22557
879.333	22382
879.461	22177
879.588	22287
879.715	22421
879.842	22459
879.97	22276
880.097	22093
880.224	22105
880.351	22070
880.478	22128
880.605	21987
880.732	22017
880.859	22173
880.986	22086
881.112	22120
881.239	21975
881.366	21770
881.493	21789
881.619	21682
881.746	21667
881.872	21682
881.999	21458
882.125	21583
882.252	21603
882.378	21485
882.505	21774
882.631	21458
882.757	21336
882.883	21306
883.01	21336
883.136	21264
883.262	21161
883.388	21039
883.514	21351
883.64	21477
883.766	21154
883.892	21017
884.018	21032
884.143	21222
884.269	21458
884.395	21085
884.52	20963
884.646	20941
884.772	20857
884.897	20925
885.023	20914
885.148	21036
885.274	21058
885.399	21100
885.524	20914
885.65	20872
885.775	21051
885.9	20887
886.025	21116
886.15	20948
886.275	20864
886.4	20750
886.525	20918
886.65	20902
886.775	20842
886.9	20994
887.025	21066
887.149	20880
887.274	20777
887.399	20773
887.523	20701
887.648	20659
887.773	20625
887.897	20937
888.021	20739
888.146	20602
888.27	20788
888.395	20826
888.519	20739
888.643	20769
888.767	20815
888.891	20571
889.015	20594
889.139	20651
889.263	20446
889.387	20617
889.511	20689
889.635	20731
889.759	20530
889.883	20613
890.006	20518
890.13	20537
890.254	20389
890.377	20484
890.501	20252
890.624	20301
890.748	20339
890.871	20058
890.995	20077
891.118	19997
891.241	20107
891.364	20180
891.488	20225
891.611	20065
891.734	20115
891.857	20157
891.98	20088
892.103	20168
892.226	20126
892.349	20065
892.471	19936
892.594	20035
892.717	19970
892.839	19986
892.962	20107
893.085	19890
893.207	19909
893.33	19898
893.452	19955
893.575	19936
893.697	19913
893.819	20069
893.941	20161
894.064	20180
894.186	19909
894.308	19970
894.43	20065
894.552	20161
894.674	20043
894.796	19936
894.918	19986
895.04	19947
895.161	20153
895.283	20050
895.405	19951
895.526	20149
895.648	20005
895.769	20050
895.891	20024
896.012	20134
896.134	20077
896.255	20001
896.376	19879
896.498	20012
896.619	20081
896.74	20054
896.861	20092
896.982	20374
897.103	20484
897.224	20210
897.345	20309
897.466	20195
897.587	20168
897.708	20218
897.828	20305
897.949	20096
898.07	20046
898.19	20138
898.311	20450
898.431	20161
898.552	20157
898.672	20244
898.792	20237
898.913	20221
899.033	20168
899.153	20031
899.273	19875
899.393	19845
899.513	19978
899.633	19902
899.753	20031
899.873	19765
899.993	19940
900.113	19830
900.232	19978
900.352	19826
900.472	19765
900.591	19582
900.711	19887
900.83	19715
900.95	19860
901.069	19803
901.189	19578
901.308	19316
901.427	19274
901.546	19316
901.665	19343
901.784	19377
901.904	19190
902.023	19179
902.141	18867
902.26	18806
902.379	18920
902.498	18856
902.617	18852
902.735	18886
902.854	18760
902.973	18738
903.091	18582
903.21	18532
903.328	18426
903.446	18479
903.565	18323
903.683	18388
903.801	18167
903.919	18292
904.038	18311
904.156	18174
904.274	18201
904.392	18076
904.51	18129
904.627	18095
904.745	18140
904.863	18114
904.981	17965
905.098	17752
905.216	17771
905.334	17813
905.451	17828
905.569	17676
905.686	17726
905.803	17733
905.921	17520
906.038	17570
906.155	17600
906.272	17551
906.389	17501
906.506	17322
906.623	17303
906.74	17299
906.857	17212
906.974	17189
907.091	17402
907.208	17452
907.324	17356
907.441	17212
907.557	17083
907.674	17109
907.79	16908
907.907	17067
908.023	16995
908.139	17041
908.256	17006
908.372	16869
908.488	16835
908.604	16835
908.72	16740
908.836	16660
908.952	16664
909.068	16691
909.184	16896
909.3	16744
909.415	16816
909.531	16691
909.647	16466
909.762	16424
909.878	16424
909.993	16546
910.108	16390
910.224	16447
910.339	16402
910.454	16310
910.57	16253
910.685	16051
910.8	16527
910.915	16390
911.03	16265
911.145	16021
911.259	15953
911.374	16002
911.489	15915
911.604	15861
911.718	15739
911.833	15743
911.947	15660
912.062	15610
912.176	15728
912.291	15728
912.405	15747
912.519	15854
912.633	15972
912.748	15823
912.862	15717
912.976	15618
913.09	15473
913.204	15538
913.318	15557
913.431	15584
913.545	15572
913.659	15720
913.772	15591
913.886	15504
914	15355
914.113	15443
914.226	15599
914.34	15477
914.453	15226
914.566	15500
914.68	15348
914.793	15237
914.906	15055
915.019	14944
915.132	14937
915.245	14921
915.358	15055
915.47	14998
915.583	14982
915.696	15074
915.809	15169
915.921	15146
916.034	14982
916.146	14944
916.259	14910
916.371	14994
916.483	14982
916.595	14887
916.708	14956
916.82	14910
916.932	14785
917.044	14731
917.156	14731
917.268	14682
917.38	14838
917.491	14689
917.603	14758
917.715	14720
917.826	14777
917.938	14632
918.049	14556
918.161	14644
918.272	14773
918.384	14762
918.495	14606
918.606	14564
918.717	14389
918.828	14575
918.939	14499
919.05	14374
919.161	14446
919.272	14275
919.383	14305
919.494	14575
919.604	14621
919.715	14503
919.826	14301
919.936	14385
920.047	14419
920.157	14442
920.267	14648
920.378	14461
920.488	14484
920.598	14606
920.708	14872
920.818	14579
920.928	14488
921.038	14754
921.148	14674
921.258	14377
921.368	14343
921.477	14157
921.587	14172
921.697	14012
921.806	14187
921.916	14001
922.025	13856
922.134	13849
922.244	13807
922.353	13871
922.462	13696
922.571	13609
922.68	13533
922.789	13460
922.898	13540
923.007	13529
923.116	13434
923.224	13415
923.333	13377
923.442	13392
923.55	13236
923.659	13266
923.767	13320
923.876	13259
923.984	13354
924.092	13198
924.201	13187
924.309	13160
924.417	13198
924.525	13187
924.633	13202
924.741	14149
924.849	12951
924.956	13057
925.064	12977
925.172	12817
925.279	12890
925.387	12894
925.494	12897
925.602	12973
925.709	12909
925.816	12798
925.924	12821
926.031	12981
926.138	12817
926.245	12867
926.352	12776
926.459	12913
926.566	12886
926.673	12711
926.779	12612
926.886	12601
926.993	12513
927.099	12399
927.206	12521
927.312	12410
927.419	12490
927.525	12452
927.631	12498
927.737	12327
927.843	12407
927.95	12254
928.056	12232
928.162	12300
928.267	12357
928.373	12802
928.479	12273
928.585	12186
928.69	12235
928.796	12281
928.901	12072
929.007	11996
929.112	12163
929.218	12072
929.323	11954
929.428	11996
929.533	12095
929.638	12011
929.743	11988
929.848	12057
929.953	11954
930.058	11897
930.163	11695
930.267	11691
930.372	11798
930.477	11661
930.581	11794
930.685	11714
930.79	11589
930.894	11680
930.998	11566
931.103	11551
931.207	11368
931.311	11212
931.415	11220
931.519	10999
931.623	10984
