Data from test_V78500241_284.txt Node
Date: Fri Mar 25 15:11:50 CST 2022
User: usil
Spectrometer: V785-0024
Trigger mode: 0
Integration Time (sec): 4.000000E-1
Scans to average: 1
Nonlinearity correction enabled: false
Boxcar width: 0
Storing dark spectrum: false
XAxis mode: Wavelengths
Number of Pixels in Spectrum: 1024
>>>>>Begin Spectral Data<<<<<
801.071	27972
801.214	27842
801.356	27610
801.499	27485
801.641	27523
801.783	27431
801.926	27564
802.068	27454
802.211	27393
802.353	27435
802.496	27165
802.638	27188
802.78	27233
802.923	27066
803.065	26937
803.208	27074
803.35	27142
803.492	27226
803.635	27230
803.777	27192
803.919	27245
804.061	27511
804.204	27351
804.346	27123
804.488	27119
804.63	27173
804.773	27108
804.915	27161
805.057	27317
805.199	27108
805.341	27294
805.483	27374
805.626	27321
805.768	27173
805.91	27317
806.052	27329
806.194	27287
806.336	27576
806.478	27325
806.62	27283
806.762	27496
806.904	27652
807.046	27907
807.188	27705
807.33	27747
807.472	27770
807.614	27618
807.756	27701
807.898	27412
808.04	27386
808.182	27523
808.324	27473
808.465	27682
808.607	27770
808.749	27774
808.891	28010
809.033	28166
809.174	28002
809.316	27949
809.458	27835
809.6	28032
809.741	28105
809.883	28006
810.025	28131
810.166	28097
810.308	28086
810.45	28055
810.591	28230
810.733	27869
810.875	27991
811.016	27690
811.158	27808
811.299	27979
811.441	27979
811.582	27994
811.724	27953
811.865	27812
812.007	27800
812.148	27804
812.29	27911
812.431	28078
812.573	28226
812.714	28135
812.855	28242
812.997	28535
813.138	28626
813.279	28443
813.421	28356
813.562	28325
813.703	28242
813.845	28013
813.986	27850
814.127	27526
814.268	27698
814.41	27492
814.551	27431
814.692	27523
814.833	27408
814.974	27370
815.115	27572
815.256	27344
815.397	27226
815.539	27431
815.68	27302
815.821	27222
815.962	27298
816.103	27252
816.244	27252
816.385	27081
816.526	27036
816.666	26861
816.807	26792
816.948	26853
817.089	26845
817.23	26762
817.371	26769
817.512	26876
817.653	26727
817.793	26655
817.934	26826
818.075	26621
818.216	26842
818.356	26632
818.497	26556
818.638	26434
818.778	26442
818.919	26507
819.06	26457
819.2	26625
819.341	26625
819.481	26621
819.622	26952
819.762	27024
819.903	26918
820.043	26914
820.184	26838
820.324	26819
820.465	26845
820.605	26800
820.746	26750
820.886	26575
821.026	26606
821.167	26800
821.307	26815
821.447	26724
821.588	26549
821.728	26476
821.868	26362
822.008	26081
822.149	26103
822.289	26122
822.429	25822
822.569	25776
822.709	25849
822.849	25677
822.99	25788
823.13	25681
823.27	25506
823.41	25438
823.55	25384
823.69	25499
823.83	25400
823.97	25499
824.11	25232
824.25	25297
824.389	25232
824.529	25415
824.669	25293
824.809	25403
824.949	25362
825.089	25415
825.228	25293
825.368	25091
825.508	25133
825.648	25114
825.787	25046
825.927	25095
826.067	25152
826.206	25012
826.346	25171
826.485	25164
826.625	25057
826.765	25160
826.904	25145
827.044	24871
827.183	24840
827.323	24741
827.462	24840
827.601	24806
827.741	24901
827.88	24681
828.02	24597
828.159	24875
828.298	24802
828.437	24844
828.577	24779
828.716	24924
828.855	24604
828.994	24475
829.134	24407
829.273	24589
829.412	24418
829.551	24410
829.69	24323
829.829	24585
829.968	24532
830.107	24559
830.246	24578
830.385	24437
830.524	24247
830.663	24357
830.802	24197
830.941	23996
831.08	24072
831.219	24178
831.357	24026
831.496	24292
831.635	24026
831.774	24129
831.913	24049
832.051	23836
832.19	23851
832.329	23965
832.467	23714
832.606	23707
832.744	23767
832.883	23718
833.022	23577
833.16	23760
833.299	23722
833.437	23646
833.576	23767
833.714	23710
833.852	23802
833.991	23916
834.129	23878
834.267	23908
834.406	23824
834.544	23855
834.682	23821
834.821	23756
834.959	23840
835.097	23642
835.235	23802
835.373	23680
835.511	23863
835.65	23649
835.788	23634
835.926	23531
836.064	23455
836.202	23501
836.34	23718
836.478	23619
836.615	23691
836.753	23707
836.891	23684
837.029	23646
837.167	23623
837.305	23531
837.443	23566
837.58	23402
837.718	23573
837.856	23501
837.993	23391
838.131	23349
838.269	23284
838.406	23326
838.544	23280
838.681	23056
838.819	23037
838.956	22885
839.094	22927
839.231	23048
839.369	23018
839.506	23170
839.643	23200
839.781	22850
839.918	22793
840.055	22915
840.193	22797
840.33	22835
840.467	22835
840.604	22850
840.742	23128
840.879	22740
841.016	22824
841.153	22645
841.29	22850
841.427	22660
841.564	22873
841.701	22664
841.838	22683
841.975	22782
842.112	22793
842.249	22599
842.385	22535
842.522	22793
842.659	22752
842.796	22573
842.933	22557
843.069	22481
843.206	22405
843.343	22615
843.479	22615
843.616	22474
843.752	22405
843.889	22360
844.025	22527
844.162	22249
844.298	22413
844.435	22261
844.571	22428
844.708	22363
844.844	22432
844.98	22542
845.117	22497
845.253	22257
845.389	22253
845.525	22139
845.661	22059
845.798	21994
845.934	22112
846.07	22048
846.206	22067
846.342	22196
846.478	22101
846.614	21800
846.75	21759
846.886	21785
847.022	21873
847.158	21778
847.294	21842
847.429	21705
847.565	21827
847.701	21983
847.837	21488
847.972	21496
848.108	21629
848.244	21644
848.379	21378
848.515	21416
848.65	21310
848.786	21412
848.921	21454
849.057	21492
849.192	21530
849.328	21317
849.463	21386
849.598	21344
849.734	21146
849.869	21264
850.004	21112
850.14	21104
850.275	21100
850.41	20960
850.545	21214
850.68	21123
850.815	21188
850.95	21112
851.085	21310
851.22	21203
851.355	21032
851.49	21188
851.625	21093
851.76	21028
851.895	21047
852.03	21047
852.165	21051
852.299	21036
852.434	21138
852.569	21230
852.703	21173
852.838	21039
852.973	21195
853.107	21230
853.242	21028
853.376	21017
853.511	20777
853.645	20861
853.78	21001
853.914	20902
854.048	20880
854.183	20982
854.317	20899
854.451	21062
854.585	20872
854.72	20788
854.854	21009
854.988	20777
855.122	20918
855.256	20724
855.39	20921
855.524	20963
855.658	20887
855.792	20933
855.926	20990
856.06	21017
856.194	20876
856.327	20819
856.461	20796
856.595	20792
856.729	20819
856.862	21062
856.996	20967
857.13	20933
857.263	21062
857.397	20986
857.53	20800
857.664	20868
857.797	20979
857.931	20914
858.064	20918
858.197	21150
858.331	20937
858.464	20887
858.597	20800
858.731	20800
858.864	20861
858.997	20830
859.13	20853
859.263	21013
859.396	21013
859.529	20880
859.662	20876
859.795	20872
859.928	20941
860.061	21123
860.194	21062
860.327	20861
860.46	20743
860.592	21024
860.725	21028
860.858	20944
860.99	20941
861.123	20849
861.256	20777
861.388	20861
861.521	21428
861.653	20762
861.786	20769
861.918	20705
862.05	20819
862.183	20883
862.315	20857
862.447	20902
862.58	20746
862.712	20712
862.844	20514
862.976	20716
863.108	20632
863.24	21024
863.372	20670
863.504	20488
863.636	20602
863.768	20587
863.9	20663
864.032	20484
864.164	20427
864.296	20632
864.428	20765
864.559	20693
864.691	20648
864.823	20484
864.954	20575
865.086	20530
865.217	20511
865.349	20438
865.48	20499
865.612	20488
865.743	20625
865.875	20568
866.006	20431
866.137	20530
866.269	20377
866.4	20522
866.531	20434
866.662	20396
866.793	20446
866.924	20393
867.055	20377
867.186	20381
867.317	20419
867.448	20355
867.579	20393
867.71	20400
867.841	20408
867.972	20427
868.103	20511
868.233	20503
868.364	20389
868.495	20587
868.625	20651
868.756	20697
868.886	20583
869.017	20724
869.147	20731
869.278	20785
869.408	20587
869.539	20636
869.669	20724
869.799	20781
869.929	20952
870.06	20807
870.19	20956
870.32	20967
870.45	20933
870.58	21116
870.71	21188
870.84	21195
870.97	21066
871.1	21104
871.23	21116
871.36	21287
871.489	21161
871.619	21207
871.749	21279
871.879	21233
872.008	21256
872.138	21344
872.267	21245
872.397	21047
872.526	21043
872.656	21112
872.785	21142
872.915	21310
873.044	21287
873.173	21313
873.303	21355
873.432	21462
873.561	21458
873.69	21317
873.819	21329
873.948	21291
874.077	21313
874.206	21291
874.335	21230
874.464	21408
874.593	21583
874.722	21401
874.851	21496
874.979	21587
875.108	21587
875.237	21504
875.365	21435
875.494	21507
875.623	21713
875.751	21367
875.88	21603
876.008	21694
876.136	21724
876.265	21895
876.393	22055
876.521	21983
876.65	22120
876.778	21888
876.906	21827
877.034	21861
877.162	21880
877.29	21979
877.418	21903
877.546	21956
877.674	21857
877.802	21823
877.93	21915
878.058	21743
878.185	21751
878.313	21888
878.441	21846
878.568	21762
878.696	21755
878.824	21922
878.951	21998
879.079	22109
879.206	22120
879.333	22048
879.461	22017
879.588	21949
879.715	21975
879.842	22162
879.97	21895
880.097	21675
880.224	21709
880.351	21660
880.478	21599
880.605	21568
880.732	21671
880.859	21793
880.986	21667
881.112	21675
881.239	21591
881.366	21431
881.493	21378
881.619	21431
881.746	21351
881.872	21188
881.999	21264
882.125	21211
882.252	21275
882.378	21173
882.505	21386
882.631	21161
882.757	21066
882.883	21074
883.01	20990
883.136	20899
883.262	20853
883.388	20823
883.514	21062
883.64	21070
883.766	20906
883.892	20804
884.018	20769
884.143	20902
884.269	21062
884.395	20670
884.52	20701
884.646	20632
884.772	20655
884.897	20579
885.023	20689
885.148	20686
885.274	20845
885.399	20788
885.524	20693
885.65	20678
885.775	20693
885.9	20640
886.025	20777
886.15	20758
886.275	20720
886.4	20492
886.525	20659
886.65	20522
886.775	20533
886.9	20712
887.025	20686
887.149	20552
887.274	20465
887.399	20320
887.523	20480
887.648	20328
887.773	20320
887.897	20552
888.021	20412
888.146	20244
888.27	20541
888.395	20514
888.519	20438
888.643	20476
888.767	20427
888.891	20252
889.015	20187
889.139	20275
889.263	20073
889.387	20298
889.511	20450
889.635	20351
889.759	20168
889.883	20119
890.006	20210
890.13	20320
890.254	20035
890.377	20149
890.501	19963
890.624	19833
890.748	19932
890.871	19772
890.995	19799
891.118	19681
891.241	19765
891.364	19731
891.488	19818
891.611	19761
891.734	19776
891.857	19742
891.98	19784
892.103	19822
892.226	19734
892.349	19757
892.471	19514
892.594	19666
892.717	19693
892.839	19715
892.962	19719
893.085	19750
893.207	19685
893.33	19658
893.452	19647
893.575	19628
893.697	19628
893.819	19788
893.941	19849
894.064	19887
894.186	19582
894.308	19594
894.43	19784
894.552	19906
894.674	19681
894.796	19582
894.918	19788
895.04	19563
895.161	19715
895.283	19750
895.405	19700
895.526	19643
895.648	19715
895.769	19712
895.891	19700
896.012	19856
896.134	19780
896.255	19822
896.376	19723
896.498	19632
896.619	19750
896.74	19704
896.861	19776
896.982	19986
897.103	20161
897.224	19932
897.345	19947
897.466	19921
897.587	19913
897.708	19986
897.828	19947
897.949	19925
898.07	19826
898.19	19837
898.311	20005
898.431	19944
898.552	19909
898.672	19925
898.792	20008
898.913	19894
899.033	19830
899.153	19639
899.273	19643
899.393	19655
899.513	19693
899.633	19765
899.753	19742
899.873	19643
899.993	19616
900.113	19639
900.232	19750
900.352	19578
900.472	19563
900.591	19396
900.711	19483
900.83	19403
900.95	19693
901.069	19575
901.189	19460
901.308	19072
901.427	19046
901.546	19107
901.665	19126
901.784	19114
901.904	18829
902.023	18806
902.141	18658
902.26	18681
902.379	18703
902.498	18677
902.617	18509
902.735	18681
902.854	18490
902.973	18460
903.091	18281
903.21	18167
903.328	18171
903.446	18216
903.565	18083
903.683	17954
903.801	18038
903.919	18007
904.038	17965
904.156	17847
904.274	17893
904.392	17828
904.51	17703
904.627	17722
904.745	17889
904.863	17855
904.981	17661
905.098	17501
905.216	17482
905.334	17566
905.451	17505
905.569	17592
905.686	17482
905.803	17478
905.921	17318
906.038	17410
906.155	17288
906.272	17231
906.389	17239
906.506	17098
906.623	17086
906.74	16908
906.857	16873
906.974	16972
907.091	17109
907.208	17075
907.324	17121
907.441	16961
907.557	16782
907.674	16653
907.79	16801
907.907	16641
908.023	16733
908.139	16656
908.256	16717
908.372	16634
908.488	16588
908.604	16478
908.72	16459
908.836	16379
908.952	16451
909.068	16546
909.184	16558
909.3	16489
909.415	16466
909.531	16466
909.647	16177
909.762	16166
909.878	16067
909.993	16169
910.108	16150
910.224	16074
910.339	16105
910.454	15994
910.57	15915
910.685	15880
910.8	16131
910.915	16116
911.03	16021
911.145	15705
911.259	15789
911.374	15701
911.489	15709
911.604	15595
911.718	15450
911.833	15492
911.947	15485
912.062	15336
912.176	15435
912.291	15450
912.405	15530
912.519	15663
912.633	15641
912.748	15545
912.862	15389
912.976	15374
913.09	15184
913.204	15317
913.318	15291
913.431	15336
913.545	15374
913.659	15329
913.772	15283
913.886	15165
914	15154
914.113	15138
914.226	15222
914.34	15264
914.453	15005
914.566	15218
914.68	14899
914.793	14952
914.906	14857
915.019	14743
915.132	14629
915.245	14800
915.358	14773
915.47	14648
915.583	14785
915.696	14731
915.809	14849
915.921	14758
916.034	14598
916.146	14598
916.259	14670
916.371	14739
916.483	14625
916.595	14526
916.708	14507
916.82	14575
916.932	14613
917.044	14507
917.156	14598
917.268	14374
917.38	14374
917.491	14256
917.603	14434
917.715	14461
917.826	14469
917.938	14362
918.049	14164
918.161	14366
918.272	14530
918.384	14446
918.495	14370
918.606	14195
918.717	14161
918.828	14244
918.939	14294
919.05	14069
919.161	14123
919.272	13913
919.383	14031
919.494	14248
919.604	14336
919.715	14180
919.826	14092
919.936	14100
920.047	14119
920.157	14157
920.267	14355
920.378	14142
920.488	14065
920.598	14377
920.708	14438
920.818	14202
920.928	14218
921.038	14336
921.148	14305
921.258	13982
921.368	13970
921.477	13879
921.587	13906
921.697	13734
921.806	13875
921.916	13731
922.025	13544
922.134	13651
922.244	13354
922.353	13601
922.462	13373
922.571	13320
922.68	13168
922.789	13133
922.898	13137
923.007	13069
923.116	13133
923.224	13164
923.333	13137
923.442	13023
923.55	13069
923.659	12993
923.767	13061
923.876	12985
923.984	13107
924.092	12890
924.201	12916
924.309	12962
924.417	12890
924.525	12772
924.633	12821
924.741	13548
924.849	12681
924.956	12810
925.064	12677
925.172	12547
925.279	12582
925.387	12677
925.494	12551
925.602	12817
925.709	12639
925.816	12585
925.924	12559
926.031	12593
926.138	12521
926.245	12509
926.352	12407
926.459	12563
926.566	12623
926.673	12433
926.779	12388
926.886	12315
926.993	12182
927.099	12205
927.206	12152
927.312	12114
927.419	12205
927.525	12060
927.631	12235
927.737	12072
927.843	12072
927.95	11950
928.056	11988
928.162	12022
928.267	12060
928.373	12612
928.479	12045
928.585	11901
928.69	11958
928.796	11866
928.901	11916
929.007	11756
929.112	11908
929.218	11832
929.323	11707
929.428	11745
929.533	11885
929.638	11585
929.743	11752
929.848	11668
929.953	11668
930.058	11482
930.163	11440
930.267	11486
930.372	11558
930.477	11379
930.581	11627
930.685	11471
930.79	11254
930.894	11379
930.998	11288
931.103	11425
931.207	11037
931.311	10995
931.415	10816
931.519	10759
931.623	10683
