Data from test_V78500241_2366.txt Node
Date: Fri Mar 25 15:26:20 CST 2022
User: usil
Spectrometer: V785-0024
Trigger mode: 0
Integration Time (sec): 4.000000E-1
Scans to average: 1
Nonlinearity correction enabled: false
Boxcar width: 0
Storing dark spectrum: false
XAxis mode: Wavelengths
Number of Pixels in Spectrum: 1024
>>>>>Begin Spectral Data<<<<<
801.071	27435
801.214	27336
801.356	27302
801.499	27104
801.641	27024
801.783	26811
801.926	26861
802.068	26952
802.211	26872
802.353	26826
802.496	26697
802.638	26606
802.78	26511
802.923	26480
803.065	26552
803.208	26503
803.35	26530
803.492	26773
803.635	26861
803.777	26697
803.919	26754
804.061	26902
804.204	26769
804.346	26632
804.488	26629
804.63	26735
804.773	26804
804.915	26876
805.057	26956
805.199	26743
805.341	26815
805.483	26880
805.626	26925
805.768	26701
805.91	26880
806.052	26773
806.194	26792
806.336	27043
806.478	26864
806.62	26864
806.762	26880
806.904	27108
807.046	27378
807.188	27100
807.33	27317
807.472	27405
807.614	27146
807.756	27230
807.898	27058
808.04	27131
808.182	27001
808.324	27142
808.465	27214
808.607	27310
808.749	27447
808.891	27553
809.033	27781
809.174	27492
809.316	27431
809.458	27507
809.6	27519
809.741	27717
809.883	27557
810.025	27629
810.166	27739
810.308	27648
810.45	27785
810.591	27549
810.733	27393
810.875	27466
811.016	27317
811.158	27389
811.299	27515
811.441	27675
811.582	27618
811.724	27420
811.865	27431
812.007	27473
812.148	27435
812.29	27355
812.431	27439
812.573	27819
812.714	27812
812.855	27964
812.997	28025
813.138	28124
813.279	28055
813.421	28010
813.562	27884
813.703	27717
813.845	27633
813.986	27427
814.127	27214
814.268	27138
814.41	27131
814.551	27051
814.692	27039
814.833	27043
814.974	27039
815.115	27074
815.256	26933
815.397	26990
815.539	26967
815.68	26967
815.821	26826
815.962	26975
816.103	26948
816.244	26819
816.385	26788
816.526	26689
816.666	26473
816.807	26393
816.948	26488
817.089	26374
817.23	26389
817.371	26419
817.512	26412
817.653	26393
817.793	26187
817.934	26393
818.075	26453
818.216	26351
818.356	26305
818.497	26267
818.638	26157
818.778	25970
818.919	26119
819.06	26107
819.2	26324
819.341	26313
819.481	26450
819.622	26473
819.762	26788
819.903	26701
820.043	26545
820.184	26412
820.324	26434
820.465	26602
820.605	26617
820.746	26507
820.886	26278
821.026	26442
821.167	26423
821.307	26579
821.447	26381
821.588	26370
821.728	26237
821.868	26054
822.008	25887
822.149	25860
822.289	25780
822.429	25521
822.569	25552
822.709	25460
822.849	25453
822.99	25343
823.13	25316
823.27	25312
823.41	25175
823.55	25091
823.69	25110
823.83	25171
823.97	25152
824.11	24947
824.25	24875
824.389	24943
824.529	25118
824.669	25103
824.809	25171
824.949	25095
825.089	25110
825.228	25061
825.368	24749
825.508	24806
825.648	24875
825.787	24757
825.927	24992
826.067	24749
826.206	24897
826.346	24817
826.485	24916
826.625	24783
826.765	24810
826.904	24875
827.044	24494
827.183	24471
827.323	24570
827.462	24639
827.601	24658
827.741	24403
827.88	24703
828.02	24483
828.159	24528
828.298	24650
828.437	24635
828.577	24475
828.716	24658
828.855	24505
828.994	24171
829.134	24296
829.273	24319
829.412	24213
829.551	24399
829.69	24247
829.829	24205
829.968	24361
830.107	24300
830.246	24342
830.385	24194
830.524	24197
830.663	24011
830.802	23996
830.941	23901
831.08	23882
831.219	23916
831.357	23939
831.496	24174
831.635	23958
831.774	23726
831.913	23863
832.051	23691
832.19	23714
832.329	23703
832.467	23543
832.606	23482
832.744	23524
832.883	23535
833.022	23539
833.16	23486
833.299	23497
833.437	23604
833.576	23623
833.714	23592
833.852	23653
833.991	23509
834.129	23786
834.267	23722
834.406	23581
834.544	23726
834.682	23611
834.821	23478
834.959	23885
835.097	23562
835.235	23707
835.373	23672
835.511	23554
835.65	23520
835.788	23512
835.926	23368
836.064	23261
836.202	23311
836.34	23638
836.478	23623
836.615	23448
836.753	23528
836.891	23490
837.029	23471
837.167	23277
837.305	23433
837.443	23395
837.58	23204
837.718	23436
837.856	23261
837.993	23258
838.131	23414
838.269	23227
838.406	23292
838.544	23166
838.681	23052
838.819	22847
838.956	22881
839.094	22729
839.231	22801
839.369	22831
839.506	23296
839.643	23204
839.781	22885
839.918	22611
840.055	22782
840.193	22763
840.33	22668
840.467	22755
840.604	22622
840.742	22965
840.879	22523
841.016	22512
841.153	22630
841.29	22721
841.427	22782
841.564	22733
841.701	22721
841.838	22653
841.975	22618
842.112	22611
842.249	22531
842.385	22481
842.522	22660
842.659	22592
842.796	22405
842.933	22424
843.069	22299
843.206	22432
843.343	22554
843.479	22375
843.616	22363
843.752	22185
843.889	22177
844.025	22253
844.162	22310
844.298	22211
844.435	22207
844.571	22177
844.708	22234
844.844	22329
844.98	22272
845.117	22371
845.253	22032
845.389	22032
845.525	22200
845.661	22078
845.798	21972
845.934	22025
846.07	21926
846.206	22017
846.342	22158
846.478	21994
846.614	21751
846.75	21606
846.886	21755
847.022	21686
847.158	21793
847.294	21663
847.429	21751
847.565	21686
847.701	21926
847.837	21466
847.972	21370
848.108	21515
848.244	21496
848.379	21344
848.515	21359
848.65	21184
848.786	21298
848.921	21252
849.057	21481
849.192	21329
849.328	21294
849.463	21203
849.598	21310
849.734	21192
849.869	21184
850.004	21058
850.14	21272
850.275	21032
850.41	20994
850.545	21005
850.68	21146
850.815	21074
850.95	21051
851.085	21169
851.22	21203
851.355	21093
851.49	20979
851.625	20990
851.76	21104
851.895	20948
852.03	20883
852.165	20849
852.299	21192
852.434	21173
852.569	21150
852.703	21043
852.838	21211
852.973	21188
853.107	21169
853.242	20910
853.376	20899
853.511	20796
853.645	20853
853.78	20979
853.914	20914
854.048	20933
854.183	20925
854.317	20853
854.451	21024
854.585	20861
854.72	20834
854.854	21005
854.988	20758
855.122	20834
855.256	20830
855.39	20853
855.524	20952
855.658	20925
855.792	20800
855.926	20815
856.06	20960
856.194	20982
856.327	21005
856.461	20914
856.595	20777
856.729	20887
856.862	21055
856.996	20902
857.13	20868
857.263	21100
857.397	20979
857.53	20845
857.664	20830
857.797	20990
857.931	20948
858.064	20906
858.197	20975
858.331	20781
858.464	20743
858.597	20864
858.731	20849
858.864	20880
858.997	20990
859.13	20868
859.263	20967
859.396	20944
859.529	20861
859.662	20872
859.795	20895
859.928	20960
860.061	21047
860.194	21154
860.327	20887
860.46	20872
860.592	21013
860.725	21058
860.858	20963
860.99	20902
861.123	20765
861.256	20830
861.388	20967
861.521	21564
861.653	20796
861.786	20678
861.918	20708
862.05	20811
862.183	20857
862.315	20883
862.447	20960
862.58	20826
862.712	20617
862.844	20530
862.976	20701
863.108	20663
863.24	21119
863.372	20571
863.504	20655
863.636	20590
863.768	20621
863.9	20651
864.032	20541
864.164	20678
864.296	20651
864.428	20705
864.559	20556
864.691	20693
864.823	20674
864.954	20648
865.086	20571
865.217	20518
865.349	20415
865.48	20571
865.612	20484
865.743	20625
865.875	20492
866.006	20461
866.137	20503
866.269	20431
866.4	20541
866.531	20446
866.662	20336
866.793	20457
866.924	20434
867.055	20530
867.186	20438
867.317	20473
867.448	20206
867.579	20233
867.71	20290
867.841	20404
867.972	20514
868.103	20499
868.233	20560
868.364	20419
868.495	20469
868.625	20712
868.756	20834
868.886	20617
869.017	20655
869.147	20754
869.278	20750
869.408	20705
869.539	20724
869.669	20659
869.799	20746
869.929	20823
870.06	20853
870.19	21066
870.32	20948
870.45	20883
870.58	20990
870.71	21184
870.84	21116
870.97	21127
871.1	21017
871.23	21310
871.36	21192
871.489	21252
871.619	21310
871.749	21291
871.879	21329
872.008	21355
872.138	21313
872.267	21230
872.397	21131
872.526	21055
872.656	21161
872.785	21058
872.915	21211
873.044	21310
873.173	21340
873.303	21359
873.432	21416
873.561	21310
873.69	21355
873.819	21340
873.948	21450
874.077	21302
874.206	21272
874.335	21245
874.464	21519
874.593	21447
874.722	21443
874.851	21447
874.979	21705
875.108	21603
875.237	21534
875.365	21564
875.494	21606
875.623	21519
875.751	21363
875.88	21595
876.008	21656
876.136	21686
876.265	21903
876.393	21968
876.521	22002
876.65	22032
876.778	21975
876.906	21865
877.034	21797
877.162	21850
877.29	21819
877.418	21835
877.546	21964
877.674	21873
877.802	21899
877.93	21907
878.058	21812
878.185	21743
878.313	21926
878.441	21816
878.568	21781
878.696	21759
878.824	21972
878.951	21937
879.079	22158
879.206	22078
879.333	21937
879.461	21941
879.588	22048
879.715	22086
879.842	22249
879.97	21964
880.097	21698
880.224	21747
880.351	21800
880.478	21781
880.605	21686
880.732	21789
880.859	21884
880.986	21709
881.112	21709
881.239	21591
881.366	21447
881.493	21393
881.619	21336
881.746	21283
881.872	21332
881.999	21214
882.125	21233
882.252	21218
882.378	21173
882.505	21374
882.631	21192
882.757	20937
882.883	21146
883.01	20921
883.136	20925
883.262	20861
883.388	20849
883.514	21043
883.64	20986
883.766	21020
883.892	20769
884.018	20724
884.143	20948
884.269	20891
884.395	20724
884.52	20670
884.646	20705
884.772	20583
884.897	20507
885.023	20689
885.148	20777
885.274	20754
885.399	20868
885.524	20712
885.65	20716
885.775	20689
885.9	20488
886.025	20750
886.15	20777
886.275	20640
886.4	20514
886.525	20560
886.65	20617
886.775	20465
886.9	20716
887.025	20765
887.149	20674
887.274	20518
887.399	20438
887.523	20256
887.648	20355
887.773	20252
887.897	20469
888.021	20465
888.146	20465
888.27	20632
888.395	20579
888.519	20545
888.643	20438
888.767	20328
888.891	20278
889.015	20282
889.139	20294
889.263	20210
889.387	20309
889.511	20457
889.635	20320
889.759	20199
889.883	20145
890.006	20282
890.13	20317
890.254	20218
890.377	20100
890.501	20027
890.624	20001
890.748	20043
890.871	19852
890.995	19776
891.118	19742
891.241	19852
891.364	19826
891.488	20062
891.611	19788
891.734	19841
891.857	19887
891.98	19772
892.103	19818
892.226	19799
892.349	19784
892.471	19635
892.594	19807
892.717	19693
892.839	19750
892.962	19693
893.085	19776
893.207	19708
893.33	19582
893.452	19689
893.575	19795
893.697	19693
893.819	19833
893.941	19959
894.064	19814
894.186	19662
894.308	19613
894.43	19795
894.552	19795
894.674	19769
894.796	19647
894.918	19700
895.04	19605
895.161	19753
895.283	19814
895.405	19639
895.526	19700
895.648	19643
895.769	19738
895.891	19761
896.012	19723
896.134	19803
896.255	19616
896.376	19830
896.498	19662
896.619	19616
896.74	19681
896.861	19803
896.982	20035
897.103	20214
897.224	19932
897.345	19909
897.466	19947
897.587	19913
897.708	20020
897.828	20065
897.949	19742
898.07	19795
898.19	19928
898.311	20054
898.431	19826
898.552	19791
898.672	19959
898.792	20130
898.913	19970
899.033	19833
899.153	19769
899.273	19746
899.393	19776
899.513	19677
899.633	19700
899.753	19677
899.873	19674
899.993	19715
900.113	19628
900.232	19734
900.352	19635
900.472	19533
900.591	19430
900.711	19590
900.83	19445
900.95	19597
901.069	19597
901.189	19266
901.308	19164
901.427	19126
901.546	18996
901.665	19107
901.784	19091
901.904	18958
902.023	18856
902.141	18612
902.26	18642
902.379	18627
902.498	18566
902.617	18513
902.735	18661
902.854	18532
902.973	18536
903.091	18353
903.21	18376
903.328	18228
903.446	18186
903.565	18053
903.683	18121
903.801	17996
903.919	18034
904.038	17931
904.156	17767
904.274	17920
904.392	17779
904.51	17767
904.627	17817
904.745	17912
904.863	17992
904.981	17608
905.098	17543
905.216	17570
905.334	17452
905.451	17478
905.569	17547
905.686	17630
905.803	17414
905.921	17395
906.038	17356
906.155	17421
906.272	17284
906.389	17261
906.506	17083
906.623	17102
906.74	17143
906.857	16934
906.974	16938
907.091	17052
907.208	17143
907.324	17064
907.441	16896
907.557	16835
907.674	16889
907.79	16615
907.907	16740
908.023	16797
908.139	16809
908.256	16713
908.372	16664
908.488	16573
908.604	16558
908.72	16394
908.836	16481
908.952	16489
909.068	16546
909.184	16569
909.3	16451
909.415	16519
909.531	16489
909.647	16226
909.762	16261
909.878	16287
909.993	16242
910.108	16181
910.224	16166
910.339	16162
910.454	16192
910.57	16116
910.685	15968
910.8	16166
910.915	16105
911.03	15972
911.145	15895
911.259	15835
911.374	15808
911.489	15671
911.604	15648
911.718	15667
911.833	15534
911.947	15481
912.062	15367
912.176	15580
912.291	15542
912.405	15515
912.519	15618
912.633	15747
912.748	15587
912.862	15488
912.976	15378
913.09	15252
913.204	15283
913.318	15363
913.431	15526
913.545	15367
913.659	15488
913.772	15378
913.886	15264
914	15173
914.113	15291
914.226	15306
914.34	15252
914.453	15108
914.566	15211
914.68	15024
914.793	15043
914.906	14902
915.019	14864
915.132	14731
915.245	14678
915.358	14807
915.47	14750
915.583	14773
915.696	14849
915.809	14921
915.921	14899
916.034	14712
916.146	14708
916.259	14705
916.371	14670
916.483	14796
916.595	14617
916.708	14632
916.82	14625
916.932	14488
917.044	14587
917.156	14644
917.268	14484
917.38	14560
917.491	14476
917.603	14518
917.715	14571
917.826	14556
917.938	14370
918.049	14294
918.161	14351
918.272	14606
918.384	14465
918.495	14381
918.606	14252
918.717	14092
918.828	14218
918.939	14267
919.05	14168
919.161	14221
919.272	14111
919.383	14077
919.494	14278
919.604	14465
919.715	14206
919.826	14111
919.936	14153
920.047	14206
920.157	14180
920.267	14336
920.378	14233
920.488	14195
920.598	14362
920.708	14465
920.818	14336
920.928	14229
921.038	14541
921.148	14389
921.258	14142
921.368	14039
921.477	13989
921.587	13947
921.697	13719
921.806	13917
921.916	13791
922.025	13586
922.134	13590
922.244	13537
922.353	13582
922.462	13411
922.571	13339
922.68	13297
922.789	13312
922.898	13350
923.007	13145
923.116	13282
923.224	13168
923.333	13168
923.442	13126
923.55	13015
923.659	13110
923.767	13053
923.876	13027
923.984	13103
924.092	13015
924.201	13065
924.309	12981
924.417	13072
924.525	12890
924.633	12935
924.741	13799
924.849	12669
924.956	12829
925.064	12707
925.172	12650
925.279	12658
925.387	12711
925.494	12696
925.602	12814
925.709	12559
925.816	12528
925.924	12582
926.031	12684
926.138	12551
926.245	12665
926.352	12540
926.459	12673
926.566	12741
926.673	12509
926.779	12509
926.886	12467
926.993	12311
927.099	12216
927.206	12201
927.312	12114
927.419	12251
927.525	12258
927.631	12350
927.737	12133
927.843	12083
927.95	11996
928.056	12068
928.162	12034
928.267	12076
928.373	12585
928.479	12167
928.585	11866
928.69	11999
928.796	12102
928.901	11939
929.007	11866
929.112	11939
929.218	11885
929.323	11847
929.428	11813
929.533	11817
929.638	11745
929.743	11756
929.848	11824
929.953	11813
930.058	11649
930.163	11535
930.267	11577
930.372	11676
930.477	11410
930.581	11710
930.685	11539
930.79	11376
930.894	11463
930.998	11376
931.103	11547
931.207	11143
931.311	11052
931.415	10949
931.519	10847
931.623	10729
