Data from test_V78500241_3253.txt Node
Date: Fri Mar 25 15:32:30 CST 2022
User: usil
Spectrometer: V785-0024
Trigger mode: 0
Integration Time (sec): 4.000000E-1
Scans to average: 1
Nonlinearity correction enabled: false
Boxcar width: 0
Storing dark spectrum: false
XAxis mode: Wavelengths
Number of Pixels in Spectrum: 1024
>>>>>Begin Spectral Data<<<<<
801.071	27272
801.214	27180
801.356	26998
801.499	26998
801.641	26697
801.783	26872
801.926	26895
802.068	26933
802.211	26705
802.353	26792
802.496	26492
802.638	26659
802.78	26492
802.923	26278
803.065	26457
803.208	26339
803.35	26488
803.492	26537
803.635	26663
803.777	26530
803.919	26648
804.061	26918
804.204	26579
804.346	26533
804.488	26385
804.63	26636
804.773	26598
804.915	26530
805.057	26765
805.199	26609
805.341	26670
805.483	26746
805.626	26705
805.768	26545
805.91	26682
806.052	26731
806.194	26689
806.336	26864
806.478	26651
806.62	26636
806.762	26902
806.904	26765
807.046	27195
807.188	27195
807.33	27127
807.472	27203
807.614	26967
807.756	27085
807.898	26872
808.04	26838
808.182	26883
808.324	26937
808.465	26921
808.607	27123
808.749	27241
808.891	27344
809.033	27298
809.174	27336
809.316	27222
809.458	27310
809.6	27222
809.741	27298
809.883	27424
810.025	27507
810.166	27496
810.308	27625
810.45	27348
810.591	27401
810.733	27492
810.875	27294
811.016	27116
811.158	27161
811.299	27450
811.441	27427
811.582	27458
811.724	27298
811.865	27214
812.007	27344
812.148	27188
812.29	27252
812.431	27496
812.573	27610
812.714	27477
812.855	27914
812.997	27800
813.138	28074
813.279	27861
813.421	27778
813.562	27736
813.703	27481
813.845	27481
813.986	27127
814.127	27108
814.268	26872
814.41	26960
814.551	26807
814.692	27119
814.833	26868
814.974	26960
815.115	26998
815.256	26838
815.397	26819
815.539	26868
815.68	26796
815.821	26758
815.962	26804
816.103	26724
816.244	26568
816.385	26442
816.526	26442
816.666	26431
816.807	26221
816.948	26210
817.089	26237
817.23	26153
817.371	26278
817.512	26233
817.653	26142
817.793	26142
817.934	26263
818.075	26278
818.216	26244
818.356	26157
818.497	26145
818.638	25925
818.778	25894
818.919	25833
819.06	26046
819.2	26172
819.341	26218
819.481	26092
819.622	26396
819.762	26579
819.903	26450
820.043	26442
820.184	26294
820.324	26358
820.465	26366
820.605	26328
820.746	26351
820.886	26138
821.026	26286
821.167	26374
821.307	26275
821.447	26324
821.588	26221
821.728	26092
821.868	25677
822.008	25731
822.149	25795
822.289	25704
822.429	25365
822.569	25301
822.709	25381
822.849	25266
822.99	25194
823.13	25194
823.27	25263
823.41	24996
823.55	24928
823.69	24977
823.83	24973
823.97	25012
824.11	24768
824.25	24814
824.389	24817
824.529	24886
824.669	24878
824.809	24886
824.949	24985
825.089	24878
825.228	24745
825.368	24722
825.508	24726
825.648	24844
825.787	24734
825.927	24810
826.067	24741
826.206	24707
826.346	24844
826.485	24817
826.625	24760
826.765	24760
826.904	24684
827.044	24483
827.183	24547
827.323	24448
827.462	24521
827.601	24490
827.741	24528
827.88	24388
828.02	24403
828.159	24391
828.298	24525
828.437	24361
828.577	24448
828.716	24551
828.855	24213
828.994	24076
829.134	24152
829.273	24224
829.412	24068
829.551	24182
829.69	24228
829.829	24049
829.968	24201
830.107	24330
830.246	24155
830.385	24057
830.524	24125
830.663	23954
830.802	23942
830.941	23767
831.08	23741
831.219	23805
831.357	23813
831.496	24053
831.635	23722
831.774	23680
831.913	23684
832.051	23573
832.19	23619
832.329	23551
832.467	23436
832.606	23341
832.744	23444
832.883	23471
833.022	23372
833.16	23543
833.299	23623
833.437	23326
833.576	23581
833.714	23501
833.852	23570
833.991	23581
834.129	23672
834.267	23551
834.406	23581
834.544	23524
834.682	23566
834.821	23482
834.959	23623
835.097	23410
835.235	23547
835.373	23558
835.511	23440
835.65	23444
835.788	23337
835.926	23250
836.064	23178
836.202	23185
836.34	23341
836.478	23467
836.615	23349
836.753	23360
836.891	23436
837.029	23406
837.167	23341
837.305	23227
837.443	23143
837.58	23220
837.718	23200
837.856	23197
837.993	23132
838.131	23288
838.269	23033
838.406	23010
838.544	22976
838.681	22801
838.819	22801
838.956	22694
839.094	22592
839.231	22744
839.369	22767
839.506	22949
839.643	22980
839.781	22733
839.918	22592
840.055	22672
840.193	22668
840.33	22653
840.467	22687
840.604	22759
840.742	22820
840.879	22466
841.016	22580
841.153	22531
841.29	22653
841.427	22538
841.564	22596
841.701	22596
841.838	22478
841.975	22675
842.112	22641
842.249	22569
842.385	22436
842.522	22656
842.659	22470
842.796	22310
842.933	22508
843.069	22379
843.206	22303
843.343	22417
843.479	22333
843.616	22272
843.752	22169
843.889	22166
844.025	22291
844.162	22082
844.298	22291
844.435	22090
844.571	22097
844.708	22238
844.844	22306
844.98	22246
845.117	22207
845.253	22093
845.389	22010
845.525	22067
845.661	21972
845.798	21865
845.934	21907
846.07	21709
846.206	21998
846.342	21987
846.478	21865
846.614	21690
846.75	21458
846.886	21641
847.022	21698
847.158	21633
847.294	21637
847.429	21606
847.565	21496
847.701	21949
847.837	21374
847.972	21279
848.108	21355
848.244	21526
848.379	21222
848.515	21256
848.65	21283
848.786	21237
848.921	21108
849.057	21264
849.192	21367
849.328	21203
849.463	21256
849.598	21264
849.734	21116
849.869	21188
850.004	20925
850.14	21020
850.275	20967
850.41	20777
850.545	20960
850.68	20937
850.815	21043
850.95	20975
851.085	21180
851.22	21096
851.355	20986
851.49	21062
851.625	20975
851.76	20891
851.895	20880
852.03	20876
852.165	21074
852.299	21058
852.434	20960
852.569	20979
852.703	21024
852.838	21013
852.973	21009
853.107	21100
853.242	20899
853.376	20864
853.511	20773
853.645	20830
853.78	21074
853.914	20899
854.048	20777
854.183	20788
854.317	20857
854.451	21070
854.585	20838
854.72	20811
854.854	20929
854.988	20743
855.122	20781
855.256	20743
855.39	20800
855.524	20902
855.658	20826
855.792	20899
855.926	20872
856.06	20853
856.194	20849
856.327	20682
856.461	20781
856.595	20792
856.729	20746
856.862	20849
856.996	20902
857.13	20929
857.263	20925
857.397	20883
857.53	20823
857.664	20864
857.797	20834
857.931	20929
858.064	20811
858.197	20971
858.331	20800
858.464	20674
858.597	20625
858.731	20674
858.864	20777
858.997	20724
859.13	20781
859.263	20876
859.396	20746
859.529	20864
859.662	20705
859.795	20762
859.928	20986
860.061	20914
860.194	21051
860.327	20823
860.46	20807
860.592	20895
860.725	20975
860.858	21017
860.99	20773
861.123	20769
861.256	20716
861.388	20785
861.521	21310
861.653	20667
861.786	20560
861.918	20629
862.05	20640
862.183	20727
862.315	20720
862.447	20807
862.58	20651
862.712	20587
862.844	20545
862.976	20556
863.108	20621
863.24	21058
863.372	20484
863.504	20454
863.636	20431
863.768	20511
863.9	20469
864.032	20503
864.164	20465
864.296	20427
864.428	20617
864.559	20507
864.691	20495
864.823	20484
864.954	20522
865.086	20351
865.217	20446
865.349	20328
865.48	20492
865.612	20450
865.743	20518
865.875	20419
866.006	20442
866.137	20396
866.269	20461
866.4	20374
866.531	20358
866.662	20385
866.793	20370
866.924	20366
867.055	20336
867.186	20396
867.317	20408
867.448	20351
867.579	20298
867.71	20275
867.841	20191
867.972	20282
868.103	20343
868.233	20419
868.364	20408
868.495	20511
868.625	20587
868.756	20579
868.886	20556
869.017	20655
869.147	20648
869.278	20758
869.408	20712
869.539	20583
869.669	20621
869.799	20686
869.929	20731
870.06	20777
870.19	20937
870.32	20921
870.45	20994
870.58	21001
870.71	21116
870.84	21100
870.97	21001
871.1	21055
871.23	21245
871.36	21207
871.489	21138
871.619	21157
871.749	21332
871.879	21230
872.008	21241
872.138	21203
872.267	21169
872.397	21154
872.526	21017
872.656	21051
872.785	20963
872.915	21195
873.044	21264
873.173	21222
873.303	21252
873.432	21408
873.561	21245
873.69	21157
873.819	21272
873.948	21310
874.077	21249
874.206	21260
874.335	21199
874.464	21336
874.593	21545
874.722	21504
874.851	21492
874.979	21507
875.108	21538
875.237	21530
875.365	21275
875.494	21488
875.623	21568
875.751	21583
875.88	21587
876.008	21576
876.136	21587
876.265	21793
876.393	21979
876.521	21983
876.65	22029
876.778	21903
876.906	21751
877.034	21888
877.162	21808
877.29	21918
877.418	21888
877.546	21880
877.674	21785
877.802	21778
877.93	21633
878.058	21808
878.185	21751
878.313	21751
878.441	21793
878.568	21679
878.696	21766
878.824	21827
878.951	21842
879.079	22067
879.206	22097
879.333	21915
879.461	21774
879.588	21979
879.715	22010
879.842	22124
879.97	21918
880.097	21625
880.224	21675
880.351	21637
880.478	21800
880.605	21671
880.732	21523
880.859	21941
880.986	21690
881.112	21724
881.239	21553
881.366	21370
881.493	21287
881.619	21302
881.746	21233
881.872	21230
881.999	21298
882.125	21157
882.252	21287
882.378	21176
882.505	21291
882.631	21066
882.757	20910
882.883	20990
883.01	20880
883.136	20800
883.262	20921
883.388	20796
883.514	20925
883.64	21039
883.766	20925
883.892	20830
884.018	20754
884.143	20906
884.269	21104
884.395	20530
884.52	20625
884.646	20549
884.772	20659
884.897	20404
885.023	20602
885.148	20606
885.274	20743
885.399	20667
885.524	20640
885.65	20598
885.775	20629
885.9	20499
886.025	20743
886.15	20636
886.275	20537
886.4	20590
886.525	20507
886.65	20575
886.775	20431
886.9	20731
887.025	20857
887.149	20568
887.274	20324
887.399	20381
887.523	20419
887.648	20309
887.773	20332
887.897	20362
888.021	20507
888.146	20336
888.27	20492
888.395	20469
888.519	20408
888.643	20446
888.767	20374
888.891	20237
889.015	20164
889.139	20202
889.263	20134
889.387	20233
889.511	20309
889.635	20221
889.759	20138
889.883	20107
890.006	20088
890.13	20138
890.254	20115
890.377	20119
890.501	19898
890.624	19883
890.748	20001
890.871	19742
890.995	19651
891.118	19670
891.241	19837
891.364	19772
891.488	19887
891.611	19807
891.734	19757
891.857	19822
891.98	19696
892.103	19822
892.226	19769
892.349	19689
892.471	19563
892.594	19601
892.717	19700
892.839	19597
892.962	19753
893.085	19521
893.207	19613
893.33	19571
893.452	19483
893.575	19780
893.697	19666
893.819	19791
893.941	19830
894.064	19818
894.186	19734
894.308	19594
894.43	19761
894.552	19913
894.674	19784
894.796	19559
894.918	19594
895.04	19632
895.161	19624
895.283	19738
895.405	19628
895.526	19742
895.648	19597
895.769	19666
895.891	19723
896.012	19693
896.134	19795
896.255	19712
896.376	19670
896.498	19620
896.619	19662
896.74	19666
896.861	19715
896.982	20050
897.103	20103
897.224	20024
897.345	19898
897.466	19833
897.587	19955
897.708	19970
897.828	19974
897.949	19833
898.07	19723
898.19	19811
898.311	20088
898.431	19791
898.552	19883
898.672	19970
898.792	19940
898.913	19947
899.033	19811
899.153	19670
899.273	19738
899.393	19666
899.513	19620
899.633	19651
899.753	19632
899.873	19597
899.993	19670
900.113	19575
900.232	19639
900.352	19563
900.472	19449
900.591	19403
900.711	19460
900.83	19365
900.95	19556
901.069	19483
901.189	19175
901.308	19141
901.427	18977
901.546	19004
901.665	19080
901.784	19038
901.904	18863
902.023	18639
902.141	18639
902.26	18490
902.379	18559
902.498	18483
902.617	18414
902.735	18563
902.854	18410
902.973	18448
903.091	18201
903.21	18174
903.328	18285
903.446	18178
903.565	18064
903.683	18007
903.801	17965
903.919	17920
904.038	18003
904.156	17821
904.274	17897
904.392	17718
904.51	17748
904.627	17703
904.745	17771
904.863	17840
904.981	17665
905.098	17406
905.216	17463
905.334	17570
905.451	17467
905.569	17486
905.686	17463
905.803	17429
905.921	17277
906.038	17433
906.155	17208
906.272	17162
906.389	17193
906.506	16972
906.623	16972
906.74	16968
906.857	16881
906.974	16927
907.091	17033
907.208	17067
907.324	16976
907.441	16930
907.557	16721
907.674	16645
907.79	16698
907.907	16672
908.023	16694
908.139	16873
908.256	16653
908.372	16611
908.488	16725
908.604	16531
908.72	16436
908.836	16462
908.952	16470
909.068	16580
909.184	16592
909.3	16413
909.415	16470
909.531	16356
909.647	16223
909.762	16173
909.878	16059
909.993	16173
910.108	16135
910.224	16188
910.339	16105
910.454	15884
910.57	15972
910.685	15876
910.8	16177
910.915	16135
911.03	15926
911.145	15823
911.259	15816
911.374	15732
911.489	15762
911.604	15686
911.718	15519
911.833	15534
911.947	15553
912.062	15374
912.176	15511
912.291	15595
912.405	15492
912.519	15679
912.633	15690
912.748	15477
912.862	15450
912.976	15306
913.09	15203
913.204	15336
913.318	15412
913.431	15469
913.545	15348
913.659	15435
913.772	15291
913.886	15264
914	15116
914.113	15207
914.226	15146
914.34	15230
914.453	15032
914.566	15218
914.68	15055
914.793	14986
914.906	14857
915.019	14765
915.132	14682
915.245	14769
915.358	14739
915.47	14788
915.583	14788
915.696	14731
915.809	14967
915.921	14857
916.034	14739
916.146	14678
916.259	14727
916.371	14754
916.483	14655
916.595	14594
916.708	14568
916.82	14533
916.932	14579
917.044	14533
917.156	14533
917.268	14427
917.38	14495
917.491	14438
917.603	14495
917.715	14454
917.826	14533
917.938	14309
918.049	14278
918.161	14347
918.272	14499
918.384	14587
918.495	14374
918.606	14301
918.717	14214
918.828	14286
918.939	14286
919.05	14164
919.161	14153
919.272	14001
919.383	14096
919.494	14176
919.604	14351
919.715	14229
919.826	14077
919.936	14138
920.047	14252
920.157	14237
920.267	14320
920.378	14096
920.488	14126
920.598	14237
920.708	14499
920.818	14278
920.928	14298
921.038	14404
921.148	14355
921.258	14134
921.368	14065
921.477	13951
921.587	13845
921.697	13715
921.806	13955
921.916	13742
922.025	13575
922.134	13582
922.244	13571
922.353	13529
922.462	13407
922.571	13403
922.68	13266
922.789	13171
922.898	13168
923.007	13103
923.116	13137
923.224	13209
923.333	13168
923.442	13133
923.55	13145
923.659	13008
923.767	13141
923.876	13023
923.984	13057
924.092	12939
924.201	12970
924.309	12909
924.417	12901
924.525	12821
924.633	12806
924.741	13761
924.849	12635
924.956	12875
925.064	12631
925.172	12665
925.279	12662
925.387	12722
925.494	12566
925.602	12665
925.709	12604
925.816	12532
925.924	12502
926.031	12627
926.138	12570
926.245	12627
926.352	12532
926.459	12536
926.566	12578
926.673	12608
926.779	12441
926.886	12399
926.993	12201
927.099	12178
927.206	12182
927.312	12140
927.419	12357
927.525	12201
927.631	12235
927.737	11988
927.843	12083
927.95	11893
928.056	11965
928.162	12087
928.267	12076
928.373	12669
928.479	12087
928.585	11901
928.69	12022
928.796	12098
928.901	11897
929.007	11741
929.112	11824
929.218	11779
929.323	11817
929.428	11707
929.533	11882
929.638	11653
929.743	11661
929.848	11748
929.953	11752
930.058	11619
930.163	11440
930.267	11516
930.372	11505
930.477	11433
930.581	11707
930.685	11512
930.79	11402
930.894	11444
930.998	11330
931.103	11520
931.207	11048
931.311	10987
931.415	11018
931.519	10717
931.623	10748
