Data from test_V78500241_2432.txt Node
Date: Fri Mar 25 15:26:47 CST 2022
User: usil
Spectrometer: V785-0024
Trigger mode: 0
Integration Time (sec): 4.000000E-1
Scans to average: 1
Nonlinearity correction enabled: false
Boxcar width: 0
Storing dark spectrum: false
XAxis mode: Wavelengths
Number of Pixels in Spectrum: 1024
>>>>>Begin Spectral Data<<<<<
801.071	27070
801.214	26982
801.356	26914
801.499	26716
801.641	26606
801.783	26629
801.926	26731
802.068	26511
802.211	26492
802.353	26423
802.496	26298
802.638	26271
802.78	26282
802.923	26195
803.065	26119
803.208	26336
803.35	26153
803.492	26324
803.635	26404
803.777	26336
803.919	26431
804.061	26929
804.204	26579
804.346	26305
804.488	26237
804.63	26396
804.773	26286
804.915	26465
805.057	26453
805.199	26419
805.341	26427
805.483	26552
805.626	26400
805.768	26564
805.91	26381
806.052	26552
806.194	26370
806.336	26689
806.478	26419
806.62	26415
806.762	26609
806.904	26659
807.046	26956
807.188	26918
807.33	26849
807.472	27017
807.614	26792
807.756	26891
807.898	26800
808.04	26659
808.182	26819
808.324	26674
808.465	26769
808.607	26853
808.749	27074
808.891	27127
809.033	27161
809.174	27112
809.316	27138
809.458	27017
809.6	26986
809.741	27226
809.883	27089
810.025	27473
810.166	27264
810.308	27329
810.45	27355
810.591	27211
810.733	27241
810.875	27058
811.016	26937
811.158	26994
811.299	26986
811.441	27081
811.582	27112
811.724	27062
811.865	27131
812.007	26994
812.148	27062
812.29	27043
812.431	27116
812.573	27504
812.714	27526
812.855	27496
812.997	27671
813.138	27736
813.279	27576
813.421	27530
813.562	27481
813.703	27203
813.845	27211
813.986	26937
814.127	26975
814.268	26815
814.41	26590
814.551	26701
814.692	26716
814.833	26625
814.974	26674
815.115	26712
815.256	26609
815.397	26617
815.539	26602
815.68	26530
815.821	26533
815.962	26419
816.103	26575
816.244	26377
816.385	26248
816.526	26336
816.666	26183
816.807	25978
816.948	26176
817.089	26145
817.23	25982
817.371	26062
817.512	25970
817.653	25959
817.793	25799
817.934	25906
818.075	26016
818.216	25986
818.356	25890
818.497	25833
818.638	25830
818.778	25742
818.919	25757
819.06	25868
819.2	25887
819.341	25921
819.481	25913
819.622	26149
819.762	26172
819.903	26267
820.043	26088
820.184	26187
820.324	25974
820.465	26043
820.605	25974
820.746	26005
820.886	25906
821.026	26039
821.167	25818
821.307	26031
821.447	25955
821.588	25856
821.728	25712
821.868	25586
822.008	25327
822.149	25274
822.289	25369
822.429	25190
822.569	25213
822.709	25183
822.849	24939
822.99	24924
823.13	24890
823.27	24844
823.41	24753
823.55	24646
823.69	24661
823.83	24829
823.97	24810
824.11	24536
824.25	24551
824.389	24608
824.529	24738
824.669	24574
824.809	24547
824.949	24623
825.089	24627
825.228	24623
825.368	24456
825.508	24365
825.648	24604
825.787	24418
825.927	24536
826.067	24471
826.206	24372
826.346	24429
826.485	24547
826.625	24391
826.765	24566
826.904	24422
827.044	24167
827.183	24152
827.323	24190
827.462	24182
827.601	24270
827.741	24167
827.88	24053
828.02	24068
828.159	24133
828.298	24148
828.437	24167
828.577	24003
828.716	24174
828.855	24026
828.994	23999
829.134	23889
829.273	23874
829.412	23866
829.551	23832
829.69	23741
829.829	23904
829.968	23870
830.107	23885
830.246	23805
830.385	23824
830.524	23790
830.663	23710
830.802	23585
830.941	23334
831.08	23433
831.219	23566
831.357	23570
831.496	23615
831.635	23543
831.774	23543
831.913	23368
832.051	23242
832.19	23296
832.329	23299
832.467	23231
832.606	23037
832.744	23189
832.883	23132
833.022	23181
833.16	23090
833.299	23235
833.437	23208
833.576	23235
833.714	23220
833.852	23284
833.991	23265
834.129	23200
834.267	23239
834.406	23143
834.544	23299
834.682	23189
834.821	23178
834.959	23425
835.097	23193
835.235	23379
835.373	23299
835.511	23121
835.65	23098
835.788	23048
835.926	22904
836.064	22934
836.202	23029
836.34	23064
836.478	23178
836.615	23037
836.753	22976
836.891	23124
837.029	23018
837.167	22953
837.305	22968
837.443	22984
837.58	22877
837.718	23037
837.856	22995
837.993	22881
838.131	23067
838.269	22683
838.406	22854
838.544	22824
838.681	22626
838.819	22421
838.956	22413
839.094	22223
839.231	22588
839.369	22611
839.506	22812
839.643	22615
839.781	22360
839.918	22303
840.055	22432
840.193	22485
840.33	22207
840.467	22363
840.604	22402
840.742	22679
840.879	22226
841.016	22299
841.153	22196
841.29	22295
841.427	22303
841.564	22375
841.701	22185
841.838	22363
841.975	22067
842.112	22215
842.249	22120
842.385	22010
842.522	22287
842.659	22086
842.796	22131
842.933	22074
843.069	21899
843.206	22070
843.343	22196
843.479	21953
843.616	21998
843.752	21953
843.889	21846
844.025	22025
844.162	21785
844.298	21892
844.435	21789
844.571	21705
844.708	22006
844.844	22013
844.98	21979
845.117	21926
845.253	21918
845.389	21694
845.525	21751
845.661	21644
845.798	21576
845.934	21599
846.07	21587
846.206	21606
846.342	21804
846.478	21542
846.614	21332
846.75	21424
846.886	21275
847.022	21344
847.158	21332
847.294	21348
847.429	21447
847.565	21321
847.701	21561
847.837	21108
847.972	21089
848.108	21131
848.244	21157
848.379	20963
848.515	20921
848.65	20941
848.786	20963
848.921	20956
849.057	20979
849.192	21093
849.328	20963
849.463	20880
849.598	20948
849.734	20826
849.869	20800
850.004	20629
850.14	20842
850.275	20651
850.41	20530
850.545	20705
850.68	20712
850.815	20701
850.95	20708
851.085	20971
851.22	20819
851.355	20735
851.49	20655
851.625	20571
851.76	20632
851.895	20659
852.03	20511
852.165	20674
852.299	20663
852.434	20826
852.569	20636
852.703	20640
852.838	20667
852.973	20792
853.107	20815
853.242	20689
853.376	20541
853.511	20450
853.645	20461
853.78	20545
853.914	20564
854.048	20480
854.183	20545
854.317	20594
854.451	20785
854.585	20526
854.72	20514
854.854	20560
854.988	20484
855.122	20499
855.256	20480
855.39	20560
855.524	20609
855.658	20594
855.792	20583
855.926	20598
856.06	20598
856.194	20663
856.327	20507
856.461	20457
856.595	20286
856.729	20556
856.862	20613
856.996	20556
857.13	20583
857.263	20606
857.397	20674
857.53	20461
857.664	20590
857.797	20720
857.931	20594
858.064	20541
858.197	20617
858.331	20533
858.464	20488
858.597	20480
858.731	20518
858.864	20560
858.997	20408
859.13	20526
859.263	20488
859.396	20575
859.529	20514
859.662	20396
859.795	20514
859.928	20522
860.061	20686
860.194	20701
860.327	20564
860.46	20499
860.592	20613
860.725	20568
860.858	20689
860.99	20587
861.123	20427
861.256	20488
861.388	20564
861.521	21180
861.653	20385
861.786	20347
861.918	20362
862.05	20351
862.183	20450
862.315	20442
862.447	20457
862.58	20389
862.712	20233
862.844	20096
862.976	20347
863.108	20278
863.24	20598
863.372	20199
863.504	20229
863.636	20256
863.768	20267
863.9	20355
864.032	20096
864.164	20240
864.296	20275
864.428	20301
864.559	20343
864.691	20370
864.823	20233
864.954	20221
865.086	20138
865.217	20195
865.349	19947
865.48	20001
865.612	20100
865.743	20351
865.875	20176
866.006	20107
866.137	20138
866.269	20115
866.4	20027
866.531	20134
866.662	20024
866.793	20050
866.924	20027
867.055	20092
867.186	20126
867.317	20195
867.448	20035
867.579	20187
867.71	20020
867.841	19898
867.972	19993
868.103	20111
868.233	20012
868.364	20062
868.495	20088
868.625	20423
868.756	20434
868.886	20130
869.017	20332
869.147	20461
869.278	20495
869.408	20290
869.539	20343
869.669	20412
869.799	20450
869.929	20507
870.06	20476
870.19	20613
870.32	20606
870.45	20777
870.58	20609
870.71	20861
870.84	20826
870.97	20731
871.1	20792
871.23	20941
871.36	20785
871.489	20781
871.619	20933
871.749	20834
871.879	20933
872.008	21062
872.138	20872
872.267	20864
872.397	20887
872.526	20785
872.656	20823
872.785	20796
872.915	21020
873.044	21009
873.173	21055
873.303	20982
873.432	21009
873.561	21024
873.69	20944
873.819	20910
873.948	21070
874.077	20925
874.206	20956
874.335	20914
874.464	20952
874.593	21340
874.722	21077
874.851	21131
874.979	21199
875.108	21226
875.237	21199
875.365	21058
875.494	21077
875.623	21241
875.751	21138
875.88	21256
876.008	21325
876.136	21370
876.265	21641
876.393	21739
876.521	21576
876.65	21614
876.778	21633
876.906	21458
877.034	21652
877.162	21439
877.29	21545
877.418	21606
877.546	21557
877.674	21572
877.802	21583
877.93	21511
878.058	21477
878.185	21507
878.313	21511
878.441	21538
878.568	21412
878.696	21462
878.824	21591
878.951	21561
879.079	21724
879.206	21899
879.333	21667
879.461	21572
879.588	21656
879.715	21743
879.842	21804
879.97	21682
880.097	21504
880.224	21275
880.351	21382
880.478	21466
880.605	21325
880.732	21382
880.859	21576
880.986	21526
881.112	21340
881.239	21310
881.366	21123
881.493	21032
881.619	20952
881.746	20925
881.872	20941
881.999	20918
882.125	20883
882.252	21020
882.378	20883
882.505	21131
882.631	20830
882.757	20708
882.883	20735
883.01	20587
883.136	20739
883.262	20522
883.388	20556
883.514	20697
883.64	20788
883.766	20648
883.892	20488
884.018	20549
884.143	20552
884.269	20705
884.395	20461
884.52	20309
884.646	20267
884.772	20172
884.897	20221
885.023	20381
885.148	20320
885.274	20473
885.399	20469
885.524	20244
885.65	20324
885.775	20317
885.9	20259
886.025	20389
886.15	20389
886.275	20240
886.4	20145
886.525	20191
886.65	20149
886.775	20244
886.9	20488
887.025	20537
887.149	20263
887.274	20206
887.399	20218
887.523	19974
887.648	20073
887.773	20126
887.897	20107
888.021	20191
888.146	19944
888.27	20206
888.395	20039
888.519	20176
888.643	20149
888.767	20153
888.891	20020
889.015	19803
889.139	19944
889.263	19902
889.387	19974
889.511	20107
889.635	20103
889.759	19940
889.883	19909
890.006	19928
890.13	20058
890.254	19807
890.377	19845
890.501	19769
890.624	19563
890.748	19795
890.871	19586
890.995	19537
891.118	19392
891.241	19537
891.364	19548
891.488	19586
891.611	19521
891.734	19495
891.857	19537
891.98	19575
892.103	19605
892.226	19518
892.349	19460
892.471	19343
892.594	19449
892.717	19525
892.839	19422
892.962	19521
893.085	19369
893.207	19400
893.33	19251
893.452	19362
893.575	19468
893.697	19304
893.819	19590
893.941	19567
894.064	19529
894.186	19369
894.308	19358
894.43	19392
894.552	19514
894.674	19548
894.796	19259
894.918	19510
895.04	19396
895.161	19453
895.283	19396
895.405	19358
895.526	19304
895.648	19381
895.769	19411
895.891	19529
896.012	19548
896.134	19502
896.255	19350
896.376	19403
896.498	19476
896.619	19415
896.74	19445
896.861	19434
896.982	19696
897.103	19887
897.224	19731
897.345	19597
897.466	19635
897.587	19548
897.708	19837
897.828	19628
897.949	19552
898.07	19411
898.19	19502
898.311	19632
898.431	19647
898.552	19658
898.672	19655
898.792	19704
898.913	19753
899.033	19392
899.153	19464
899.273	19362
899.393	19377
899.513	19460
899.633	19331
899.753	19514
899.873	19301
899.993	19381
900.113	19350
900.232	19350
900.352	19354
900.472	19221
900.591	19213
900.711	19221
900.83	19171
900.95	19301
901.069	19221
901.189	19091
901.308	18810
901.427	18814
901.546	18757
901.665	18753
901.784	18882
901.904	18726
902.023	18563
902.141	18422
902.26	18330
902.379	18380
902.498	18330
902.617	18209
902.735	18475
902.854	18285
902.973	18315
903.091	17988
903.21	17908
903.328	17958
903.446	17897
903.565	17859
903.683	17878
903.801	17665
903.919	17737
904.038	17813
904.156	17573
904.274	17733
904.392	17539
904.51	17478
904.627	17482
904.745	17630
904.863	17649
904.981	17368
905.098	17231
905.216	17277
905.334	17337
905.451	17212
905.569	17216
905.686	17250
905.803	17280
905.921	17052
906.038	17159
906.155	17060
906.272	16942
906.389	16987
906.506	16767
906.623	16790
906.74	16828
906.857	16713
906.974	16717
907.091	16911
907.208	16953
907.324	16812
907.441	16740
907.557	16554
907.674	16546
907.79	16493
907.907	16485
908.023	16504
908.139	16314
908.256	16417
908.372	16394
908.488	16390
908.604	16230
908.72	16192
908.836	16223
908.952	16234
909.068	16242
909.184	16348
909.3	16253
909.415	16181
909.531	16219
909.647	16071
909.762	15930
909.878	15960
909.993	15911
910.108	15926
910.224	15918
910.339	15953
910.454	15808
910.57	15873
910.685	15724
910.8	15983
910.915	15888
911.03	15701
911.145	15614
911.259	15515
911.374	15534
911.489	15496
911.604	15450
911.718	15325
911.833	15351
911.947	15203
912.062	15097
912.176	15310
912.291	15268
912.405	15233
912.519	15428
912.633	15450
912.748	15268
912.862	15283
912.976	15176
913.09	14994
913.204	15051
913.318	15074
913.431	15279
913.545	15207
913.659	15275
913.772	15077
913.886	14952
914	14933
914.113	15066
914.226	15070
914.34	14960
914.453	14883
914.566	14918
914.68	14796
914.793	14887
914.906	14617
915.019	14473
915.132	14473
915.245	14495
915.358	14503
915.47	14511
915.583	14530
915.696	14549
915.809	14697
915.921	14644
916.034	14598
916.146	14415
916.259	14507
916.371	14507
916.483	14549
916.595	14385
916.708	14457
916.82	14415
916.932	14347
917.044	14446
917.156	14336
917.268	14294
917.38	14138
917.491	14153
917.603	14298
917.715	14225
917.826	14275
917.938	14218
918.049	14077
918.161	14130
918.272	14298
918.384	14229
918.495	14172
918.606	13959
918.717	14005
918.828	14069
918.939	14024
919.05	13856
919.161	14005
919.272	13826
919.383	13868
919.494	14024
919.604	14183
919.715	14039
919.826	13849
919.936	13921
920.047	14073
920.157	13997
920.267	14058
920.378	14043
920.488	13936
920.598	14206
920.708	14142
920.818	14221
920.928	14065
921.038	14183
921.148	14195
921.258	13993
921.368	13833
921.477	13837
921.587	13719
921.697	13567
921.806	13700
921.916	13605
922.025	13464
922.134	13415
922.244	13301
922.353	13388
922.462	13240
922.571	13110
922.68	13065
922.789	13031
922.898	12954
923.007	12958
923.116	13133
923.224	12909
923.333	13046
923.442	12901
923.55	12844
923.659	12909
923.767	12989
923.876	12760
923.984	12966
924.092	12791
924.201	12798
924.309	12715
924.417	12707
924.525	12734
924.633	12764
924.741	13693
924.849	12494
924.956	12688
925.064	12494
925.172	12433
925.279	12391
925.387	12452
925.494	12429
925.602	12631
925.709	12490
925.816	12471
925.924	12422
926.031	12536
926.138	12475
926.245	12528
926.352	12327
926.459	12464
926.566	12536
926.673	12403
926.779	12228
926.886	12213
926.993	12079
927.099	12022
927.206	11958
927.312	12034
927.419	12121
927.525	12079
927.631	12072
927.737	11950
927.843	11961
927.95	11805
928.056	11870
928.162	11961
928.267	11950
928.373	12544
928.479	11954
928.585	11676
928.69	11767
928.796	11863
928.901	11809
929.007	11573
929.112	11786
929.218	11737
929.323	11661
929.428	11539
929.533	11710
929.638	11619
929.743	11573
929.848	11619
929.953	11608
930.058	11501
930.163	11269
930.267	11334
930.372	11478
930.477	11273
930.581	11512
930.685	11292
930.79	11181
930.894	11170
930.998	11159
931.103	11307
931.207	10991
931.311	10877
931.415	10793
931.519	10622
931.623	10577
