Data from test_V78500241_3177.txt Node
Date: Fri Mar 25 15:31:58 CST 2022
User: usil
Spectrometer: V785-0024
Trigger mode: 0
Integration Time (sec): 4.000000E-1
Scans to average: 1
Nonlinearity correction enabled: false
Boxcar width: 0
Storing dark spectrum: false
XAxis mode: Wavelengths
Number of Pixels in Spectrum: 1024
>>>>>Begin Spectral Data<<<<<
801.071	27093
801.214	27150
801.356	26872
801.499	26864
801.641	26720
801.783	26716
801.926	26762
802.068	26739
802.211	26686
802.353	26499
802.496	26461
802.638	26374
802.78	26332
802.923	26381
803.065	26153
803.208	26339
803.35	26393
803.492	26438
803.635	26374
803.777	26199
803.919	26503
804.061	26792
804.204	26613
804.346	26351
804.488	26438
804.63	26545
804.773	26434
804.915	26305
805.057	26686
805.199	26453
805.341	26522
805.483	26560
805.626	26488
805.768	26476
805.91	26674
806.052	26579
806.194	26575
806.336	26815
806.478	26526
806.62	26594
806.762	26705
806.904	26944
807.046	26994
807.188	26975
807.33	27013
807.472	26979
807.614	26872
807.756	26956
807.898	26792
808.04	26724
808.182	26765
808.324	26868
808.465	26872
808.607	27161
808.749	27256
808.891	27302
809.033	27260
809.174	27233
809.316	27104
809.458	27112
809.6	27043
809.741	27256
809.883	27275
810.025	27336
810.166	27454
810.308	27587
810.45	27485
810.591	27397
810.733	27313
810.875	27119
811.016	27104
811.158	27085
811.299	27329
811.441	27382
811.582	27370
811.724	27195
811.865	26971
812.007	27161
812.148	27161
812.29	27077
812.431	27340
812.573	27496
812.714	27587
812.855	27637
812.997	27823
813.138	27873
813.279	27736
813.421	27759
813.562	27610
813.703	27580
813.845	27382
813.986	27066
814.127	27066
814.268	26804
814.41	26849
814.551	26830
814.692	26921
814.833	26838
814.974	26826
815.115	26739
815.256	26682
815.397	26678
815.539	26701
815.68	26568
815.821	26503
815.962	26632
816.103	26663
816.244	26541
816.385	26408
816.526	26423
816.666	26180
816.807	26039
816.948	26111
817.089	26214
817.23	26115
817.371	26092
817.512	26058
817.653	26195
817.793	25993
817.934	26024
818.075	26012
818.216	26153
818.356	26111
818.497	25921
818.638	25753
818.778	25769
818.919	25830
819.06	25894
819.2	25986
819.341	26088
819.481	26008
819.622	26107
819.762	26343
819.903	26282
820.043	26256
820.184	26199
820.324	26103
820.465	26248
820.605	26286
820.746	26107
820.886	25951
821.026	26084
821.167	26115
821.307	26050
821.447	26107
821.588	25909
821.728	25845
821.868	25674
822.008	25616
822.149	25639
822.289	25537
822.429	25213
822.569	25335
822.709	25152
822.849	25137
822.99	25080
823.13	25031
823.27	24989
823.41	24901
823.55	24760
823.69	24867
823.83	24829
823.97	24848
824.11	24620
824.25	24692
824.389	24536
824.529	24658
824.669	24665
824.809	24753
824.949	24703
825.089	24947
825.228	24783
825.368	24513
825.508	24330
825.648	24483
825.787	24502
825.927	24665
826.067	24437
826.206	24433
826.346	24464
826.485	24563
826.625	24563
826.765	24703
826.904	24700
827.044	24292
827.183	24334
827.323	24247
827.462	24315
827.601	24194
827.741	24235
827.88	24292
828.02	24136
828.159	24247
828.298	24304
828.437	24418
828.577	24102
828.716	24380
828.855	24026
828.994	24053
829.134	24060
829.273	24034
829.412	23950
829.551	23923
829.69	23980
829.829	23920
829.968	23931
830.107	24030
830.246	23904
830.385	23836
830.524	23859
830.663	23878
830.802	23733
830.941	23539
831.08	23459
831.219	23551
831.357	23623
831.496	23828
831.635	23615
831.774	23539
831.913	23493
832.051	23501
832.19	23421
832.329	23383
832.467	23414
832.606	23288
832.744	23170
832.883	23121
833.022	23200
833.16	23265
833.299	23140
833.437	23318
833.576	23307
833.714	23474
833.852	23417
833.991	23387
834.129	23471
834.267	23353
834.406	23322
834.544	23406
834.682	23220
834.821	23307
834.959	23406
835.097	23349
835.235	23356
835.373	23356
835.511	23223
835.65	23200
835.788	23162
835.926	23014
836.064	22949
836.202	22995
836.34	23284
836.478	23124
836.615	23136
836.753	23200
836.891	23315
837.029	23124
837.167	23143
837.305	22995
837.443	22949
837.58	23083
837.718	23025
837.856	23166
837.993	22980
838.131	22934
838.269	22968
838.406	22961
838.544	22919
838.681	22694
838.819	22641
838.956	22478
839.094	22538
839.231	22516
839.369	22694
839.506	22862
839.643	22710
839.781	22466
839.918	22546
840.055	22466
840.193	22443
840.33	22466
840.467	22523
840.604	22554
840.742	22786
840.879	22291
841.016	22386
841.153	22333
841.29	22554
841.427	22413
841.564	22470
841.701	22280
841.838	22470
841.975	22291
842.112	22333
842.249	22246
842.385	22280
842.522	22497
842.659	22421
842.796	22192
842.933	22291
843.069	22112
843.206	22166
843.343	22265
843.479	22253
843.616	22265
843.752	21895
843.889	21941
844.025	21964
844.162	22025
844.298	22010
844.435	21899
844.571	21998
844.708	21972
844.844	22166
844.98	22120
845.117	22013
845.253	21884
845.389	21934
845.525	21892
845.661	21762
845.798	21724
845.934	21743
846.07	21812
846.206	21739
846.342	21945
846.478	21694
846.614	21519
846.75	21336
846.886	21412
847.022	21466
847.158	21526
847.294	21454
847.429	21561
847.565	21435
847.701	21781
847.837	21180
847.972	21135
848.108	21180
848.244	21218
848.379	21222
848.515	21001
848.65	21051
848.786	20925
848.921	21108
849.057	21051
849.192	21157
849.328	21142
849.463	20979
849.598	20956
849.734	20864
849.869	20937
850.004	20773
850.14	20823
850.275	20773
850.41	20697
850.545	20788
850.68	20746
850.815	20811
850.95	20891
851.085	20937
851.22	20868
851.355	20758
851.49	20781
851.625	20819
851.76	20750
851.895	20777
852.03	20678
852.165	20739
852.299	20853
852.434	20857
852.569	20800
852.703	20815
852.838	20750
852.973	21005
853.107	20921
853.242	20712
853.376	20648
853.511	20636
853.645	20678
853.78	20731
853.914	20632
854.048	20583
854.183	20530
854.317	20769
854.451	20758
854.585	20590
854.72	20598
854.854	20541
854.988	20594
855.122	20606
855.256	20617
855.39	20613
855.524	20655
855.658	20629
855.792	20693
855.926	20667
856.06	20644
856.194	20648
856.327	20602
856.461	20393
856.595	20594
856.729	20644
856.862	20796
856.996	20640
857.13	20769
857.263	20716
857.397	20708
857.53	20560
857.664	20640
857.797	20682
857.931	20651
858.064	20659
858.197	20648
858.331	20568
858.464	20461
858.597	20545
858.731	20697
858.864	20644
858.997	20644
859.13	20602
859.263	20625
859.396	20693
859.529	20587
859.662	20609
859.795	20537
859.928	20609
860.061	20708
860.194	20887
860.327	20644
860.46	20575
860.592	20727
860.725	20735
860.858	20834
860.99	20655
861.123	20571
861.256	20507
861.388	20655
861.521	21252
861.653	20476
861.786	20473
861.918	20393
862.05	20545
862.183	20530
862.315	20446
862.447	20518
862.58	20492
862.712	20393
862.844	20355
862.976	20366
863.108	20412
863.24	20708
863.372	20339
863.504	20370
863.636	20332
863.768	20328
863.9	20317
864.032	20362
864.164	20328
864.296	20412
864.428	20473
864.559	20377
864.691	20408
864.823	20366
864.954	20290
865.086	20305
865.217	20229
865.349	20180
865.48	20237
865.612	20252
865.743	20290
865.875	20271
866.006	20294
866.137	20290
866.269	20305
866.4	20282
866.531	20298
866.662	20115
866.793	20290
866.924	20229
867.055	20370
867.186	20183
867.317	20157
867.448	20050
867.579	20062
867.71	20183
867.841	20176
867.972	20275
868.103	20031
868.233	20309
868.364	20267
868.495	20275
868.625	20461
868.756	20480
868.886	20313
869.017	20370
869.147	20492
869.278	20507
869.408	20370
869.539	20404
869.669	20389
869.799	20454
869.929	20545
870.06	20552
870.19	20625
870.32	20724
870.45	20800
870.58	20762
870.71	20861
870.84	21020
870.97	20895
871.1	20872
871.23	21028
871.36	21085
871.489	20899
871.619	20967
871.749	21043
871.879	21211
872.008	21104
872.138	20960
872.267	21036
872.397	20921
872.526	20804
872.656	20899
872.785	20891
872.915	21043
873.044	21199
873.173	21131
873.303	21142
873.432	21127
873.561	21203
873.69	21074
873.819	21055
873.948	21203
874.077	21116
874.206	21043
874.335	21032
874.464	21249
874.593	21344
874.722	21252
874.851	21344
874.979	21272
875.108	21386
875.237	21302
875.365	21195
875.494	21367
875.623	21428
875.751	21154
875.88	21348
876.008	21462
876.136	21473
876.265	21671
876.393	21941
876.521	21705
876.65	21854
876.778	21606
876.906	21660
877.034	21534
877.162	21679
877.29	21557
877.418	21610
877.546	21686
877.674	21743
877.802	21587
877.93	21705
878.058	21629
878.185	21538
878.313	21595
878.441	21648
878.568	21519
878.696	21553
878.824	21629
878.951	21694
879.079	21854
879.206	21949
879.333	21835
879.461	21656
879.588	21610
879.715	21747
879.842	21865
879.97	21755
880.097	21481
880.224	21469
880.351	21481
880.478	21568
880.605	21389
880.732	21557
880.859	21530
880.986	21542
881.112	21458
881.239	21294
881.366	21214
881.493	21150
881.619	21116
881.746	21108
881.872	21123
881.999	21009
882.125	21051
882.252	21104
882.378	21017
882.505	21176
882.631	20842
882.757	20838
882.883	20925
883.01	20857
883.136	20724
883.262	20564
883.388	20590
883.514	20701
883.64	20857
883.766	20701
883.892	20609
884.018	20625
884.143	20849
884.269	20727
884.395	20651
884.52	20412
884.646	20469
884.772	20434
884.897	20419
885.023	20393
885.148	20499
885.274	20663
885.399	20609
885.524	20507
885.65	20476
885.775	20415
885.9	20400
886.025	20438
886.15	20473
886.275	20400
886.4	20267
886.525	20355
886.65	20313
886.775	20332
886.9	20556
887.025	20552
887.149	20438
887.274	20225
887.399	20153
887.523	20180
887.648	20050
887.773	20168
887.897	20206
888.021	20187
888.146	20115
888.27	20252
888.395	20267
888.519	20317
888.643	20290
888.767	20195
888.891	20115
889.015	20107
889.139	19978
889.263	20092
889.387	20035
889.511	20233
889.635	20115
889.759	19909
889.883	19898
890.006	20050
890.13	20142
890.254	19868
890.377	20024
890.501	19670
890.624	19670
890.748	19731
890.871	19658
890.995	19499
891.118	19571
891.241	19548
891.364	19624
891.488	19639
891.611	19632
891.734	19518
891.857	19624
891.98	19556
892.103	19559
892.226	19548
892.349	19537
892.471	19445
892.594	19480
892.717	19483
892.839	19563
892.962	19533
893.085	19518
893.207	19403
893.33	19457
893.452	19400
893.575	19559
893.697	19422
893.819	19670
893.941	19628
894.064	19639
894.186	19537
894.308	19365
894.43	19738
894.552	19643
894.674	19662
894.796	19419
894.918	19533
895.04	19544
895.161	19632
895.283	19571
895.405	19521
895.526	19472
895.648	19521
895.769	19563
895.891	19628
896.012	19556
896.134	19651
896.255	19487
896.376	19544
896.498	19643
896.619	19628
896.74	19518
896.861	19597
896.982	19784
897.103	19993
897.224	19696
897.345	19769
897.466	19643
897.587	19833
897.708	19791
897.828	19849
897.949	19799
898.07	19597
898.19	19624
898.311	19738
898.431	19666
898.552	19689
898.672	19788
898.792	19837
898.913	19868
899.033	19613
899.153	19597
899.273	19540
899.393	19563
899.513	19567
899.633	19529
899.753	19575
899.873	19438
899.993	19616
900.113	19438
900.232	19567
900.352	19377
900.472	19419
900.591	19327
900.711	19354
900.83	19247
900.95	19525
901.069	19464
901.189	19190
901.308	19015
901.427	18890
901.546	18894
901.665	18924
901.784	18905
901.904	18817
902.023	18677
902.141	18506
902.26	18483
902.379	18612
902.498	18376
902.617	18319
902.735	18414
902.854	18464
902.973	18228
903.091	18091
903.21	18114
903.328	18197
903.446	18015
903.565	17904
903.683	17920
903.801	17798
903.919	17893
904.038	17798
904.156	17710
904.274	17657
904.392	17661
904.51	17615
904.627	17741
904.745	17703
904.863	17707
904.981	17539
905.098	17402
905.216	17364
905.334	17474
905.451	17383
905.569	17307
905.686	17334
905.803	17326
905.921	17132
906.038	17258
906.155	17261
906.272	17128
906.389	17025
906.506	16847
906.623	16900
906.74	16915
906.857	16767
906.974	16786
907.091	16892
907.208	16984
907.324	16896
907.441	16782
907.557	16733
907.674	16618
907.79	16470
907.907	16615
908.023	16641
908.139	16649
908.256	16577
908.372	16527
908.488	16596
908.604	16356
908.72	16280
908.836	16295
908.952	16382
909.068	16379
909.184	16474
909.3	16295
909.415	16436
909.531	16451
909.647	16044
909.762	16082
909.878	16192
909.993	16078
910.108	16086
910.224	16078
910.339	16021
910.454	15956
910.57	15899
910.685	15759
910.8	16040
910.915	16010
911.03	15895
911.145	15686
911.259	15568
911.374	15755
911.489	15656
911.604	15584
911.718	15481
911.833	15500
911.947	15294
912.062	15264
912.176	15321
912.291	15405
912.405	15447
912.519	15584
912.633	15557
912.748	15424
912.862	15344
912.976	15169
913.09	15028
913.204	15123
913.318	15142
913.431	15302
913.545	15294
913.659	15329
913.772	15252
913.886	15017
914	14963
914.113	15127
914.226	15142
914.34	15081
914.453	14971
914.566	15097
914.68	14929
914.793	14857
914.906	14708
915.019	14724
915.132	14651
915.245	14731
915.358	14746
915.47	14659
915.583	14712
915.696	14708
915.809	14697
915.921	14826
916.034	14648
916.146	14564
916.259	14617
916.371	14632
916.483	14552
916.595	14545
916.708	14560
916.82	14511
916.932	14503
917.044	14492
917.156	14412
917.268	14377
917.38	14271
917.491	14301
917.603	14332
917.715	14400
917.826	14434
917.938	14214
918.049	14187
918.161	14309
918.272	14457
918.384	14393
918.495	14339
918.606	14050
918.717	13944
918.828	14107
918.939	14164
919.05	13986
919.161	14077
919.272	13917
919.383	14039
919.494	14107
919.604	14221
919.715	14077
919.826	14020
919.936	14126
920.047	14001
920.157	14103
920.267	14290
920.378	14065
920.488	14054
920.598	14202
920.708	14366
920.818	14180
920.928	14183
921.038	14389
921.148	14427
921.258	14039
921.368	14065
921.477	13769
921.587	13761
921.697	13769
921.806	13784
921.916	13696
922.025	13540
922.134	13411
922.244	13403
922.353	13575
922.462	13346
922.571	13335
922.68	13183
922.789	13057
922.898	13118
923.007	13053
923.116	13126
923.224	13213
923.333	13076
923.442	12947
923.55	12962
923.659	12939
923.767	13031
923.876	12806
923.984	12989
924.092	12863
924.201	12890
924.309	12886
924.417	12829
924.525	12814
924.633	12837
924.741	13696
924.849	12585
924.956	12730
925.064	12608
925.172	12448
925.279	12597
925.387	12563
925.494	12616
925.602	12688
925.709	12574
925.816	12494
925.924	12536
926.031	12593
926.138	12490
926.245	12559
926.352	12414
926.459	12570
926.566	12555
926.673	12426
926.779	12323
926.886	12251
926.993	12197
927.099	12197
927.206	12091
927.312	12072
927.419	12136
927.525	12175
927.631	12201
927.737	12034
927.843	12007
927.95	11863
928.056	11954
928.162	11973
928.267	12068
928.373	12669
928.479	12034
928.585	11824
928.69	11950
928.796	11939
928.901	11863
929.007	11714
929.112	11748
929.218	11790
929.323	11733
929.428	11623
929.533	11809
929.638	11680
929.743	11623
929.848	11752
929.953	11627
930.058	11520
930.163	11444
930.267	11444
930.372	11452
930.477	11277
930.581	11653
930.685	11444
930.79	11280
930.894	11353
930.998	11322
931.103	11311
931.207	11060
931.311	10949
931.415	10889
931.519	10736
931.623	10675
