Data from test_V78500241_2420.txt Node
Date: Fri Mar 25 15:26:42 CST 2022
User: usil
Spectrometer: V785-0024
Trigger mode: 0
Integration Time (sec): 4.000000E-1
Scans to average: 1
Nonlinearity correction enabled: false
Boxcar width: 0
Storing dark spectrum: false
XAxis mode: Wavelengths
Number of Pixels in Spectrum: 1024
>>>>>Begin Spectral Data<<<<<
801.071	27184
801.214	27180
801.356	26979
801.499	26861
801.641	26689
801.783	26781
801.926	26830
802.068	26918
802.211	26621
802.353	26781
802.496	26438
802.638	26347
802.78	26271
802.923	26427
803.065	26393
803.208	26343
803.35	26309
803.492	26518
803.635	26545
803.777	26530
803.919	26602
804.061	26864
804.204	26632
804.346	26503
804.488	26560
804.63	26374
804.773	26518
804.915	26419
805.057	26667
805.199	26385
805.341	26450
805.483	26777
805.626	26659
805.768	26587
805.91	26613
806.052	26640
806.194	26590
806.336	26663
806.478	26697
806.62	26727
806.762	26807
806.904	26918
807.046	27165
807.188	27009
807.33	27085
807.472	27070
807.614	27024
807.756	27032
807.898	26849
808.04	26925
808.182	26925
808.324	27028
808.465	27058
808.607	27146
808.749	27321
808.891	27378
809.033	27291
809.174	27393
809.316	27165
809.458	27313
809.6	27138
809.741	27313
809.883	27180
810.025	27534
810.166	27629
810.308	27580
810.45	27386
810.591	27488
810.733	27336
810.875	27146
811.016	27017
811.158	27062
811.299	27367
811.441	27348
811.582	27397
811.724	27321
811.865	27119
812.007	27237
812.148	27291
812.29	27116
812.431	27272
812.573	27572
812.714	27534
812.855	27686
812.997	27934
813.138	27960
813.279	27831
813.421	27762
813.562	27637
813.703	27568
813.845	27458
813.986	27192
814.127	26986
814.268	26925
814.41	27017
814.551	26960
814.692	27036
814.833	26811
814.974	26899
815.115	26971
815.256	26876
815.397	26800
815.539	26727
815.68	26743
815.821	26507
815.962	26670
816.103	26651
816.244	26640
816.385	26461
816.526	26545
816.666	26305
816.807	26111
816.948	26210
817.089	26313
817.23	26206
817.371	26157
817.512	26092
817.653	26214
817.793	26122
817.934	26218
818.075	26164
818.216	26107
818.356	25997
818.497	25997
818.638	25860
818.778	25925
818.919	25883
819.06	26020
819.2	25959
819.341	26065
819.481	26142
819.622	26256
819.762	26465
819.903	26343
820.043	26301
820.184	26339
820.324	26324
820.465	26233
820.605	26244
820.746	26343
820.886	26199
821.026	26328
821.167	26115
821.307	26313
821.447	26081
821.588	26138
821.728	25970
821.868	25909
822.008	25628
822.149	25639
822.289	25594
822.429	25381
822.569	25396
822.709	25255
822.849	25183
822.99	25183
823.13	25099
823.27	25152
823.41	24894
823.55	24916
823.69	24935
823.83	24981
823.97	24928
824.11	24764
824.25	24734
824.389	24730
824.529	24882
824.669	24673
824.809	24962
824.949	24757
825.089	24757
825.228	24806
825.368	24730
825.508	24642
825.648	24566
825.787	24692
825.927	24772
826.067	24585
826.206	24601
826.346	24719
826.485	24726
826.625	24536
826.765	24692
826.904	24669
827.044	24369
827.183	24486
827.323	24315
827.462	24448
827.601	24300
827.741	24369
827.88	24338
828.02	24232
828.159	24300
828.298	24247
828.437	24258
828.577	24308
828.716	24426
828.855	24209
828.994	24068
829.134	23961
829.273	24057
829.412	24072
829.551	24110
829.69	24064
829.829	24079
829.968	24148
830.107	24098
830.246	24038
830.385	23931
830.524	23916
830.663	23870
830.802	23676
830.941	23668
831.08	23722
831.219	23661
831.357	23828
831.496	23874
831.635	23680
831.774	23531
831.913	23570
832.051	23509
832.19	23486
832.329	23429
832.467	23398
832.606	23265
832.744	23353
832.883	23330
833.022	23246
833.16	23299
833.299	23337
833.437	23414
833.576	23547
833.714	23478
833.852	23440
833.991	23433
834.129	23490
834.267	23516
834.406	23528
834.544	23402
834.682	23459
834.821	23376
834.959	23524
835.097	23326
835.235	23452
835.373	23368
835.511	23372
835.65	23318
835.788	23395
835.926	23170
836.064	22984
836.202	23128
836.34	23292
836.478	23341
836.615	23239
836.753	23166
836.891	23330
837.029	23345
837.167	23151
837.305	23151
837.443	23239
837.58	22930
837.718	23193
837.856	23090
837.993	23094
838.131	23083
838.269	23048
838.406	23010
838.544	22972
838.681	22881
838.819	22717
838.956	22535
839.094	22634
839.231	22596
839.369	22759
839.506	22987
839.643	22835
839.781	22580
839.918	22569
840.055	22519
840.193	22531
840.33	22569
840.467	22493
840.604	22542
840.742	22672
840.879	22329
841.016	22512
841.153	22314
841.29	22569
841.427	22504
841.564	22569
841.701	22634
841.838	22523
841.975	22356
842.112	22432
842.249	22348
842.385	22253
842.522	22508
842.659	22303
842.796	22352
842.933	22337
843.069	22299
843.206	22249
843.343	22287
843.479	22291
843.616	22272
843.752	22013
843.889	22093
844.025	22017
844.162	22082
844.298	22105
844.435	22162
844.571	21979
844.708	22036
844.844	22234
844.98	22268
845.117	22166
845.253	22017
845.389	21797
845.525	21949
845.661	21964
845.798	21865
845.934	21793
846.07	21675
846.206	21911
846.342	21838
846.478	21804
846.614	21553
846.75	21435
846.886	21583
847.022	21694
847.158	21595
847.294	21568
847.429	21553
847.565	21473
847.701	21720
847.837	21302
847.972	21279
848.108	21424
848.244	21249
848.379	21184
848.515	21203
848.65	21093
848.786	21180
848.921	21188
849.057	21260
849.192	21199
849.328	21070
849.463	21036
849.598	21055
849.734	20887
849.869	20895
850.004	20887
850.14	20887
850.275	20838
850.41	20731
850.545	20735
850.68	20838
850.815	20937
850.95	20887
851.085	21032
851.22	20929
851.355	20872
851.49	20823
851.625	20769
851.76	20952
851.895	20701
852.03	20754
852.165	20819
852.299	20921
852.434	20967
852.569	20823
852.703	20880
852.838	20971
852.973	21001
853.107	20902
853.242	20849
853.376	20716
853.511	20514
853.645	20667
853.78	20758
853.914	20693
854.048	20712
854.183	20609
854.317	20701
854.451	20933
854.585	20606
854.72	20727
854.854	20716
854.988	20564
855.122	20644
855.256	20579
855.39	20549
855.524	20762
855.658	20826
855.792	20670
855.926	20655
856.06	20716
856.194	20758
856.327	20648
856.461	20636
856.595	20632
856.729	20663
856.862	20819
856.996	20785
857.13	20815
857.263	20785
857.397	20739
857.53	20701
857.664	20621
857.797	20754
857.931	20792
858.064	20746
858.197	20769
858.331	20693
858.464	20571
858.597	20522
858.731	20667
858.864	20697
858.997	20571
859.13	20545
859.263	20788
859.396	20769
859.529	20648
859.662	20670
859.795	20602
859.928	20743
860.061	20834
860.194	20849
860.327	20724
860.46	20781
860.592	20921
860.725	20777
860.858	20788
860.99	20716
861.123	20655
861.256	20625
861.388	20785
861.521	21154
861.653	20663
861.786	20617
861.918	20518
862.05	20552
862.183	20636
862.315	20670
862.447	20609
862.58	20606
862.712	20408
862.844	20495
862.976	20507
863.108	20480
863.24	20746
863.372	20362
863.504	20454
863.636	20389
863.768	20419
863.9	20461
864.032	20278
864.164	20434
864.296	20446
864.428	20450
864.559	20419
864.691	20423
864.823	20332
864.954	20240
865.086	20503
865.217	20339
865.349	20183
865.48	20347
865.612	20298
865.743	20434
865.875	20366
866.006	20301
866.137	20438
866.269	20214
866.4	20385
866.531	20240
866.662	20180
866.793	20275
866.924	20374
867.055	20256
867.186	20237
867.317	20290
867.448	20073
867.579	20176
867.71	20195
867.841	20298
867.972	20225
868.103	20301
868.233	20290
868.364	20366
868.495	20385
868.625	20423
868.756	20526
868.886	20511
869.017	20446
869.147	20705
869.278	20655
869.408	20655
869.539	20503
869.669	20571
869.799	20537
869.929	20678
870.06	20522
870.19	20857
870.32	20887
870.45	20853
870.58	20925
870.71	21043
870.84	20994
870.97	20880
871.1	20933
871.23	21108
871.36	21131
871.489	20967
871.619	21066
871.749	21093
871.879	21089
872.008	21294
872.138	21169
872.267	21180
872.397	20998
872.526	20944
872.656	21081
872.785	20849
872.915	21077
873.044	21146
873.173	21104
873.303	21195
873.432	21272
873.561	21211
873.69	21066
873.819	21165
873.948	21336
874.077	21112
874.206	21123
874.335	21176
874.464	21279
874.593	21321
874.722	21214
874.851	21313
874.979	21408
875.108	21420
875.237	21355
875.365	21374
875.494	21386
875.623	21519
875.751	21313
875.88	21473
876.008	21618
876.136	21618
876.265	21663
876.393	21827
876.521	21759
876.65	21949
876.778	21701
876.906	21762
877.034	21724
877.162	21800
877.29	21717
877.418	21667
877.546	21705
877.674	21739
877.802	21641
877.93	21701
878.058	21701
878.185	21610
878.313	21682
878.441	21698
878.568	21549
878.696	21648
878.824	21682
878.951	21774
879.079	21895
879.206	21979
879.333	21911
879.461	21808
879.588	21743
879.715	21854
879.842	21964
879.97	21774
880.097	21663
880.224	21542
880.351	21534
880.478	21606
880.605	21587
880.732	21572
880.859	21895
880.986	21587
881.112	21530
881.239	21344
881.366	21416
881.493	21199
881.619	21058
881.746	21214
881.872	21058
881.999	20986
882.125	21104
882.252	21077
882.378	21207
882.505	21264
882.631	20979
882.757	20788
882.883	20895
883.01	20773
883.136	20781
883.262	20674
883.388	20712
883.514	20842
883.64	20792
883.766	20788
883.892	20598
884.018	20701
884.143	20838
884.269	20811
884.395	20545
884.52	20537
884.646	20575
884.772	20461
884.897	20457
885.023	20457
885.148	20594
885.274	20648
885.399	20659
885.524	20503
885.65	20568
885.775	20579
885.9	20552
886.025	20587
886.15	20526
886.275	20370
886.4	20381
886.525	20446
886.65	20465
886.775	20343
886.9	20469
887.025	20670
887.149	20446
887.274	20389
887.399	20237
887.523	20332
887.648	20180
887.773	20191
887.897	20290
888.021	20317
888.146	20130
888.27	20290
888.395	20320
888.519	20286
888.643	20267
888.767	20355
888.891	20122
889.015	19970
889.139	20138
889.263	19921
889.387	20130
889.511	20214
889.635	20100
889.759	20084
889.883	20035
890.006	20164
890.13	20180
890.254	19932
890.377	20005
890.501	19807
890.624	19811
890.748	19921
890.871	19841
890.995	19590
891.118	19571
891.241	19696
891.364	19597
891.488	19723
891.611	19635
891.734	19609
891.857	19742
891.98	19734
892.103	19712
892.226	19704
892.349	19563
892.471	19396
892.594	19476
892.717	19499
892.839	19616
892.962	19590
893.085	19677
893.207	19563
893.33	19575
893.452	19472
893.575	19651
893.697	19396
893.819	19677
893.941	19651
894.064	19548
894.186	19476
894.308	19510
894.43	19704
894.552	19628
894.674	19655
894.796	19571
894.918	19525
895.04	19510
895.161	19525
895.283	19582
895.405	19453
895.526	19639
895.648	19537
895.769	19594
895.891	19529
896.012	19655
896.134	19548
896.255	19578
896.376	19476
896.498	19514
896.619	19655
896.74	19499
896.861	19666
896.982	19879
897.103	19982
897.224	19928
897.345	19765
897.466	19727
897.587	19734
897.708	19909
897.828	19833
897.949	19738
898.07	19613
898.19	19731
898.311	19864
898.431	19795
898.552	19757
898.672	19776
898.792	19928
898.913	19845
899.033	19696
899.153	19609
899.273	19556
899.393	19537
899.513	19430
899.633	19537
899.753	19635
899.873	19468
899.993	19552
900.113	19514
900.232	19533
900.352	19487
900.472	19358
900.591	19240
900.711	19327
900.83	19308
900.95	19282
901.069	19449
901.189	19240
901.308	19050
901.427	18932
901.546	18905
901.665	18871
901.784	19023
901.904	18878
902.023	18745
902.141	18597
902.26	18506
902.379	18563
902.498	18445
902.617	18490
902.735	18456
902.854	18365
902.973	18346
903.091	18136
903.21	18155
903.328	18152
903.446	18057
903.565	17992
903.683	17977
903.801	17832
903.919	17745
904.038	17923
904.156	17699
904.274	17760
904.392	17798
904.51	17684
904.627	17684
904.745	17661
904.863	17783
904.981	17463
905.098	17307
905.216	17482
905.334	17436
905.451	17376
905.569	17265
905.686	17379
905.803	17303
905.921	17048
906.038	17261
906.155	17212
906.272	17083
906.389	17159
906.506	16873
906.623	16934
906.74	16968
906.857	16854
906.974	16809
907.091	16965
907.208	17018
907.324	16927
907.441	16862
907.557	16744
907.674	16725
907.79	16580
907.907	16634
908.023	16573
908.139	16698
908.256	16550
908.372	16615
908.488	16512
908.604	16318
908.72	16398
908.836	16318
908.952	16329
909.068	16379
909.184	16531
909.3	16390
909.415	16306
909.531	16417
909.647	16154
909.762	16029
909.878	16029
909.993	16082
910.108	16109
910.224	16002
910.339	16063
910.454	15930
910.57	15930
910.685	15778
910.8	16002
910.915	16051
911.03	15888
911.145	15800
911.259	15561
911.374	15690
911.489	15591
911.604	15663
911.718	15359
911.833	15310
911.947	15275
912.062	15207
912.176	15378
912.291	15386
912.405	15424
912.519	15625
912.633	15580
912.748	15428
912.862	15481
912.976	15310
913.09	15188
913.204	15176
913.318	15310
913.431	15241
913.545	15272
913.659	15313
913.772	15211
913.886	15089
914	15047
914.113	15116
914.226	15272
914.34	15051
914.453	14880
914.566	15192
914.68	14925
914.793	14883
914.906	14842
915.019	14621
915.132	14587
915.245	14651
915.358	14765
915.47	14667
915.583	14613
915.696	14762
915.809	14842
915.921	14754
916.034	14598
916.146	14667
916.259	14587
916.371	14613
916.483	14640
916.595	14583
916.708	14480
916.82	14476
916.932	14499
917.044	14362
917.156	14412
917.268	14313
917.38	14400
917.491	14275
917.603	14404
917.715	14427
917.826	14393
917.938	14267
918.049	14153
918.161	14218
918.272	14374
918.384	14488
918.495	14351
918.606	14126
918.717	14119
918.828	14126
918.939	14168
919.05	14027
919.161	14126
919.272	13936
919.383	14016
919.494	14092
919.604	14248
919.715	14126
919.826	13970
919.936	14069
920.047	14138
920.157	14103
920.267	14263
920.378	14065
920.488	14058
920.598	14206
920.708	14450
920.818	14191
920.928	14172
921.038	14362
921.148	14317
921.258	14115
921.368	14001
921.477	13852
921.587	13769
921.697	13651
921.806	13795
921.916	13719
922.025	13514
922.134	13533
922.244	13419
922.353	13472
922.462	13403
922.571	13187
922.68	13255
922.789	13107
922.898	13152
923.007	13034
923.116	13031
923.224	13069
923.333	13012
923.442	13061
923.55	12951
923.659	12962
923.767	12966
923.876	12875
923.984	13015
924.092	12837
924.201	12909
924.309	12951
924.417	12924
924.525	12764
924.633	12749
924.741	13799
924.849	12601
924.956	12817
925.064	12620
925.172	12509
925.279	12544
925.387	12711
925.494	12585
925.602	12669
925.709	12582
925.816	12517
925.924	12521
926.031	12608
926.138	12555
926.245	12536
926.352	12452
926.459	12467
926.566	12475
926.673	12471
926.779	12357
926.886	12315
926.993	12201
927.099	12155
927.206	12076
927.312	12019
927.419	12281
927.525	12140
927.631	12175
927.737	12064
927.843	12087
927.95	11942
928.056	11988
928.162	12030
928.267	11912
928.373	12521
928.479	12102
928.585	11832
928.69	12038
928.796	11893
928.901	11882
929.007	11688
929.112	11809
929.218	11817
929.323	11786
929.428	11695
929.533	11817
929.638	11653
929.743	11767
929.848	11714
929.953	11630
930.058	11539
930.163	11395
930.267	11364
930.372	11543
930.477	11349
930.581	11562
930.685	11391
930.79	11349
930.894	11231
930.998	11212
931.103	11356
931.207	11029
931.311	10984
931.415	10881
931.519	10656
931.623	10656
