Data from test_V78500241_1662.txt Node
Date: Fri Mar 25 15:21:25 CST 2022
User: usil
Spectrometer: V785-0024
Trigger mode: 0
Integration Time (sec): 4.000000E-1
Scans to average: 1
Nonlinearity correction enabled: false
Boxcar width: 0
Storing dark spectrum: false
XAxis mode: Wavelengths
Number of Pixels in Spectrum: 1024
>>>>>Begin Spectral Data<<<<<
801.071	27884
801.214	27964
801.356	27557
801.499	27507
801.641	27462
801.783	27386
801.926	27469
802.068	27515
802.211	27507
802.353	27405
802.496	27176
802.638	27108
802.78	27096
802.923	27131
803.065	27104
803.208	27024
803.35	27199
803.492	27336
803.635	27317
803.777	27298
803.919	27332
804.061	27667
804.204	27412
804.346	27291
804.488	27348
804.63	27496
804.773	27264
804.915	27488
805.057	27507
805.199	27367
805.341	27591
805.483	27511
805.626	27469
805.768	27412
805.91	27458
806.052	27462
806.194	27481
806.336	27869
806.478	27576
806.62	27523
806.762	27610
806.904	27682
807.046	27804
807.188	27934
807.33	27781
807.472	27926
807.614	27838
807.756	27808
807.898	27724
808.04	27762
808.182	27736
808.324	27816
808.465	27755
808.607	28017
808.749	28131
808.891	28204
809.033	28318
809.174	28211
809.316	28070
809.458	28162
809.6	27987
809.741	28249
809.883	28268
810.025	28493
810.166	28451
810.308	28360
810.45	28436
810.591	28295
810.733	28169
810.875	28097
811.016	28021
811.158	27949
811.299	28124
811.441	28306
811.582	28348
811.724	28238
811.865	28029
812.007	28150
812.148	28097
812.29	28169
812.431	28211
812.573	28485
812.714	28546
812.855	28664
812.997	28694
813.138	28927
813.279	28797
813.421	28828
813.562	28679
813.703	28634
813.845	28356
813.986	28051
814.127	28013
814.268	27778
814.41	27724
814.551	27797
814.692	28044
814.833	27751
814.974	27633
815.115	27831
815.256	27690
815.397	27587
815.539	27724
815.68	27622
815.821	27485
815.962	27580
816.103	27614
816.244	27614
816.385	27412
816.526	27310
816.666	27291
816.807	27096
816.948	27214
817.089	27180
817.23	27070
817.371	27100
817.512	27024
817.653	27203
817.793	27119
817.934	27032
818.075	27055
818.216	27237
818.356	27157
818.497	26891
818.638	26724
818.778	26864
818.919	26842
819.06	26899
819.2	26963
819.341	27074
819.481	27051
819.622	27188
819.762	27500
819.903	27348
820.043	27302
820.184	27298
820.324	27302
820.465	27302
820.605	27279
820.746	27218
820.886	27203
821.026	27142
821.167	27268
821.307	27279
821.447	27051
821.588	26944
821.728	26902
821.868	26746
822.008	26629
822.149	26609
822.289	26583
822.429	26446
822.569	26328
822.709	26324
822.849	26134
822.99	26081
823.13	26043
823.27	26138
823.41	25986
823.55	25776
823.69	26138
823.83	25887
823.97	25932
824.11	25715
824.25	25674
824.389	25791
824.529	25814
824.669	25788
824.809	25921
824.949	25837
825.089	25845
825.228	25776
825.368	25601
825.508	25575
825.648	25639
825.787	25666
825.927	25723
826.067	25578
826.206	25696
826.346	25548
826.485	25666
826.625	25495
826.765	25757
826.904	25674
827.044	25464
827.183	25350
827.323	25373
827.462	25487
827.601	25499
827.741	25415
827.88	25339
828.02	25255
828.159	25346
828.298	25411
828.437	25369
828.577	25270
828.716	25483
828.855	25278
828.994	25137
829.134	25099
829.273	25114
829.412	25015
829.551	25084
829.69	25110
829.829	25122
829.968	25061
830.107	25133
830.246	25076
830.385	24852
830.524	24981
830.663	24829
830.802	24776
830.941	24635
831.08	24563
831.219	24700
831.357	24791
831.496	24852
831.635	24696
831.774	24490
831.913	24547
832.051	24483
832.19	24433
832.329	24532
832.467	24350
832.606	24262
832.744	24262
832.883	24281
833.022	24330
833.16	24418
833.299	24315
833.437	24372
833.576	24403
833.714	24361
833.852	24452
833.991	24414
834.129	24369
834.267	24471
834.406	24315
834.544	24372
834.682	24464
834.821	24433
834.959	24635
835.097	24372
835.235	24479
835.373	24388
835.511	24346
835.65	24262
835.788	24266
835.926	24213
836.064	24022
836.202	24076
836.34	24277
836.478	24376
836.615	24121
836.753	24220
836.891	24251
837.029	24262
837.167	24190
837.305	24205
837.443	24213
837.58	24072
837.718	24235
837.856	24015
837.993	24117
838.131	24102
838.269	24011
838.406	23950
838.544	23794
838.681	23764
838.819	23707
838.956	23661
839.094	23611
839.231	23627
839.369	23733
839.506	24045
839.643	23775
839.781	23543
839.918	23425
840.055	23558
840.193	23611
840.33	23562
840.467	23516
840.604	23520
840.742	23745
840.879	23341
841.016	23364
841.153	23315
841.29	23501
841.427	23509
841.564	23573
841.701	23349
841.838	23360
841.975	23387
842.112	23227
842.249	23315
842.385	23223
842.522	23425
842.659	23318
842.796	23254
842.933	23239
843.069	23170
843.206	23105
843.343	23288
843.479	23140
843.616	23242
843.752	22915
843.889	22965
844.025	23056
844.162	23010
844.298	23121
844.435	22946
844.571	22949
844.708	23117
844.844	23121
844.98	23124
845.117	23197
845.253	22965
845.389	22763
845.525	22961
845.661	22748
845.798	22649
845.934	22679
846.07	22664
846.206	22771
846.342	22881
846.478	22809
846.614	22466
846.75	22440
846.886	22565
847.022	22421
847.158	22470
847.294	22546
847.429	22451
847.565	22428
847.701	22786
847.837	22238
847.972	22253
848.108	22390
848.244	22211
848.379	22162
848.515	22090
848.65	22044
848.786	22291
848.921	22051
849.057	22147
849.192	21983
849.328	22013
849.463	22021
849.598	22063
849.734	21991
849.869	21899
850.004	21793
850.14	21903
850.275	21949
850.41	21823
850.545	21709
850.68	21720
850.815	21812
850.95	21793
851.085	21956
851.22	21835
851.355	21736
851.49	21804
851.625	21751
851.76	21842
851.895	21652
852.03	21774
852.165	21827
852.299	21739
852.434	21941
852.569	21739
852.703	21747
852.838	21869
852.973	21949
853.107	21892
853.242	21781
853.376	21679
853.511	21564
853.645	21538
853.78	21690
853.914	21614
854.048	21641
854.183	21629
854.317	21663
854.451	21835
854.585	21561
854.72	21618
854.854	21587
854.988	21618
855.122	21595
855.256	21618
855.39	21629
855.524	21679
855.658	21751
855.792	21568
855.926	21660
856.06	21781
856.194	21717
856.327	21656
856.461	21587
856.595	21603
856.729	21644
856.862	21713
856.996	21724
857.13	21679
857.263	21644
857.397	21808
857.53	21652
857.664	21663
857.797	21686
857.931	21743
858.064	21606
858.197	21671
858.331	21576
858.464	21625
858.597	21488
858.731	21713
858.864	21606
858.997	21686
859.13	21610
859.263	21660
859.396	21743
859.529	21595
859.662	21557
859.795	21500
859.928	21606
860.061	21675
860.194	21850
860.327	21675
860.46	21671
860.592	21679
860.725	21800
860.858	21694
860.99	21576
861.123	21545
861.256	21572
861.388	21583
861.521	22238
861.653	21412
861.786	21336
861.918	21477
862.05	21606
862.183	21523
862.315	21606
862.447	21553
862.58	21469
862.712	21329
862.844	21325
862.976	21481
863.108	21401
863.24	21766
863.372	21233
863.504	21317
863.636	21302
863.768	21439
863.9	21359
864.032	21389
864.164	21469
864.296	21294
864.428	21393
864.559	21405
864.691	21408
864.823	21298
864.954	21188
865.086	21237
865.217	21241
865.349	21123
865.48	21222
865.612	21226
865.743	21252
865.875	21199
866.006	21093
866.137	21218
866.269	21260
866.4	21116
866.531	21154
866.662	21180
866.793	21146
866.924	21176
867.055	21199
867.186	21074
867.317	21146
867.448	21062
867.579	21131
867.71	21184
867.841	21119
867.972	21275
868.103	21127
868.233	21237
868.364	21180
868.495	21355
868.625	21473
868.756	21462
868.886	21249
869.017	21393
869.147	21500
869.278	21614
869.408	21492
869.539	21340
869.669	21424
869.799	21317
869.929	21466
870.06	21397
870.19	21618
870.32	21732
870.45	21785
870.58	21759
870.71	21907
870.84	21876
870.97	21774
871.1	21728
871.23	22002
871.36	22002
871.489	21842
871.619	21869
871.749	21857
871.879	22006
872.008	22135
872.138	21994
872.267	22109
872.397	21918
872.526	21835
872.656	21850
872.785	21827
872.915	22044
873.044	21956
873.173	22013
873.303	22017
873.432	22063
873.561	22101
873.69	21979
873.819	22029
873.948	22078
874.077	21972
874.206	21945
874.335	21922
874.464	22051
874.593	22204
874.722	22226
874.851	22150
874.979	22158
875.108	22200
875.237	22226
875.365	22124
875.494	22207
875.623	22265
875.751	22204
875.88	22143
876.008	22436
876.136	22325
876.265	22691
876.393	22656
876.521	22687
876.65	22622
876.778	22569
876.906	22569
877.034	22531
877.162	22462
877.29	22436
877.418	22481
877.546	22645
877.674	22500
877.802	22500
877.93	22637
878.058	22489
878.185	22394
878.313	22580
878.441	22607
878.568	22417
878.696	22325
878.824	22508
878.951	22607
879.079	22835
879.206	22831
879.333	22698
879.461	22649
879.588	22706
879.715	22759
879.842	22854
879.97	22637
880.097	22329
880.224	22466
880.351	22500
880.478	22382
880.605	22367
880.732	22299
880.859	22615
880.986	22375
881.112	22371
881.239	22249
881.366	22154
881.493	22169
881.619	21937
881.746	21972
881.872	21888
881.999	21956
882.125	21888
882.252	21880
882.378	21994
882.505	21979
882.631	21747
882.757	21564
882.883	21759
883.01	21572
883.136	21557
883.262	21378
883.388	21511
883.514	21724
883.64	21679
883.766	21610
883.892	21340
884.018	21447
884.143	21618
884.269	21709
884.395	21348
884.52	21207
884.646	21313
884.772	21302
884.897	21218
885.023	21386
885.148	21344
885.274	21447
885.399	21519
885.524	21272
885.65	21370
885.775	21363
885.9	21359
886.025	21389
886.15	21317
886.275	21199
886.4	21138
886.525	21279
886.65	21252
886.775	21279
886.9	21393
887.025	21450
887.149	21287
887.274	21108
887.399	20918
887.523	21093
887.648	20967
887.773	20876
887.897	21142
888.021	21062
888.146	20994
888.27	21108
888.395	21020
888.519	21093
888.643	21055
888.767	21093
888.891	20971
889.015	20849
889.139	20830
889.263	20830
889.387	20944
889.511	21127
889.635	20982
889.759	20800
889.883	20861
890.006	20853
890.13	20929
890.254	20697
890.377	20697
890.501	20549
890.624	20469
890.748	20674
890.871	20587
890.995	20389
891.118	20248
891.241	20507
891.364	20461
891.488	20571
891.611	20427
891.734	20339
891.857	20514
891.98	20385
892.103	20377
892.226	20400
892.349	20358
892.471	20233
892.594	20324
892.717	20233
892.839	20218
892.962	20324
893.085	20385
893.207	20282
893.33	20278
893.452	20145
893.575	20320
893.697	20286
893.819	20495
893.941	20530
894.064	20514
894.186	20286
894.308	20252
894.43	20366
894.552	20438
894.674	20309
894.796	20191
894.918	20313
895.04	20259
895.161	20370
895.283	20366
895.405	20271
895.526	20298
895.648	20275
895.769	20336
895.891	20301
896.012	20419
896.134	20377
896.255	20347
896.376	20233
896.498	20221
896.619	20336
896.74	20229
896.861	20347
896.982	20693
897.103	20716
897.224	20549
897.345	20461
897.466	20438
897.587	20606
897.708	20556
897.828	20537
897.949	20370
898.07	20412
898.19	20526
898.311	20537
898.431	20431
898.552	20514
898.672	20602
898.792	20560
898.913	20457
899.033	20393
899.153	20351
899.273	20111
899.393	20298
899.513	20145
899.633	20263
899.753	20332
899.873	20153
899.993	20252
900.113	20134
900.232	20191
900.352	20122
900.472	20107
900.591	19974
900.711	20008
900.83	19951
900.95	20073
901.069	20149
901.189	19932
901.308	19635
901.427	19533
901.546	19575
901.665	19715
901.784	19784
901.904	19476
902.023	19297
902.141	19244
902.26	19107
902.379	19282
902.498	19156
902.617	19137
902.735	19110
902.854	19156
902.973	19088
903.091	18852
903.21	18871
903.328	18711
903.446	18669
903.565	18608
903.683	18555
903.801	18536
903.919	18642
904.038	18585
904.156	18407
904.274	18433
904.392	18395
904.51	18376
904.627	18338
904.745	18433
904.863	18410
904.981	18186
905.098	18114
905.216	18114
905.334	18022
905.451	18038
905.569	17946
905.686	18102
905.803	18079
905.921	17794
906.038	17916
906.155	17859
906.272	17726
906.389	17737
906.506	17554
906.623	17611
906.74	17547
906.857	17524
906.974	17570
907.091	17547
907.208	17680
907.324	17493
907.441	17482
907.557	17254
907.674	17216
907.79	17235
907.907	17239
908.023	17242
908.139	17235
908.256	17223
908.372	17181
908.488	17086
908.604	16938
908.72	17094
908.836	17056
908.952	16972
909.068	17056
909.184	17022
909.3	17014
909.415	17094
909.531	16995
909.647	16755
909.762	16656
909.878	16645
909.993	16752
910.108	16645
910.224	16683
910.339	16691
910.454	16653
910.57	16565
910.685	16470
910.8	16664
910.915	16580
911.03	16466
911.145	16299
911.259	16306
911.374	16344
911.489	16246
911.604	16253
911.718	16135
911.833	15892
911.947	15949
912.062	15915
912.176	16036
912.291	16051
912.405	15911
912.519	16135
912.633	16242
912.748	16173
912.862	15956
912.976	15857
913.09	15739
913.204	15812
913.318	15888
913.431	15949
913.545	15880
913.659	15926
913.772	15778
913.886	15770
914	15629
914.113	15671
914.226	15739
914.34	15732
914.453	15637
914.566	15686
914.68	15564
914.793	15481
914.906	15355
915.019	15332
915.132	15203
915.245	15321
915.358	15256
915.47	15317
915.583	15313
915.696	15321
915.809	15275
915.921	15252
916.034	15119
916.146	15089
916.259	15097
916.371	15272
916.483	15138
916.595	15001
916.708	15066
916.82	15157
916.932	15020
917.044	15081
917.156	14967
917.268	14944
917.38	14967
917.491	14861
917.603	14975
917.715	15039
917.826	14990
917.938	14819
918.049	14743
918.161	14804
918.272	14944
918.384	15036
918.495	14826
918.606	14667
918.717	14590
918.828	14746
918.939	14590
919.05	14613
919.161	14636
919.272	14469
919.383	14571
919.494	14739
919.604	14781
919.715	14659
919.826	14621
919.936	14583
920.047	14613
920.157	14655
920.267	14845
920.378	14746
920.488	14530
920.598	14651
920.708	15001
920.818	14777
920.928	14674
921.038	14918
921.148	14857
921.258	14602
921.368	14492
921.477	14404
921.587	14275
921.697	14282
921.806	14294
921.916	14164
922.025	14088
922.134	13989
922.244	13978
922.353	14039
922.462	13845
922.571	13814
922.68	13613
922.789	13685
922.898	13643
923.007	13578
923.116	13624
923.224	13696
923.333	13571
923.442	13499
923.55	13480
923.659	13582
923.767	13586
923.876	13362
923.984	13468
924.092	13362
924.201	13354
924.309	13362
924.417	13346
924.525	13263
924.633	13259
924.741	14168
924.849	13091
924.956	13209
925.064	13050
925.172	13015
925.279	12993
925.387	13038
925.494	13152
925.602	13168
925.709	13031
925.816	12947
925.924	12958
926.031	13080
926.138	13050
926.245	12951
926.352	12916
926.459	12901
926.566	13072
926.673	12856
926.779	12795
926.886	12886
926.993	12627
927.099	12608
927.206	12566
927.312	12551
927.419	12711
927.525	12616
927.631	12627
927.737	12460
927.843	12483
927.95	12292
928.056	12350
928.162	12380
928.267	12422
928.373	13133
928.479	12528
928.585	12300
928.69	12391
928.796	12441
928.901	12270
929.007	12163
929.112	12327
929.218	12224
929.323	12148
929.428	12224
929.533	12266
929.638	12095
929.743	12114
929.848	12167
929.953	12087
930.058	11950
930.163	11912
930.267	11805
930.372	12007
930.477	11783
930.581	12007
930.685	11969
930.79	11718
930.894	11813
930.998	11699
931.103	11805
931.207	11486
931.311	11455
931.415	11349
931.519	11121
931.623	11189
