Data from test_V78500241_882.txt Node
Date: Fri Mar 25 15:15:59 CST 2022
User: usil
Spectrometer: V785-0024
Trigger mode: 0
Integration Time (sec): 4.000000E-1
Scans to average: 1
Nonlinearity correction enabled: false
Boxcar width: 0
Storing dark spectrum: false
XAxis mode: Wavelengths
Number of Pixels in Spectrum: 1024
>>>>>Begin Spectral Data<<<<<
801.071	28226
801.214	28124
801.356	27804
801.499	27842
801.641	27793
801.783	27808
801.926	27698
802.068	27542
802.211	27599
802.353	27511
802.496	27416
802.638	27386
802.78	27161
802.923	27370
803.065	27268
803.208	27256
803.35	27351
803.492	27389
803.635	27477
803.777	27504
803.919	27583
804.061	27797
804.204	27526
804.346	27599
804.488	27454
804.63	27439
804.773	27473
804.915	27625
805.057	27743
805.199	27481
805.341	27618
805.483	27717
805.626	27583
805.768	27576
805.91	27713
806.052	27709
806.194	27576
806.336	27800
806.478	27789
806.62	27648
806.762	27983
806.904	27831
807.046	28226
807.188	28101
807.33	28090
807.472	28120
807.614	28002
807.756	28082
807.898	27991
808.04	27979
808.182	27968
808.324	27888
808.465	27964
808.607	28226
808.749	28253
808.891	28379
809.033	28660
809.174	28322
809.316	28322
809.458	28394
809.6	28405
809.741	28348
809.883	28462
810.025	28535
810.166	28569
810.308	28733
810.45	28557
810.591	28542
810.733	28512
810.875	28287
811.016	28200
811.158	28192
811.299	28428
811.441	28546
811.582	28379
811.724	28257
811.865	28265
812.007	28474
812.148	28284
812.29	28329
812.431	28527
812.573	28565
812.714	28668
812.855	28965
812.997	28908
813.138	29117
813.279	29102
813.421	28721
813.562	28839
813.703	28573
813.845	28459
813.986	28230
814.127	28162
814.268	28086
814.41	28021
814.551	27998
814.692	28124
814.833	28010
814.974	27888
815.115	28177
815.256	27835
815.397	27861
815.539	27975
815.68	27911
815.821	27793
815.962	27876
816.103	27907
816.244	27751
816.385	27610
816.526	27561
816.666	27549
816.807	27291
816.948	27397
817.089	27507
817.23	27435
817.371	27447
817.512	27272
817.653	27252
817.793	27256
817.934	27447
818.075	27348
818.216	27306
818.356	27264
818.497	27245
818.638	27089
818.778	27043
818.919	27150
819.06	27214
819.2	27184
819.341	27477
819.481	27279
819.622	27393
819.762	27759
819.903	27671
820.043	27507
820.184	27488
820.324	27466
820.465	27526
820.605	27572
820.746	27519
820.886	27344
821.026	27523
821.167	27488
821.307	27538
821.447	27355
821.588	27279
821.728	27237
821.868	27096
822.008	26842
822.149	26796
822.289	26830
822.429	26530
822.569	26461
822.709	26530
822.849	26298
822.99	26423
823.13	26229
823.27	26355
823.41	26077
823.55	26035
823.69	26077
823.83	26294
823.97	26031
824.11	25963
824.25	25959
824.389	25978
824.529	26005
824.669	26024
824.809	26081
824.949	26107
825.089	26073
825.228	26065
825.368	25860
825.508	25917
825.648	25959
825.787	25856
825.927	25883
826.067	25917
826.206	25811
826.346	25772
826.485	25879
826.625	25788
826.765	26012
826.904	25966
827.044	25643
827.183	25643
827.323	25540
827.462	25514
827.601	25575
827.741	25544
827.88	25426
828.02	25419
828.159	25552
828.298	25400
828.437	25693
828.577	25590
828.716	25567
828.855	25441
828.994	25255
829.134	25331
829.273	25308
829.412	25168
829.551	25236
829.69	25175
829.829	25289
829.968	25358
830.107	25331
830.246	25198
830.385	25301
830.524	25168
830.663	25103
830.802	25080
830.941	24958
831.08	24798
831.219	24844
831.357	25027
831.496	24966
831.635	24916
831.774	24753
831.913	24791
832.051	24757
832.19	24734
832.329	24669
832.467	24639
832.606	24532
832.744	24555
832.883	24563
833.022	24433
833.16	24407
833.299	24479
833.437	24585
833.576	24593
833.714	24661
833.852	24711
833.991	24661
834.129	24681
834.267	24757
834.406	24642
834.544	24555
834.682	24612
834.821	24696
834.959	24840
835.097	24532
835.235	24627
835.373	24688
835.511	24532
835.65	24502
835.788	24429
835.926	24365
836.064	24262
836.202	24315
836.34	24391
836.478	24570
836.615	24464
836.753	24460
836.891	24536
837.029	24536
837.167	24536
837.305	24399
837.443	24350
837.58	24319
837.718	24372
837.856	24308
837.993	24228
838.131	24254
838.269	24110
838.406	24186
838.544	24213
838.681	24060
838.819	23843
838.956	23638
839.094	23687
839.231	23779
839.369	24110
839.506	24057
839.643	23992
839.781	23809
839.918	23707
840.055	23691
840.193	23665
840.33	23775
840.467	23741
840.604	23737
840.742	23961
840.879	23573
841.016	23623
841.153	23585
841.29	23764
841.427	23638
841.564	23665
841.701	23657
841.838	23547
841.975	23535
842.112	23543
842.249	23490
842.385	23452
842.522	23554
842.659	23490
842.796	23433
842.933	23360
843.069	23288
843.206	23387
843.343	23505
843.479	23330
843.616	23421
843.752	23208
843.889	23216
844.025	23307
844.162	23254
844.298	23174
844.435	23280
844.571	23216
844.708	23273
844.844	23341
844.98	23334
845.117	23307
845.253	23094
845.389	22904
845.525	23086
845.661	23052
845.798	22934
845.934	22961
846.07	22927
846.206	23022
846.342	23029
846.478	22934
846.614	22752
846.75	22512
846.886	22694
847.022	22744
847.158	22733
847.294	22626
847.429	22763
847.565	22691
847.701	22820
847.837	22363
847.972	22413
848.108	22557
848.244	22466
848.379	22394
848.515	22310
848.65	22322
848.786	22253
848.921	22344
849.057	22371
849.192	22287
849.328	22424
849.463	22181
849.598	22230
849.734	22196
849.869	22131
850.004	21998
850.14	22013
850.275	22067
850.41	21899
850.545	22025
850.68	21922
850.815	22082
850.95	22078
851.085	22211
851.22	22090
851.355	22010
851.49	21945
851.625	21926
851.76	21968
851.895	21823
852.03	21937
852.165	21941
852.299	22101
852.434	22070
852.569	22055
852.703	22067
852.838	22097
852.973	22173
853.107	22291
853.242	21994
853.376	21979
853.511	21705
853.645	21850
853.78	21903
853.914	21876
854.048	21690
854.183	21945
854.317	21823
854.451	22086
854.585	21880
854.72	21937
854.854	21842
854.988	21732
855.122	21747
855.256	21793
855.39	21869
855.524	21804
855.658	21953
855.792	21926
855.926	22048
856.06	21972
856.194	22029
856.327	21823
856.461	21774
856.595	21861
856.729	21827
856.862	21949
856.996	21934
857.13	21819
857.263	21869
857.397	21956
857.53	21823
857.664	21857
857.797	21937
857.931	22029
858.064	21956
858.197	21915
858.331	21876
858.464	21831
858.597	21861
858.731	21991
858.864	21690
858.997	21842
859.13	21827
859.263	21899
859.396	21880
859.529	21770
859.662	21854
859.795	21873
859.928	21892
860.061	21918
860.194	22055
860.327	21915
860.46	21888
860.592	21934
860.725	22086
860.858	21975
860.99	21937
861.123	21766
861.256	21705
861.388	21793
861.521	22637
861.653	21869
861.786	21660
861.918	21599
862.05	21808
862.183	21793
862.315	21766
862.447	21873
862.58	21739
862.712	21641
862.844	21561
862.976	21660
863.108	21545
863.24	21945
863.372	21534
863.504	21644
863.636	21462
863.768	21599
863.9	21606
864.032	21515
864.164	21466
864.296	21698
864.428	21800
864.559	21583
864.691	21576
864.823	21561
864.954	21553
865.086	21591
865.217	21443
865.349	21458
865.48	21511
865.612	21595
865.743	21587
865.875	21431
866.006	21401
866.137	21450
866.269	21424
866.4	21313
866.531	21374
866.662	21344
866.793	21370
866.924	21401
867.055	21530
867.186	21469
867.317	21351
867.448	21180
867.579	21275
867.71	21313
867.841	21340
867.972	21325
868.103	21367
868.233	21450
868.364	21412
868.495	21431
868.625	21644
868.756	21576
868.886	21473
869.017	21663
869.147	21736
869.278	21827
869.408	21595
869.539	21606
869.669	21781
869.799	21701
869.929	21660
870.06	21793
870.19	21907
870.32	21903
870.45	21838
870.58	21918
870.71	22207
870.84	22006
870.97	22143
871.1	21968
871.23	22169
871.36	22162
871.489	22154
871.619	22097
871.749	22261
871.879	22314
872.008	22356
872.138	22230
872.267	22253
872.397	22051
872.526	22109
872.656	22013
872.785	22070
872.915	22238
873.044	22344
873.173	22162
873.303	22314
873.432	22238
873.561	22234
873.69	22276
873.819	22188
873.948	22352
874.077	22284
874.206	22116
874.335	22371
874.464	22337
874.593	22489
874.722	22436
874.851	22500
874.979	22527
875.108	22561
875.237	22432
875.365	22379
875.494	22386
875.623	22455
875.751	22325
875.88	22455
876.008	22516
876.136	22649
876.265	22843
876.393	22961
876.521	22892
876.65	22858
876.778	22805
876.906	22771
877.034	22892
877.162	22790
877.29	22736
877.418	22778
877.546	22786
877.674	22740
877.802	22771
877.93	22645
878.058	22710
878.185	22637
878.313	22740
878.441	22580
878.568	22531
878.696	22824
878.824	22710
878.951	22805
879.079	23048
879.206	23098
879.333	22965
879.461	22831
879.588	22748
879.715	22927
879.842	23033
879.97	22930
880.097	22592
880.224	22516
880.351	22653
880.478	22622
880.605	22512
880.732	22637
880.859	22858
880.986	22645
881.112	22599
881.239	22497
881.366	22348
881.493	22249
881.619	22154
881.746	22200
881.872	22147
881.999	22078
882.125	22112
882.252	22150
882.378	22029
882.505	22268
882.631	22074
882.757	21873
882.883	21934
883.01	21888
883.136	21774
883.262	21743
883.388	21713
883.514	21793
883.64	21956
883.766	21778
883.892	21743
884.018	21603
884.143	21747
884.269	21819
884.395	21549
884.52	21500
884.646	21450
884.772	21378
884.897	21431
885.023	21469
885.148	21545
885.274	21622
885.399	21686
885.524	21336
885.65	21450
885.775	21572
885.9	21435
886.025	21587
886.15	21545
886.275	21378
886.4	21435
886.525	21549
886.65	21454
886.775	21454
886.9	21500
887.025	21595
887.149	21485
887.274	21336
887.399	21294
887.523	21252
887.648	21252
887.773	21203
887.897	21245
888.021	21344
888.146	21142
888.27	21359
888.395	21336
888.519	21321
888.643	21412
888.767	21287
888.891	21211
889.015	21112
889.139	21127
889.263	21043
889.387	21127
889.511	21374
889.635	21123
889.759	21062
889.883	21051
890.006	21051
890.13	21116
890.254	20880
890.377	20975
890.501	20933
890.624	20667
890.748	20823
890.871	20800
890.995	20629
891.118	20545
891.241	20583
891.364	20651
891.488	20731
891.611	20682
891.734	20613
891.857	20743
891.98	20682
892.103	20667
892.226	20625
892.349	20636
892.471	20454
892.594	20602
892.717	20590
892.839	20495
892.962	20667
893.085	20617
893.207	20537
893.33	20469
893.452	20370
893.575	20609
893.697	20434
893.819	20701
893.941	20777
894.064	20667
894.186	20385
894.308	20442
894.43	20412
894.552	20701
894.674	20594
894.796	20404
894.918	20545
895.04	20396
895.161	20545
895.283	20476
895.405	20431
895.526	20583
895.648	20488
895.769	20454
895.891	20571
896.012	20571
896.134	20526
896.255	20514
896.376	20434
896.498	20412
896.619	20568
896.74	20480
896.861	20549
896.982	20807
897.103	20819
897.224	20758
897.345	20819
897.466	20648
897.587	20819
897.708	20925
897.828	20765
897.949	20670
898.07	20697
898.19	20632
898.311	20720
898.431	20545
898.552	20792
898.672	20746
898.792	20807
898.913	20697
899.033	20606
899.153	20518
899.273	20366
899.393	20446
899.513	20396
899.633	20454
899.753	20469
899.873	20370
899.993	20438
900.113	20431
900.232	20480
900.352	20351
900.472	20259
900.591	20126
900.711	20206
900.83	20199
900.95	20347
901.069	20263
901.189	20134
901.308	19841
901.427	19723
901.546	19852
901.665	19864
901.784	19723
901.904	19791
902.023	19597
902.141	19384
902.26	19403
902.379	19491
902.498	19301
902.617	19293
902.735	19358
902.854	19304
902.973	19194
903.091	18920
903.21	19004
903.328	18901
903.446	18905
903.565	18825
903.683	18810
903.801	18673
903.919	18639
904.038	18783
904.156	18536
904.274	18753
904.392	18517
904.51	18479
904.627	18467
904.745	18597
904.863	18475
904.981	18323
905.098	18178
905.216	18068
905.334	18247
905.451	18426
905.569	18102
905.686	18319
905.803	18197
905.921	18003
906.038	18060
906.155	17999
906.272	17920
906.389	17920
906.506	17756
906.623	17676
906.74	17802
906.857	17726
906.974	17535
907.091	17691
907.208	17805
907.324	17760
907.441	17699
907.557	17505
907.674	17398
907.79	17410
907.907	17433
908.023	17497
908.139	17459
908.256	17360
908.372	17414
908.488	17322
908.604	17216
908.72	17170
908.836	17147
908.952	17025
909.068	17242
909.184	17223
909.3	17159
909.415	17212
909.531	17128
909.647	16873
909.762	16862
909.878	16858
909.993	16923
910.108	16831
910.224	16828
910.339	16828
910.454	16725
910.57	16725
910.685	16660
910.8	16858
910.915	16869
911.03	16637
911.145	16535
911.259	16432
911.374	16466
911.489	16447
911.604	16337
911.718	16219
911.833	16276
911.947	16074
912.062	15979
912.176	16166
912.291	16169
912.405	16207
912.519	16447
912.633	16379
912.748	16181
912.862	16150
912.976	16093
913.09	15960
913.204	15873
913.318	15994
913.431	16097
913.545	16093
913.659	16032
913.772	16006
913.886	15827
914	15861
914.113	15892
914.226	16006
914.34	15873
914.453	15728
914.566	15816
914.68	15709
914.793	15644
914.906	15485
915.019	15268
915.132	15306
915.245	15374
915.358	15504
915.47	15481
915.583	15443
915.696	15370
915.809	15401
915.921	15481
916.034	15374
916.146	15431
916.259	15291
916.371	15317
916.483	15389
916.595	15214
916.708	15249
916.82	15298
916.932	15256
917.044	15157
917.156	15184
917.268	15112
917.38	15043
917.491	15074
917.603	15051
917.715	15150
917.826	15173
917.938	15020
918.049	14864
918.161	14975
918.272	15104
918.384	15100
918.495	14914
918.606	14838
918.717	14785
918.828	14830
918.939	14830
919.05	14765
919.161	14785
919.272	14625
919.383	14648
919.494	14842
919.604	14986
919.715	14815
919.826	14667
919.936	14788
920.047	14868
920.157	14830
920.267	14887
920.378	14788
920.488	14796
920.598	14929
920.708	15013
920.818	14895
920.928	14883
921.038	15001
921.148	15058
921.258	14610
921.368	14644
921.477	14454
921.587	14351
921.697	14377
921.806	14579
921.916	14301
922.025	14267
922.134	14088
922.244	14081
922.353	14111
922.462	14035
922.571	13970
922.68	13860
922.789	13769
922.898	13875
923.007	13696
923.116	13826
923.224	13746
923.333	13700
923.442	13563
923.55	13651
923.659	13616
923.767	13624
923.876	13567
923.984	13597
924.092	13464
924.201	13616
924.309	13510
924.417	13552
924.525	13487
924.633	13400
924.741	14100
924.849	13152
924.956	13422
925.064	13346
925.172	13095
925.279	13076
925.387	13175
925.494	13179
925.602	13270
925.709	13217
925.816	13080
925.924	13156
926.031	13247
926.138	13072
926.245	13103
926.352	13015
926.459	13156
926.566	13095
926.673	13004
926.779	12954
926.886	12920
926.993	12810
927.099	12757
927.206	12726
927.312	12715
927.419	12749
927.525	12673
927.631	12791
927.737	12585
927.843	12578
927.95	12433
928.056	12547
928.162	12540
928.267	12536
928.373	13175
928.479	12669
928.585	12441
928.69	12456
928.796	12429
928.901	12403
929.007	12213
929.112	12361
929.218	12357
929.323	12251
929.428	12243
929.533	12353
929.638	12232
929.743	12228
929.848	12304
929.953	12277
930.058	12091
930.163	11980
930.267	11931
930.372	12019
930.477	11958
930.581	12129
930.685	11961
930.79	11847
930.894	11836
930.998	11783
931.103	11908
931.207	11623
931.311	11482
931.415	11425
931.519	11239
931.623	11265
