Data from test_V78500241_1539.txt Node
Date: Fri Mar 25 15:20:34 CST 2022
User: usil
Spectrometer: V785-0024
Trigger mode: 0
Integration Time (sec): 4.000000E-1
Scans to average: 1
Nonlinearity correction enabled: false
Boxcar width: 0
Storing dark spectrum: false
XAxis mode: Wavelengths
Number of Pixels in Spectrum: 1024
>>>>>Begin Spectral Data<<<<<
801.071	28128
801.214	27762
801.356	27804
801.499	27663
801.641	27545
801.783	27534
801.926	27580
802.068	27709
802.211	27545
802.353	27424
802.496	27287
802.638	27249
802.78	27123
802.923	27135
803.065	27070
803.208	27085
803.35	27256
803.492	27291
803.635	27420
803.777	27348
803.919	27496
804.061	27739
804.204	27443
804.346	27450
804.488	27420
804.63	27393
804.773	27412
804.915	27538
805.057	27523
805.199	27454
805.341	27572
805.483	27705
805.626	27576
805.768	27485
805.91	27515
806.052	27572
806.194	27416
806.336	27762
806.478	27553
806.62	27454
806.762	27812
806.904	27934
807.046	27998
807.188	27861
807.33	28040
807.472	28074
807.614	27831
807.756	28067
807.898	27987
808.04	27823
808.182	27873
808.324	27797
808.465	27857
808.607	28150
808.749	28215
808.891	28135
809.033	28314
809.174	28109
809.316	28166
809.458	28211
809.6	28147
809.741	28363
809.883	28337
810.025	28497
810.166	28451
810.308	28660
810.45	28455
810.591	28519
810.733	28116
810.875	28215
811.016	27945
811.158	28070
811.299	28185
811.441	28500
811.582	28226
811.724	28200
811.865	28158
812.007	28238
812.148	28109
812.29	28196
812.431	28459
812.573	28554
812.714	28634
812.855	28668
812.997	28839
813.138	28854
813.279	28809
813.421	28793
813.562	28786
813.703	28653
813.845	28405
813.986	28158
814.127	27907
814.268	27895
814.41	27975
814.551	27880
814.692	27831
814.833	27846
814.974	27892
815.115	27945
815.256	27656
815.397	27762
815.539	27724
815.68	27701
815.821	27526
815.962	27709
816.103	27679
816.244	27606
816.385	27405
816.526	27408
816.666	27249
816.807	27184
816.948	27272
817.089	27374
817.23	27389
817.371	27131
817.512	27195
817.653	27119
817.793	27093
817.934	27154
818.075	27233
818.216	27245
818.356	26986
818.497	27081
818.638	26857
818.778	26933
818.919	26815
819.06	27013
819.2	27032
819.341	27135
819.481	27135
819.622	27332
819.762	27336
819.903	27355
820.043	27374
820.184	27298
820.324	27264
820.465	27272
820.605	27412
820.746	27389
820.886	27062
821.026	27230
821.167	27237
821.307	27397
821.447	27116
821.588	27127
821.728	26990
821.868	26830
822.008	26400
822.149	26667
822.289	26617
822.429	26552
822.569	26438
822.709	26347
822.849	26221
822.99	26134
823.13	26088
823.27	26199
823.41	25951
823.55	25849
823.69	25906
823.83	25951
823.97	26008
824.11	25700
824.25	25814
824.389	25772
824.529	25928
824.669	25776
824.809	25845
824.949	25837
825.089	25864
825.228	25932
825.368	25639
825.508	25772
825.648	25689
825.787	25647
825.927	25719
826.067	25635
826.206	25734
826.346	25677
826.485	25658
826.625	25616
826.765	25677
826.904	25651
827.044	25563
827.183	25457
827.323	25324
827.462	25403
827.601	25392
827.741	25343
827.88	25464
828.02	25270
828.159	25365
828.298	25293
828.437	25354
828.577	25346
828.716	25430
828.855	25282
828.994	25076
829.134	25236
829.273	25141
829.412	25107
829.551	24901
829.69	25034
829.829	25034
829.968	25133
830.107	25031
830.246	24989
830.385	25099
830.524	24894
830.663	24905
830.802	24684
830.941	24703
831.08	24635
831.219	24848
831.357	24711
831.496	24863
831.635	24779
831.774	24593
831.913	24627
832.051	24585
832.19	24391
832.329	24486
832.467	24376
832.606	24262
832.744	24281
832.883	24262
833.022	24304
833.16	24254
833.299	24418
833.437	24403
833.576	24395
833.714	24544
833.852	24391
833.991	24460
834.129	24426
834.267	24403
834.406	24525
834.544	24471
834.682	24445
834.821	24464
834.959	24627
835.097	24365
835.235	24422
835.373	24437
835.511	24388
835.65	24251
835.788	24194
835.926	24201
836.064	23958
836.202	23950
836.34	24277
836.478	24205
836.615	24167
836.753	24315
836.891	24330
837.029	24232
837.167	24083
837.305	24159
837.443	24091
837.58	24022
837.718	24129
837.856	24030
837.993	23935
838.131	23958
838.269	23958
838.406	23984
838.544	23847
838.681	23756
838.819	23771
838.956	23505
839.094	23520
839.231	23619
839.369	23741
839.506	23969
839.643	23866
839.781	23516
839.918	23349
840.055	23573
840.193	23516
840.33	23539
840.467	23467
840.604	23512
840.742	23760
840.879	23356
841.016	23448
841.153	23360
841.29	23516
841.427	23379
841.564	23455
841.701	23433
841.838	23512
841.975	23250
842.112	23337
842.249	23284
842.385	23254
842.522	23395
842.659	23208
842.796	23299
842.933	23162
843.069	23197
843.206	23037
843.343	23277
843.479	23193
843.616	23299
843.752	23033
843.889	23041
844.025	23140
844.162	23018
844.298	22980
844.435	23014
844.571	23056
844.708	23056
844.844	23223
844.98	23079
845.117	23029
845.253	22847
845.389	22839
845.525	22873
845.661	22755
845.798	22752
845.934	22679
846.07	22710
846.206	22580
846.342	22858
846.478	22683
846.614	22542
846.75	22440
846.886	22554
847.022	22588
847.158	22481
847.294	22459
847.429	22413
847.565	22310
847.701	22683
847.837	22147
847.972	22215
848.108	22219
848.244	22234
848.379	22017
848.515	22055
848.65	22059
848.786	22032
848.921	21911
849.057	22143
849.192	22074
849.328	22036
849.463	21937
849.598	21930
849.734	21983
849.869	21972
850.004	21907
850.14	21861
850.275	21827
850.41	21751
850.545	21816
850.68	21713
850.815	21739
850.95	21770
851.085	21945
851.22	21789
851.355	21747
851.49	21770
851.625	21762
851.76	21755
851.895	21686
852.03	21633
852.165	21854
852.299	21835
852.434	21846
852.569	21819
852.703	21778
852.838	21888
852.973	21960
853.107	21873
853.242	21690
853.376	21663
853.511	21629
853.645	21564
853.78	21686
853.914	21576
854.048	21504
854.183	21530
854.317	21644
854.451	21747
854.585	21545
854.72	21618
854.854	21663
854.988	21515
855.122	21656
855.256	21447
855.39	21557
855.524	21785
855.658	21633
855.792	21644
855.926	21629
856.06	21663
856.194	21637
856.327	21709
856.461	21583
856.595	21591
856.729	21667
856.862	21610
856.996	21606
857.13	21641
857.263	21781
857.397	21709
857.53	21587
857.664	21591
857.797	21580
857.931	21698
858.064	21534
858.197	21766
858.331	21736
858.464	21564
858.597	21526
858.731	21561
858.864	21580
858.997	21576
859.13	21694
859.263	21545
859.396	21747
859.529	21656
859.662	21416
859.795	21500
859.928	21587
860.061	21759
860.194	21812
860.327	21679
860.46	21622
860.592	21739
860.725	21888
860.858	21701
860.99	21641
861.123	21447
861.256	21526
861.388	21557
861.521	22257
861.653	21519
861.786	21466
861.918	21363
862.05	21603
862.183	21401
862.315	21496
862.447	21682
862.58	21477
862.712	21317
862.844	21123
862.976	21412
863.108	21306
863.24	21648
863.372	21317
863.504	21374
863.636	21367
863.768	21405
863.9	21256
864.032	21325
864.164	21291
864.296	21237
864.428	21500
864.559	21481
864.691	21378
864.823	21310
864.954	21374
865.086	21233
865.217	21233
865.349	21173
865.48	21264
865.612	21188
865.743	21291
865.875	21169
866.006	21249
866.137	21188
866.269	21317
866.4	21165
866.531	21287
866.662	21176
866.793	21138
866.924	21252
867.055	21127
867.186	21127
867.317	21066
867.448	21032
867.579	21051
867.71	21062
867.841	20990
867.972	21233
868.103	21116
868.233	21195
868.364	21218
868.495	21138
868.625	21374
868.756	21450
868.886	21264
869.017	21431
869.147	21412
869.278	21469
869.408	21435
869.539	21363
869.669	21488
869.799	21363
869.929	21591
870.06	21374
870.19	21656
870.32	21606
870.45	21880
870.58	21743
870.71	21739
870.84	21854
870.97	21736
871.1	21781
871.23	21953
871.36	21968
871.489	21857
871.619	22032
871.749	21842
871.879	22013
872.008	22109
872.138	21922
872.267	21994
872.397	21823
872.526	21800
872.656	21838
872.785	21797
872.915	21987
873.044	22086
873.173	21972
873.303	21968
873.432	22158
873.561	22059
873.69	21975
873.819	22059
873.948	21945
874.077	22078
874.206	21979
874.335	21945
874.464	22078
874.593	22299
874.722	22181
874.851	22287
874.979	22265
875.108	22234
875.237	22253
875.365	22150
875.494	22261
875.623	22341
875.751	22204
875.88	22154
876.008	22291
876.136	22512
876.265	22546
876.393	22828
876.521	22729
876.65	22729
876.778	22645
876.906	22538
877.034	22622
877.162	22481
877.29	22474
877.418	22603
877.546	22618
877.674	22550
877.802	22653
877.93	22580
878.058	22466
878.185	22413
878.313	22641
878.441	22603
878.568	22481
878.696	22561
878.824	22599
878.951	22656
879.079	22691
879.206	22965
879.333	22721
879.461	22508
879.588	22637
879.715	22740
879.842	22847
879.97	22694
880.097	22531
880.224	22421
880.351	22394
880.478	22382
880.605	22436
880.732	22394
880.859	22554
880.986	22538
881.112	22363
881.239	22310
881.366	22192
881.493	22036
881.619	21854
881.746	21915
881.872	22029
881.999	21899
882.125	21846
882.252	21972
882.378	21854
882.505	22010
882.631	21770
882.757	21542
882.883	21854
883.01	21629
883.136	21618
883.262	21564
883.388	21561
883.514	21572
883.64	21720
883.766	21583
883.892	21389
884.018	21496
884.143	21610
884.269	21667
884.395	21428
884.52	21192
884.646	21348
884.772	21256
884.897	21051
885.023	21237
885.148	21325
885.274	21454
885.399	21344
885.524	21260
885.65	21317
885.775	21340
885.9	21260
886.025	21389
886.15	21496
886.275	21317
886.4	21203
886.525	21344
886.65	21252
886.775	21230
886.9	21382
887.025	21507
887.149	21142
887.274	21005
887.399	21150
887.523	21085
887.648	20994
887.773	20902
887.897	21233
888.021	21176
888.146	21028
888.27	21077
888.395	21180
888.519	20975
888.643	21203
888.767	21108
888.891	20952
889.015	20902
889.139	20880
889.263	20895
889.387	20826
889.511	21085
889.635	20967
889.759	20781
889.883	20762
890.006	20914
890.13	20864
890.254	20743
890.377	20819
890.501	20697
890.624	20518
890.748	20644
890.871	20442
890.995	20511
891.118	20336
891.241	20408
891.364	20431
891.488	20552
891.611	20442
891.734	20313
891.857	20518
891.98	20259
892.103	20328
892.226	20423
892.349	20278
892.471	20252
892.594	20339
892.717	20328
892.839	20240
892.962	20278
893.085	20400
893.207	20256
893.33	20172
893.452	20229
893.575	20332
893.697	20332
893.819	20522
893.941	20480
894.064	20507
894.186	20278
894.308	20191
894.43	20419
894.552	20385
894.674	20381
894.796	20103
894.918	20294
895.04	20244
895.161	20408
895.283	20370
895.405	20237
895.526	20290
895.648	20187
895.769	20305
895.891	20305
896.012	20339
896.134	20271
896.255	20324
896.376	20122
896.498	20225
896.619	20286
896.74	20309
896.861	20286
896.982	20621
897.103	20796
897.224	20564
897.345	20560
897.466	20389
897.587	20469
897.708	20678
897.828	20598
897.949	20495
898.07	20240
898.19	20442
898.311	20629
898.431	20431
898.552	20499
898.672	20507
898.792	20545
898.913	20735
899.033	20374
899.153	20244
899.273	20259
899.393	20351
899.513	20286
899.633	20290
899.753	20221
899.873	20157
899.993	20332
900.113	20229
900.232	20161
900.352	20271
900.472	20103
900.591	20016
900.711	20031
900.83	19951
900.95	20199
901.069	20134
901.189	19928
901.308	19685
901.427	19613
901.546	19571
901.665	19571
901.784	19563
901.904	19445
902.023	19400
902.141	19091
902.26	19156
902.379	19285
902.498	19190
902.617	19091
902.735	19114
902.854	19099
902.973	19012
903.091	18840
903.21	18806
903.328	18817
903.446	18741
903.565	18673
903.683	18597
903.801	18521
903.919	18627
904.038	18570
904.156	18281
904.274	18475
904.392	18460
904.51	18334
904.627	18319
904.745	18452
904.863	18407
904.981	18163
905.098	18022
905.216	18136
905.334	18015
905.451	17939
905.569	17996
905.686	18144
905.803	17984
905.921	17874
906.038	17961
906.155	17889
906.272	17687
906.389	17665
906.506	17512
906.623	17532
906.74	17615
906.857	17383
906.974	17410
907.091	17554
907.208	17665
907.324	17627
907.441	17406
907.557	17303
907.674	17242
907.79	17239
907.907	17292
908.023	17284
908.139	17307
908.256	17258
908.372	17162
908.488	17151
908.604	17041
908.72	16972
908.836	17029
908.952	16976
909.068	17014
909.184	17113
909.3	17029
909.415	17117
909.531	16927
909.647	16759
909.762	16664
909.878	16698
909.993	16691
910.108	16653
910.224	16653
910.339	16786
910.454	16672
910.57	16489
910.685	16341
910.8	16755
910.915	16679
911.03	16588
911.145	16306
911.259	16276
911.374	16272
911.489	16169
911.604	16071
911.718	15934
911.833	16025
911.947	15945
912.062	15778
912.176	16055
912.291	16051
912.405	16097
912.519	16238
912.633	16082
912.748	16051
912.862	16036
912.976	15892
913.09	15720
913.204	15785
913.318	15876
913.431	16010
913.545	15880
913.659	15838
913.772	15766
913.886	15720
914	15584
914.113	15720
914.226	15743
914.34	15663
914.453	15523
914.566	15682
914.68	15420
914.793	15526
914.906	15329
915.019	15268
915.132	15218
915.245	15230
915.358	15325
915.47	15344
915.583	15176
915.696	15279
915.809	15306
915.921	15329
916.034	15226
916.146	15154
916.259	15203
916.371	15214
916.483	15199
916.595	15058
916.708	15051
916.82	15070
916.932	15085
917.044	15077
917.156	15047
917.268	14895
917.38	14899
917.491	14876
917.603	14933
917.715	14933
917.826	14990
917.938	14815
918.049	14727
918.161	14819
918.272	14944
918.384	14986
918.495	14925
918.606	14689
918.717	14617
918.828	14686
918.939	14693
919.05	14579
919.161	14537
919.272	14434
919.383	14530
919.494	14663
919.604	14773
919.715	14606
919.826	14568
919.936	14541
920.047	14629
920.157	14640
920.267	14796
920.378	14590
920.488	14564
920.598	14815
920.708	14971
920.818	14731
920.928	14724
921.038	14857
921.148	14853
921.258	14457
921.368	14446
921.477	14336
921.587	14370
921.697	14168
921.806	14336
921.916	14301
922.025	14024
922.134	14058
922.244	13868
922.353	14088
922.462	13864
922.571	13837
922.68	13742
922.789	13597
922.898	13594
923.007	13616
923.116	13670
923.224	13613
923.333	13590
923.442	13480
923.55	13521
923.659	13388
923.767	13559
923.876	13369
923.984	13392
924.092	13331
924.201	13453
924.309	13358
924.417	13293
924.525	13289
924.633	13350
924.741	14092
924.849	13107
924.956	13259
925.064	13103
925.172	12962
925.279	13008
925.387	13164
925.494	13000
925.602	13228
925.709	13088
925.816	12977
925.924	12928
926.031	13065
926.138	13065
926.245	12993
926.352	12966
926.459	13034
926.566	13019
926.673	12954
926.779	12768
926.886	12757
926.993	12555
927.099	12589
927.206	12585
927.312	12616
927.419	12608
927.525	12642
927.631	12612
927.737	12544
927.843	12369
927.95	12334
928.056	12422
928.162	12391
928.267	12464
928.373	13099
928.479	12521
928.585	12308
928.69	12429
928.796	12456
928.901	12334
929.007	12159
929.112	12270
929.218	12304
929.323	12167
929.428	12117
929.533	12178
929.638	12003
929.743	12171
929.848	12209
929.953	12136
930.058	11980
930.163	11824
930.267	11897
930.372	11984
930.477	11786
930.581	12038
930.685	11897
930.79	11615
930.894	11790
930.998	11714
931.103	11836
931.207	11547
931.311	11356
931.415	11337
931.519	11132
931.623	11052
