Data from test_V78500241_154.txt Node
Date: Fri Mar 25 15:10:56 CST 2022
User: usil
Spectrometer: V785-0024
Trigger mode: 0
Integration Time (sec): 4.000000E-1
Scans to average: 1
Nonlinearity correction enabled: false
Boxcar width: 0
Storing dark spectrum: false
XAxis mode: Wavelengths
Number of Pixels in Spectrum: 1024
>>>>>Begin Spectral Data<<<<<
801.071	27937
801.214	27941
801.356	27705
801.499	27644
801.641	27382
801.783	27545
801.926	27618
802.068	27492
802.211	27431
802.353	27325
802.496	27169
802.638	27218
802.78	27081
802.923	27135
803.065	27036
803.208	26971
803.35	27058
803.492	27096
803.635	27161
803.777	27150
803.919	27169
804.061	27507
804.204	27165
804.346	27024
804.488	27108
804.63	27317
804.773	27009
804.915	27195
805.057	27135
805.199	27116
805.341	27294
805.483	27313
805.626	27245
805.768	27077
805.91	27344
806.052	27321
806.194	27214
806.336	27485
806.478	27138
806.62	27199
806.762	27237
806.904	27481
807.046	27736
807.188	27667
807.33	27736
807.472	27682
807.614	27488
807.756	27606
807.898	27511
808.04	27344
808.182	27332
808.324	27450
808.465	27382
808.607	27637
808.749	27724
808.891	27857
809.033	28013
809.174	27850
809.316	27781
809.458	27732
809.6	27793
809.741	27793
809.883	27717
810.025	27979
810.166	27968
810.308	28177
810.45	27930
810.591	28097
810.733	27694
810.875	27739
811.016	27637
811.158	27701
811.299	27717
811.441	27816
811.582	27682
811.724	27717
811.865	27667
812.007	27603
812.148	27705
812.29	27812
812.431	27979
812.573	28044
812.714	28090
812.855	28238
812.997	28371
813.138	28451
813.279	28291
813.421	28242
813.562	28192
813.703	28025
813.845	28021
813.986	27591
814.127	27511
814.268	27325
814.41	27450
814.551	27359
814.692	27405
814.833	27367
814.974	27203
815.115	27359
815.256	27142
815.397	27218
815.539	27066
815.68	27055
815.821	27036
815.962	27089
816.103	27081
816.244	26910
816.385	26868
816.526	26773
816.666	26541
816.807	26507
816.948	26587
817.089	26651
817.23	26583
817.371	26526
817.512	26594
817.653	26503
817.793	26457
817.934	26552
818.075	26537
818.216	26663
818.356	26385
818.497	26393
818.638	26240
818.778	26214
818.919	26317
819.06	26282
819.2	26286
819.341	26427
819.481	26507
819.622	26571
819.762	26739
819.903	26762
820.043	26629
820.184	26503
820.324	26560
820.465	26609
820.605	26511
820.746	26495
820.886	26404
821.026	26492
821.167	26518
821.307	26670
821.447	26419
821.588	26298
821.728	26313
821.868	25951
822.008	25875
822.149	25868
822.289	25887
822.429	25658
822.569	25597
822.709	25548
822.849	25206
822.99	25362
823.13	25312
823.27	25202
823.41	25053
823.55	25050
823.69	25282
823.83	25103
823.97	25110
824.11	24966
824.25	24966
824.389	24935
824.529	24989
824.669	24973
824.809	25061
824.949	25034
825.089	24909
825.228	24966
825.368	24722
825.508	24707
825.648	24661
825.787	24867
825.927	24859
826.067	24787
826.206	24787
826.346	24730
826.485	24783
826.625	24726
826.765	24787
826.904	24760
827.044	24464
827.183	24479
827.323	24330
827.462	24585
827.601	24414
827.741	24540
827.88	24418
828.02	24308
828.159	24414
828.298	24388
828.437	24388
828.577	24338
828.716	24502
828.855	24342
828.994	24148
829.134	24133
829.273	24224
829.412	24041
829.551	24072
829.69	24106
829.829	24136
829.968	24239
830.107	24095
830.246	24155
830.385	24022
830.524	23954
830.663	23863
830.802	23950
830.941	23695
831.08	23707
831.219	23695
831.357	23760
831.496	23912
831.635	23600
831.774	23558
831.913	23615
832.051	23528
832.19	23585
832.329	23501
832.467	23334
832.606	23322
832.744	23170
832.883	23265
833.022	23189
833.16	23200
833.299	23326
833.437	23261
833.576	23490
833.714	23242
833.852	23337
833.991	23406
834.129	23516
834.267	23341
834.406	23280
834.544	23406
834.682	23421
834.821	23227
834.959	23444
835.097	23299
835.235	23383
835.373	23303
835.511	23334
835.65	23124
835.788	23147
835.926	23079
836.064	23044
836.202	22938
836.34	23250
836.478	23216
836.615	23193
836.753	23220
836.891	23261
837.029	23204
837.167	23204
837.305	23014
837.443	23075
837.58	22965
837.718	22957
837.856	23121
837.993	22965
838.131	22999
838.269	22881
838.406	22812
838.544	22957
838.681	22569
838.819	22531
838.956	22466
839.094	22519
839.231	22428
839.369	22561
839.506	22938
839.643	22660
839.781	22478
839.918	22333
840.055	22421
840.193	22329
840.33	22268
840.467	22451
840.604	22379
840.742	22630
840.879	22204
841.016	22333
841.153	22246
841.29	22440
841.427	22421
841.564	22379
841.701	22314
841.838	22246
841.975	22303
842.112	22207
842.249	22226
842.385	21983
842.522	22158
842.659	22029
842.796	22166
842.933	22021
843.069	21991
843.206	21975
843.343	22051
843.479	22036
843.616	21994
843.752	21781
843.889	21751
844.025	21994
844.162	21793
844.298	21956
844.435	21804
844.571	21892
844.708	21846
844.844	21983
844.98	21926
845.117	21956
845.253	21823
845.389	21717
845.525	21751
845.661	21728
845.798	21614
845.934	21568
846.07	21401
846.206	21736
846.342	21686
846.478	21466
846.614	21431
846.75	21249
846.886	21279
847.022	21275
847.158	21256
847.294	21249
847.429	21355
847.565	21233
847.701	21500
847.837	21047
847.972	21047
848.108	21096
848.244	21077
848.379	20834
848.515	20815
848.65	20773
848.786	20868
848.921	20819
849.057	20918
849.192	20956
849.328	20906
849.463	20811
849.598	20857
849.734	20762
849.869	20739
850.004	20587
850.14	20678
850.275	20571
850.41	20473
850.545	20526
850.68	20526
850.815	20621
850.95	20568
851.085	20830
851.22	20731
851.355	20670
851.49	20632
851.625	20541
851.76	20514
851.895	20488
852.03	20465
852.165	20659
852.299	20602
852.434	20659
852.569	20541
852.703	20613
852.838	20682
852.973	20716
853.107	20708
853.242	20541
853.376	20503
853.511	20336
853.645	20305
853.78	20492
853.914	20408
854.048	20427
854.183	20400
854.317	20351
854.451	20583
854.585	20328
854.72	20431
854.854	20503
854.988	20393
855.122	20396
855.256	20206
855.39	20434
855.524	20549
855.658	20511
855.792	20454
855.926	20343
856.06	20484
856.194	20613
856.327	20465
856.461	20336
856.595	20351
856.729	20385
856.862	20533
856.996	20434
857.13	20564
857.263	20431
857.397	20522
857.53	20275
857.664	20507
857.797	20545
857.931	20621
858.064	20377
858.197	20495
858.331	20488
858.464	20347
858.597	20381
858.731	20412
858.864	20400
858.997	20377
859.13	20404
859.263	20313
859.396	20457
859.529	20271
859.662	20298
859.795	20351
859.928	20267
860.061	20442
860.194	20533
860.327	20423
860.46	20309
860.592	20415
860.725	20537
860.858	20552
860.99	20290
861.123	20233
861.256	20385
861.388	20275
861.521	21070
861.653	20244
861.786	20237
861.918	20183
862.05	20313
862.183	20305
862.315	20336
862.447	20366
862.58	20301
862.712	20202
862.844	20111
862.976	20271
863.108	20138
863.24	20374
863.372	20096
863.504	20062
863.636	20069
863.768	20043
863.9	20062
864.032	20020
864.164	19868
864.296	20073
864.428	20142
864.559	19982
864.691	20103
864.823	20050
864.954	20027
865.086	20119
865.217	20035
865.349	19852
865.48	20031
865.612	20024
865.743	20081
865.875	20046
866.006	19925
866.137	20031
866.269	20031
866.4	20020
866.531	20077
866.662	19913
866.793	19833
866.924	19940
867.055	19887
867.186	19902
867.317	19791
867.448	19833
867.579	19837
867.71	19868
867.841	19830
867.972	19898
868.103	19887
868.233	19978
868.364	19856
868.495	19928
868.625	20096
868.756	20172
868.886	20065
869.017	20039
869.147	20199
869.278	20183
869.408	20149
869.539	20126
869.669	20164
869.799	20161
869.929	20347
870.06	20214
870.19	20423
870.32	20389
870.45	20450
870.58	20556
870.71	20564
870.84	20678
870.97	20438
871.1	20602
871.23	20735
871.36	20712
871.489	20530
871.619	20629
871.749	20762
871.879	20739
872.008	20891
872.138	20712
872.267	20705
872.397	20518
872.526	20594
872.656	20571
872.785	20560
872.915	20765
873.044	20777
873.173	20804
873.303	20762
873.432	20754
873.561	20895
873.69	20773
873.819	20674
873.948	20800
874.077	20868
874.206	20735
874.335	20902
874.464	20910
874.593	21047
874.722	20975
874.851	20941
874.979	20971
875.108	21005
875.237	20956
875.365	20883
875.494	20979
875.623	21100
875.751	20971
875.88	21089
876.008	21051
876.136	21150
876.265	21336
876.393	21424
876.521	21420
876.65	21462
876.778	21389
876.906	21389
877.034	21291
877.162	21279
877.29	21317
877.418	21321
877.546	21351
877.674	21363
877.802	21287
877.93	21355
878.058	21332
878.185	21279
878.313	21287
878.441	21332
878.568	21317
878.696	21256
878.824	21325
878.951	21507
879.079	21576
879.206	21644
879.333	21568
879.461	21313
879.588	21447
879.715	21591
879.842	21652
879.97	21545
880.097	21264
880.224	21207
880.351	21287
880.478	21085
880.605	21214
880.732	21116
880.859	21344
880.986	21226
881.112	21188
881.239	20998
881.366	20971
881.493	20792
881.619	20781
881.746	20769
881.872	20792
881.999	20785
882.125	20708
882.252	20792
882.378	20811
882.505	20823
882.631	20663
882.757	20609
882.883	20640
883.01	20594
883.136	20461
883.262	20355
883.388	20351
883.514	20480
883.64	20522
883.766	20488
883.892	20286
884.018	20351
884.143	20355
884.269	20522
884.395	20385
884.52	20119
884.646	20183
884.772	19963
884.897	20054
885.023	20157
885.148	20244
885.274	20313
885.399	20206
885.524	20252
885.65	20138
885.775	20077
885.9	20168
886.025	20240
886.15	20172
886.275	20084
886.4	20043
886.525	20153
886.65	20027
886.775	20130
886.9	20195
887.025	20423
887.149	20126
887.274	20008
887.399	19951
887.523	19940
887.648	19788
887.773	19814
887.897	19978
888.021	19986
888.146	19734
888.27	19997
888.395	20005
888.519	19963
888.643	19925
888.767	19887
888.891	19780
889.015	19632
889.139	19811
889.263	19651
889.387	19769
889.511	19944
889.635	19712
889.759	19753
889.883	19700
890.006	19666
890.13	19826
890.254	19578
890.377	19601
890.501	19464
890.624	19453
890.748	19430
890.871	19392
890.995	19247
891.118	19160
891.241	19324
891.364	19259
891.488	19426
891.611	19308
891.734	19346
891.857	19316
891.98	19282
892.103	19301
892.226	19259
892.349	19213
892.471	19080
892.594	19183
892.717	19301
892.839	19228
892.962	19339
893.085	19209
893.207	19122
893.33	18977
893.452	19129
893.575	19282
893.697	19141
893.819	19312
893.941	19308
894.064	19350
894.186	19137
894.308	19034
894.43	19324
894.552	19422
894.674	19308
894.796	19069
894.918	19183
895.04	19209
895.161	19274
895.283	19202
895.405	19190
895.526	19171
895.648	19152
895.769	19198
895.891	19343
896.012	19221
896.134	19312
896.255	19301
896.376	19244
896.498	19251
896.619	19304
896.74	19346
896.861	19346
896.982	19670
897.103	19696
897.224	19533
897.345	19518
897.466	19365
897.587	19422
897.708	19544
897.828	19438
897.949	19403
898.07	19304
898.19	19430
898.311	19571
898.431	19419
898.552	19373
898.672	19392
898.792	19400
898.913	19502
899.033	19346
899.153	19190
899.273	19171
899.393	19213
899.513	19293
899.633	19335
899.753	19221
899.873	19042
899.993	19217
900.113	19133
900.232	19141
900.352	18973
900.472	19114
900.591	18993
900.711	18943
900.83	18962
900.95	19118
901.069	19099
901.189	19012
901.308	18772
901.427	18589
901.546	18650
901.665	18688
901.784	18589
901.904	18441
902.023	18418
902.141	18087
902.26	18148
902.379	18254
902.498	18133
902.617	17977
902.735	18197
902.854	18015
902.973	17992
903.091	17817
903.21	17775
903.328	17653
903.446	17680
903.565	17558
903.683	17566
903.801	17421
903.919	17524
904.038	17532
904.156	17292
904.274	17448
904.392	17379
904.51	17326
904.627	17383
904.745	17478
904.863	17303
904.981	17170
905.098	17060
905.216	17048
905.334	17098
905.451	17067
905.569	16987
905.686	17113
905.803	16987
905.921	16759
906.038	16949
906.155	16847
906.272	16828
906.389	16679
906.506	16664
906.623	16729
906.74	16519
906.857	16394
906.974	16508
907.091	16584
907.208	16679
907.324	16603
907.441	16462
907.557	16352
907.674	16295
907.79	16219
907.907	16261
908.023	16284
908.139	16185
908.256	16261
908.372	16158
908.488	16150
908.604	15979
908.72	15975
908.836	15953
908.952	15941
909.068	16086
909.184	16135
909.3	16032
909.415	16048
909.531	15975
909.647	15694
909.762	15606
909.878	15580
909.993	15720
910.108	15584
910.224	15622
910.339	15660
910.454	15485
910.57	15477
910.685	15329
910.8	15671
910.915	15660
911.03	15481
911.145	15336
911.259	15249
911.374	15340
911.489	15291
911.604	15104
911.718	15043
911.833	14891
911.947	14910
912.062	14849
912.176	15051
912.291	15013
912.405	14941
912.519	15142
912.633	15154
912.748	14994
912.862	15055
912.976	14807
913.09	14693
913.204	14853
913.318	14750
913.431	14967
913.545	14883
913.659	14944
913.772	14849
913.886	14670
914	14560
914.113	14731
914.226	14705
914.34	14663
914.453	14469
914.566	14579
914.68	14465
914.793	14393
914.906	14332
915.019	14278
915.132	14191
915.245	14282
915.358	14351
915.47	14408
915.583	14259
915.696	14309
915.809	14446
915.921	14438
916.034	14271
916.146	14157
916.259	14111
916.371	14199
916.483	14305
916.595	14092
916.708	14107
916.82	14092
916.932	14031
917.044	14081
917.156	14138
917.268	13978
917.38	14027
917.491	13932
917.603	14005
917.715	13989
917.826	14081
917.938	14027
918.049	13799
918.161	13967
918.272	14016
918.384	14001
918.495	13936
918.606	13769
918.717	13761
918.828	13784
918.939	13742
919.05	13586
919.161	13719
919.272	13506
919.383	13559
919.494	13811
919.604	13909
919.715	13674
919.826	13655
919.936	13761
920.047	13772
920.157	13685
920.267	13898
920.378	13727
920.488	13693
920.598	13925
920.708	13993
920.818	13833
920.928	13818
921.038	14012
921.148	13887
921.258	13685
921.368	13495
921.477	13502
921.587	13400
921.697	13346
921.806	13491
921.916	13270
922.025	13095
922.134	13042
922.244	13023
922.353	13145
922.462	13015
922.571	12894
922.68	12783
922.789	12631
922.898	12856
923.007	12654
923.116	12703
923.224	12776
923.333	12650
923.442	12593
923.55	12517
923.659	12544
923.767	12631
923.876	12513
923.984	12517
924.092	12403
924.201	12509
924.309	12467
924.417	12483
924.525	12441
924.633	12498
924.741	13141
924.849	12235
924.956	12342
925.064	12239
925.172	12087
925.279	12175
925.387	12228
925.494	12232
925.602	12304
925.709	12243
925.816	12091
925.924	12163
926.031	12292
926.138	12197
926.245	12121
926.352	12091
926.459	12117
926.566	12194
926.673	12129
926.779	11935
926.886	11965
926.993	11847
927.099	11855
927.206	11676
927.312	11676
927.419	11741
927.525	11794
927.631	11824
927.737	11630
927.843	11611
927.95	11524
928.056	11657
928.162	11589
928.267	11600
928.373	12190
928.479	11680
928.585	11490
928.69	11459
928.796	11592
928.901	11490
929.007	11326
929.112	11505
929.218	11505
929.323	11372
929.428	11429
929.533	11501
929.638	11284
929.743	11334
929.848	11372
929.953	11269
930.058	11258
930.163	11022
930.267	11140
930.372	11151
930.477	10999
930.581	11246
930.685	11155
930.79	10927
930.894	10961
930.998	10911
931.103	11037
931.207	10653
931.311	10660
931.415	10531
931.519	10360
931.623	10424
