Data from test_V78500241_3326.txt Node
Date: Fri Mar 25 15:33:01 CST 2022
User: usil
Spectrometer: V785-0024
Trigger mode: 0
Integration Time (sec): 4.000000E-1
Scans to average: 1
Nonlinearity correction enabled: false
Boxcar width: 0
Storing dark spectrum: false
XAxis mode: Wavelengths
Number of Pixels in Spectrum: 1024
>>>>>Begin Spectral Data<<<<<
801.071	27294
801.214	27306
801.356	26994
801.499	27051
801.641	26895
801.783	26762
801.926	26891
802.068	26796
802.211	26648
802.353	26769
802.496	26606
802.638	26499
802.78	26377
802.923	26298
803.065	26336
803.208	26351
803.35	26537
803.492	26674
803.635	26629
803.777	26423
803.919	26602
804.061	27089
804.204	26735
804.346	26644
804.488	26469
804.63	26739
804.773	26602
804.915	26636
805.057	26682
805.199	26507
805.341	26476
805.483	26899
805.626	26887
805.768	26621
805.91	26769
806.052	26807
806.194	26823
806.336	26861
806.478	26697
806.62	26754
806.762	26933
806.904	26937
807.046	27188
807.188	27150
807.33	27218
807.472	27096
807.614	26990
807.756	27100
807.898	26925
808.04	26887
808.182	26979
808.324	26914
808.465	27032
808.607	27138
808.749	27241
808.891	27496
809.033	27473
809.174	27538
809.316	27214
809.458	27291
809.6	27317
809.741	27420
809.883	27511
810.025	27511
810.166	27561
810.308	27545
810.45	27580
810.591	27629
810.733	27363
810.875	27401
811.016	27256
811.158	27272
811.299	27374
811.441	27473
811.582	27389
811.724	27317
811.865	27321
812.007	27275
812.148	27469
812.29	27283
812.431	27386
812.573	27603
812.714	27690
812.855	27739
812.997	27937
813.138	28055
813.279	27865
813.421	27835
813.562	27728
813.703	27568
813.845	27549
813.986	27279
814.127	27127
814.268	27051
814.41	26929
814.551	26910
814.692	27051
814.833	26861
814.974	27001
815.115	26971
815.256	26872
815.397	26842
815.539	26971
815.68	26640
815.821	26670
815.962	26720
816.103	26708
816.244	26686
816.385	26556
816.526	26590
816.666	26480
816.807	26221
816.948	26328
817.089	26374
817.23	26259
817.371	26233
817.512	26161
817.653	26225
817.793	26183
817.934	26237
818.075	26206
818.216	26294
818.356	26317
818.497	26157
818.638	26065
818.778	26005
818.919	25936
819.06	25974
819.2	26092
819.341	26103
819.481	26233
819.622	26396
819.762	26434
819.903	26511
820.043	26457
820.184	26400
820.324	26358
820.465	26575
820.605	26393
820.746	26377
820.886	26453
821.026	26256
821.167	26214
821.307	26339
821.447	26278
821.588	26210
821.728	26115
821.868	25833
822.008	25852
822.149	25788
822.289	25670
822.429	25502
822.569	25335
822.709	25365
822.849	25175
822.99	25282
823.13	25263
823.27	25297
823.41	24981
823.55	24856
823.69	25107
823.83	24947
823.97	24985
824.11	24821
824.25	24882
824.389	24951
824.529	25004
824.669	24939
824.809	24943
824.949	24977
825.089	24966
825.228	24932
825.368	24753
825.508	24616
825.648	24757
825.787	24719
825.927	24650
826.067	24589
826.206	24722
826.346	24909
826.485	24829
826.625	24760
826.765	24901
826.904	24692
827.044	24585
827.183	24494
827.323	24494
827.462	24502
827.601	24433
827.741	24536
827.88	24456
828.02	24357
828.159	24388
828.298	24471
828.437	24608
828.577	24418
828.716	24555
828.855	24369
828.994	24174
829.134	24182
829.273	24159
829.412	24178
829.551	24095
829.69	24140
829.829	24258
829.968	24399
830.107	24273
830.246	24273
830.385	24140
830.524	24015
830.663	24003
830.802	23935
830.941	23813
831.08	23798
831.219	23794
831.357	23771
831.496	23904
831.635	23767
831.774	23661
831.913	23703
832.051	23516
832.19	23490
832.329	23509
832.467	23509
832.606	23360
832.744	23376
832.883	23429
833.022	23467
833.16	23520
833.299	23474
833.437	23455
833.576	23577
833.714	23531
833.852	23509
833.991	23566
834.129	23604
834.267	23589
834.406	23471
834.544	23524
834.682	23623
834.821	23520
834.959	23741
835.097	23360
835.235	23516
835.373	23570
835.511	23440
835.65	23391
835.788	23417
835.926	23265
836.064	23239
836.202	23296
836.34	23429
836.478	23440
836.615	23235
836.753	23379
836.891	23303
837.029	23334
837.167	23383
837.305	23258
837.443	23227
837.58	23231
837.718	23318
837.856	23079
837.993	23239
838.131	23216
838.269	23128
838.406	23090
838.544	22965
838.681	23029
838.819	22923
838.956	22603
839.094	22706
839.231	22835
839.369	22984
839.506	23189
839.643	23086
839.781	22679
839.918	22660
840.055	22687
840.193	22740
840.33	22634
840.467	22668
840.604	22706
840.742	22923
840.879	22622
841.016	22512
841.153	22561
841.29	22771
841.427	22538
841.564	22557
841.701	22626
841.838	22580
841.975	22611
842.112	22664
842.249	22413
842.385	22382
842.522	22679
842.659	22573
842.796	22371
842.933	22436
843.069	22325
843.206	22265
843.343	22493
843.479	22413
843.616	22417
843.752	22173
843.889	22295
844.025	22310
844.162	22154
844.298	22196
844.435	22177
844.571	22185
844.708	22226
844.844	22341
844.98	22219
845.117	22253
845.253	22215
845.389	22017
845.525	22093
845.661	22021
845.798	21907
845.934	22078
846.07	21880
846.206	21911
846.342	22051
846.478	21956
846.614	21728
846.75	21667
846.886	21618
847.022	21663
847.158	21652
847.294	21804
847.429	21671
847.565	21698
847.701	21994
847.837	21428
847.972	21336
848.108	21450
848.244	21458
848.379	21294
848.515	21329
848.65	21146
848.786	21165
848.921	21367
849.057	21264
849.192	21344
849.328	21294
849.463	21408
849.598	21199
849.734	21203
849.869	21131
850.004	20941
850.14	20982
850.275	21017
850.41	20986
850.545	20838
850.68	20887
850.815	20994
850.95	21032
851.085	21146
851.22	21264
851.355	21032
851.49	20941
851.625	20857
851.76	20910
851.895	20883
852.03	20925
852.165	20941
852.299	21036
852.434	21066
852.569	21013
852.703	20895
852.838	20986
852.973	21142
853.107	21112
853.242	20998
853.376	20899
853.511	20777
853.645	20792
853.78	20872
853.914	20830
854.048	20796
854.183	20777
854.317	20804
854.451	21051
854.585	20788
854.72	20853
854.854	20990
854.988	20701
855.122	20804
855.256	20800
855.39	20800
855.524	20906
855.658	20705
855.792	20823
855.926	20838
856.06	20842
856.194	20807
856.327	20727
856.461	20705
856.595	20720
856.729	20788
856.862	20975
856.996	20857
857.13	20807
857.263	20910
857.397	21036
857.53	20758
857.664	20883
857.797	20956
857.931	21009
858.064	20838
858.197	20891
858.331	20750
858.464	20735
858.597	20670
858.731	20819
858.864	20887
858.997	20781
859.13	20758
859.263	20849
859.396	20880
859.529	20769
859.662	20895
859.795	20785
859.928	20792
860.061	21013
860.194	21009
860.327	20807
860.46	20743
860.592	21066
860.725	20979
860.858	20956
860.99	20842
861.123	20724
861.256	20712
861.388	20815
861.521	21561
861.653	20750
861.786	20823
861.918	20667
862.05	20716
862.183	20712
862.315	20826
862.447	20963
862.58	20800
862.712	20457
862.844	20583
862.976	20587
863.108	20598
863.24	21116
863.372	20495
863.504	20583
863.636	20594
863.768	20594
863.9	20461
864.032	20465
864.164	20442
864.296	20549
864.428	20590
864.559	20644
864.691	20632
864.823	20484
864.954	20598
865.086	20419
865.217	20423
865.349	20358
865.48	20404
865.612	20442
865.743	20560
865.875	20503
866.006	20457
866.137	20552
866.269	20545
866.4	20518
866.531	20385
866.662	20298
866.793	20343
866.924	20431
867.055	20419
867.186	20446
867.317	20377
867.448	20328
867.579	20225
867.71	20339
867.841	20347
867.972	20336
868.103	20385
868.233	20408
868.364	20324
868.495	20530
868.625	20629
868.756	20655
868.886	20541
869.017	20606
869.147	20697
869.278	20735
869.408	20667
869.539	20583
869.669	20705
869.799	20648
869.929	20769
870.06	20609
870.19	20914
870.32	20929
870.45	21058
870.58	20899
870.71	21127
870.84	21123
870.97	20925
871.1	21055
871.23	21245
871.36	21264
871.489	21195
871.619	21192
871.749	21192
871.879	21237
872.008	21348
872.138	21294
872.267	21199
872.397	21005
872.526	21085
872.656	21062
872.785	20952
872.915	21184
873.044	21310
873.173	21321
873.303	21241
873.432	21321
873.561	21237
873.69	21211
873.819	21332
873.948	21340
874.077	21180
874.206	21192
874.335	21180
874.464	21332
874.593	21530
874.722	21435
874.851	21469
874.979	21595
875.108	21507
875.237	21481
875.365	21401
875.494	21481
875.623	21538
875.751	21424
875.88	21603
876.008	21576
876.136	21694
876.265	21975
876.393	21953
876.521	21964
876.65	22010
876.778	21945
876.906	21930
877.034	21846
877.162	21903
877.29	21774
877.418	21819
877.546	21903
877.674	21774
877.802	21892
877.93	21850
878.058	21892
878.185	21648
878.313	21812
878.441	21934
878.568	21633
878.696	21785
878.824	21899
878.951	21911
879.079	22135
879.206	22120
879.333	21968
879.461	21918
879.588	21876
879.715	21975
879.842	22086
879.97	21945
880.097	21739
880.224	21583
880.351	21679
880.478	21641
880.605	21652
880.732	21762
880.859	21888
880.986	21686
881.112	21762
881.239	21504
881.366	21523
881.493	21382
881.619	21260
881.746	21203
881.872	21211
881.999	21211
882.125	21287
882.252	21268
882.378	21203
882.505	21272
882.631	21169
882.757	20975
882.883	21020
883.01	20963
883.136	20921
883.262	20777
883.388	20838
883.514	21020
883.64	20990
883.766	20815
883.892	20750
884.018	20792
884.143	20845
884.269	20868
884.395	20667
884.52	20465
884.646	20670
884.772	20602
884.897	20617
885.023	20629
885.148	20762
885.274	20861
885.399	20724
885.524	20549
885.65	20617
885.775	20632
885.9	20552
886.025	20667
886.15	20617
886.275	20530
886.4	20568
886.525	20560
886.65	20556
886.775	20556
886.9	20697
887.025	20861
887.149	20530
887.274	20400
887.399	20305
887.523	20275
887.648	20389
887.773	20339
887.897	20476
888.021	20476
888.146	20309
888.27	20499
888.395	20507
888.519	20511
888.643	20355
888.767	20362
888.891	20263
889.015	20176
889.139	20286
889.263	20161
889.387	20240
889.511	20370
889.635	20366
889.759	20275
889.883	20202
890.006	20142
890.13	20195
890.254	20107
890.377	20043
890.501	19967
890.624	20020
890.748	20058
890.871	19890
890.995	19761
891.118	19704
891.241	19772
891.364	19803
891.488	19928
891.611	19772
891.734	19750
891.857	19841
891.98	19757
892.103	19769
892.226	19811
892.349	19734
892.471	19502
892.594	19651
892.717	19647
892.839	19616
892.962	19582
893.085	19693
893.207	19655
893.33	19529
893.452	19514
893.575	19708
893.697	19689
893.819	19807
893.941	19898
894.064	19826
894.186	19567
894.308	19533
894.43	19731
894.552	19830
894.674	19772
894.796	19605
894.918	19601
895.04	19586
895.161	19704
895.283	19723
895.405	19582
895.526	19723
895.648	19704
895.769	19700
895.891	19624
896.012	19750
896.134	19772
896.255	19734
896.376	19731
896.498	19609
896.619	19712
896.74	19696
896.861	19643
896.982	19989
897.103	20088
897.224	19898
897.345	19928
897.466	19765
897.587	19978
897.708	20016
897.828	19909
897.949	19818
898.07	19753
898.19	19909
898.311	20043
898.431	19909
898.552	19830
898.672	19807
898.792	19947
898.913	19944
899.033	19845
899.153	19677
899.273	19643
899.393	19590
899.513	19761
899.633	19628
899.753	19822
899.873	19658
899.993	19700
900.113	19544
900.232	19658
900.352	19632
900.472	19468
900.591	19476
900.711	19548
900.83	19335
900.95	19537
901.069	19434
901.189	19312
901.308	19103
901.427	19072
901.546	18962
901.665	19057
901.784	18989
901.904	18924
902.023	18840
902.141	18623
902.26	18490
902.379	18700
902.498	18483
902.617	18479
902.735	18532
902.854	18559
902.973	18429
903.091	18213
903.21	18220
903.328	18178
903.446	18163
903.565	18045
903.683	18159
903.801	17977
903.919	18060
904.038	18045
904.156	17866
904.274	17912
904.392	17832
904.51	17786
904.627	17783
904.745	17821
904.863	17756
904.981	17646
905.098	17455
905.216	17444
905.334	17455
905.451	17501
905.569	17337
905.686	17524
905.803	17463
905.921	17151
906.038	17372
906.155	17212
906.272	17239
906.389	17227
906.506	16915
906.623	17052
906.74	17022
906.857	16961
906.974	16915
907.091	17041
907.208	17079
907.324	17052
907.441	16980
907.557	16721
907.674	16744
907.79	16634
907.907	16683
908.023	16828
908.139	16809
908.256	16679
908.372	16603
908.488	16565
908.604	16390
908.72	16318
908.836	16596
908.952	16478
909.068	16432
909.184	16558
909.3	16523
909.415	16512
909.531	16424
909.647	16238
909.762	16181
909.878	16154
909.993	16223
910.108	16223
910.224	16059
910.339	16166
910.454	15983
910.57	15956
910.685	15873
910.8	16226
910.915	16048
911.03	16120
911.145	15869
911.259	15789
911.374	15823
911.489	15743
911.604	15701
911.718	15473
911.833	15515
911.947	15450
912.062	15310
912.176	15530
912.291	15492
912.405	15580
912.519	15652
912.633	15682
912.748	15526
912.862	15469
912.976	15374
913.09	15214
913.204	15211
913.318	15283
913.431	15496
913.545	15515
913.659	15435
913.772	15302
913.886	15211
914	15214
914.113	15211
914.226	15306
914.34	15222
914.453	15058
914.566	15093
914.68	14941
914.793	15097
914.906	14853
915.019	14750
915.132	14590
915.245	14777
915.358	14731
915.47	14891
915.583	14708
915.696	14727
915.809	14845
915.921	14876
916.034	14678
916.146	14629
916.259	14678
916.371	14693
916.483	14705
916.595	14617
916.708	14625
916.82	14583
916.932	14564
917.044	14602
917.156	14514
917.268	14336
917.38	14484
917.491	14336
917.603	14412
917.715	14461
917.826	14511
917.938	14423
918.049	14282
918.161	14381
918.272	14537
918.384	14484
918.495	14358
918.606	14218
918.717	14081
918.828	14256
918.939	14176
919.05	14107
919.161	14210
919.272	13917
919.383	13967
919.494	14275
919.604	14396
919.715	14153
919.826	13959
919.936	14187
920.047	14210
920.157	14183
920.267	14256
920.378	14199
920.488	14103
920.598	14298
920.708	14408
920.818	14225
920.928	14229
921.038	14495
921.148	14442
921.258	14111
921.368	13947
921.477	13917
921.587	13894
921.697	13791
921.806	13890
921.916	13811
922.025	13533
922.134	13582
922.244	13552
922.353	13609
922.462	13518
922.571	13419
922.68	13251
922.789	13282
922.898	13244
923.007	13110
923.116	13232
923.224	13171
923.333	13175
923.442	13114
923.55	13019
923.659	13034
923.767	13175
923.876	13061
923.984	13031
924.092	12954
924.201	12954
924.309	13050
924.417	12924
924.525	12875
924.633	12840
924.741	13803
924.849	12650
924.956	12764
925.064	12597
925.172	12429
925.279	12662
925.387	12639
925.494	12684
925.602	12700
925.709	12730
925.816	12566
925.924	12574
926.031	12650
926.138	12517
926.245	12639
926.352	12384
926.459	12566
926.566	12711
926.673	12555
926.779	12422
926.886	12350
926.993	12289
927.099	12315
927.206	12216
927.312	12144
927.419	12266
927.525	12251
927.631	12285
927.737	12152
927.843	12178
927.95	11901
928.056	12091
928.162	12049
928.267	12095
928.373	12555
928.479	12163
928.585	11885
928.69	11984
928.796	12038
928.901	11923
929.007	11733
929.112	11882
929.218	11851
929.323	11775
929.428	11710
929.533	11878
929.638	11684
929.743	11779
929.848	11760
929.953	11726
930.058	11619
930.163	11452
930.267	11516
930.372	11589
930.477	11383
930.581	11615
930.685	11520
930.79	11330
930.894	11315
930.998	11288
931.103	11520
931.207	11079
931.311	11045
931.415	10984
931.519	10706
931.623	10790
