Data from test_V78500241_1585.txt Node
Date: Fri Mar 25 15:20:53 CST 2022
User: usil
Spectrometer: V785-0024
Trigger mode: 0
Integration Time (sec): 4.000000E-1
Scans to average: 1
Nonlinearity correction enabled: false
Boxcar width: 0
Storing dark spectrum: false
XAxis mode: Wavelengths
Number of Pixels in Spectrum: 1024
>>>>>Begin Spectral Data<<<<<
801.071	27907
801.214	27736
801.356	27523
801.499	27416
801.641	27393
801.783	27370
801.926	27447
802.068	27344
802.211	27302
802.353	27466
802.496	27135
802.638	27093
802.78	27032
802.923	27119
803.065	26960
803.208	27070
803.35	27001
803.492	27150
803.635	27306
803.777	27119
803.919	27268
804.061	27534
804.204	27306
804.346	27207
804.488	27218
804.63	27370
804.773	27188
804.915	27237
805.057	27408
805.199	27241
805.341	27169
805.483	27386
805.626	27458
805.768	27367
805.91	27359
806.052	27481
806.194	27230
806.336	27583
806.478	27317
806.62	27340
806.762	27393
806.904	27576
807.046	27873
807.188	27698
807.33	27701
807.472	27888
807.614	27747
807.756	27724
807.898	27576
808.04	27648
808.182	27759
808.324	27770
808.465	27709
808.607	27907
808.749	28074
808.891	28265
809.033	28192
809.174	28185
809.316	28002
809.458	27934
809.6	27918
809.741	28112
809.883	28097
810.025	28337
810.166	28356
810.308	28451
810.45	28375
810.591	28276
810.733	28196
810.875	27937
811.016	27785
811.158	27979
811.299	27903
811.441	28166
811.582	28143
811.724	28070
811.865	27991
812.007	27960
812.148	27953
812.29	28051
812.431	28280
812.573	28318
812.714	28432
812.855	28504
812.997	28626
813.138	28793
813.279	28767
813.421	28557
813.562	28386
813.703	28421
813.845	28215
813.986	27998
814.127	27854
814.268	27739
814.41	27774
814.551	27701
814.692	27838
814.833	27458
814.974	27789
815.115	27785
815.256	27587
815.397	27694
815.539	27538
815.68	27538
815.821	27515
815.962	27519
816.103	27542
816.244	27401
816.385	27313
816.526	27249
816.666	27028
816.807	27146
816.948	27070
817.089	27089
817.23	27066
817.371	26910
817.512	27039
817.653	27036
817.793	26861
817.934	27032
818.075	26960
818.216	26971
818.356	26967
818.497	26804
818.638	26739
818.778	26823
818.919	26834
819.06	26872
819.2	26948
819.341	26960
819.481	26918
819.622	27256
819.762	27420
819.903	27249
820.043	27233
820.184	27332
820.324	27093
820.465	27195
820.605	27135
820.746	27188
820.886	26963
821.026	27127
821.167	27039
821.307	27154
821.447	27093
821.588	26937
821.728	26918
821.868	26724
822.008	26484
822.149	26568
822.289	26632
822.429	26195
822.569	26073
822.709	26119
822.849	25936
822.99	25997
823.13	26039
823.27	25871
823.41	25784
823.55	25666
823.69	25966
823.83	25784
823.97	25746
824.11	25479
824.25	25487
824.389	25632
824.529	25761
824.669	25693
824.809	25803
824.949	25704
825.089	25693
825.228	25712
825.368	25453
825.508	25415
825.648	25548
825.787	25479
825.927	25540
826.067	25457
826.206	25441
826.346	25502
826.485	25502
826.625	25438
826.765	25708
826.904	25582
827.044	25373
827.183	25316
827.323	25217
827.462	25327
827.601	25331
827.741	25148
827.88	25251
828.02	25046
828.159	25304
828.298	25126
828.437	25369
828.577	25213
828.716	25335
828.855	25114
828.994	24977
829.134	25004
829.273	25050
829.412	24878
829.551	24932
829.69	24897
829.829	24848
829.968	25042
830.107	25103
830.246	24871
830.385	24859
830.524	24932
830.663	24764
830.802	24688
830.941	24574
831.08	24513
831.219	24715
831.357	24623
831.496	24700
831.635	24608
831.774	24426
831.913	24532
832.051	24395
832.19	24304
832.329	24232
832.467	24148
832.606	24327
832.744	24239
832.883	24114
833.022	24296
833.16	24281
833.299	24277
833.437	24235
833.576	24456
833.714	24334
833.852	24380
833.991	24292
834.129	24410
834.267	24410
834.406	24258
834.544	24456
834.682	24342
834.821	24178
834.959	24555
835.097	24270
835.235	24350
835.373	24232
835.511	24232
835.65	24133
835.788	24224
835.926	24087
836.064	23901
836.202	23954
836.34	24273
836.478	24186
836.615	24022
836.753	24171
836.891	24163
837.029	24011
837.167	23999
837.305	24041
837.443	24038
837.58	23977
837.718	24121
837.856	23988
837.993	23859
838.131	23939
838.269	23950
838.406	23843
838.544	23813
838.681	23695
838.819	23592
838.956	23516
839.094	23459
839.231	23417
839.369	23646
839.506	23885
839.643	23691
839.781	23391
839.918	23429
840.055	23501
840.193	23497
840.33	23383
840.467	23372
840.604	23440
840.742	23608
840.879	23204
841.016	23269
841.153	23299
841.29	23330
841.427	23356
841.564	23383
841.701	23227
841.838	23303
841.975	23299
842.112	23124
842.249	23086
842.385	23010
842.522	23246
842.659	23140
842.796	22930
842.933	23159
843.069	23178
843.206	22976
843.343	23239
843.479	23155
843.616	23090
843.752	22949
843.889	22976
844.025	22942
844.162	22877
844.298	22904
844.435	22778
844.571	22816
844.708	22858
844.844	22885
844.98	22934
845.117	22930
845.253	22824
845.389	22752
845.525	22790
845.661	22672
845.798	22527
845.934	22607
846.07	22588
846.206	22630
846.342	22603
846.478	22527
846.614	22580
846.75	22284
846.886	22310
847.022	22390
847.158	22299
847.294	22268
847.429	22299
847.565	22291
847.701	22626
847.837	22086
847.972	22013
848.108	22093
848.244	22120
848.379	22051
848.515	21873
848.65	21953
848.786	21953
848.921	21968
849.057	22059
849.192	21956
849.328	21998
849.463	21968
849.598	21888
849.734	21800
849.869	21838
850.004	21648
850.14	21549
850.275	21701
850.41	21823
850.545	21686
850.68	21709
850.815	21686
850.95	21679
851.085	21918
851.22	21804
851.355	21690
851.49	21572
851.625	21675
851.76	21549
851.895	21561
852.03	21633
852.165	21618
852.299	21736
852.434	21785
852.569	21732
852.703	21717
852.838	21603
852.973	21854
853.107	21846
853.242	21526
853.376	21679
853.511	21389
853.645	21530
853.78	21557
853.914	21420
854.048	21412
854.183	21557
854.317	21618
854.451	21663
854.585	21538
854.72	21515
854.854	21606
854.988	21389
855.122	21485
855.256	21393
855.39	21416
855.524	21572
855.658	21610
855.792	21549
855.926	21534
856.06	21507
856.194	21603
856.327	21511
856.461	21431
856.595	21431
856.729	21428
856.862	21595
856.996	21553
857.13	21568
857.263	21682
857.397	21663
857.53	21408
857.664	21504
857.797	21663
857.931	21648
858.064	21500
858.197	21625
858.331	21583
858.464	21332
858.597	21302
858.731	21355
858.864	21500
858.997	21424
859.13	21671
859.263	21625
859.396	21523
859.529	21428
859.662	21393
859.795	21504
859.928	21568
860.061	21701
860.194	21797
860.327	21542
860.46	21397
860.592	21534
860.725	21675
860.858	21625
860.99	21549
861.123	21473
861.256	21545
861.388	21492
861.521	22181
861.653	21439
861.786	21367
861.918	21336
862.05	21355
862.183	21450
862.315	21401
862.447	21523
862.58	21454
862.712	21249
862.844	21112
862.976	21291
863.108	21348
863.24	21595
863.372	21294
863.504	21256
863.636	21154
863.768	21279
863.9	21279
864.032	21184
864.164	21233
864.296	21245
864.428	21321
864.559	21272
864.691	21386
864.823	21154
864.954	21222
865.086	21165
865.217	21207
865.349	21036
865.48	21100
865.612	21036
865.743	21275
865.875	21085
866.006	21146
866.137	21051
866.269	21218
866.4	20956
866.531	20967
866.662	21039
866.793	21001
866.924	21013
867.055	21032
867.186	21138
867.317	20956
867.448	21036
867.579	20971
867.71	21036
867.841	21058
867.972	21131
868.103	21036
868.233	21051
868.364	21089
868.495	21058
868.625	21142
868.756	21355
868.886	21154
869.017	21230
869.147	21249
869.278	21439
869.408	21321
869.539	21298
869.669	21351
869.799	21435
869.929	21431
870.06	21348
870.19	21606
870.32	21538
870.45	21660
870.58	21583
870.71	21705
870.84	21854
870.97	21595
871.1	21656
871.23	22032
871.36	21785
871.489	21720
871.619	21869
871.749	21800
871.879	21880
872.008	21972
872.138	21819
872.267	21972
872.397	21816
872.526	21549
872.656	21751
872.785	21755
872.915	21930
873.044	22013
873.173	21759
873.303	21918
873.432	21964
873.561	21876
873.69	21956
873.819	21835
873.948	21953
874.077	21918
874.206	21926
874.335	21857
874.464	21865
874.593	22051
874.722	22078
874.851	22135
874.979	22147
875.108	22211
875.237	22109
875.365	22082
875.494	22040
875.623	22078
875.751	22074
875.88	22177
876.008	22158
876.136	22333
876.265	22405
876.393	22596
876.521	22569
876.65	22508
876.778	22398
876.906	22451
877.034	22447
877.162	22512
877.29	22470
877.418	22443
877.546	22462
877.674	22440
877.802	22512
877.93	22485
878.058	22360
878.185	22325
878.313	22390
878.441	22447
878.568	22284
878.696	22394
878.824	22363
878.951	22516
879.079	22607
879.206	22710
879.333	22634
879.461	22527
879.588	22519
879.715	22626
879.842	22691
879.97	22504
880.097	22284
880.224	22329
880.351	22310
880.478	22314
880.605	22242
880.732	22265
880.859	22630
880.986	22325
881.112	22405
881.239	22128
881.366	22013
881.493	21998
881.619	21831
881.746	21934
881.872	21842
881.999	21781
882.125	21663
882.252	21850
882.378	21816
882.505	21892
882.631	21724
882.757	21454
882.883	21568
883.01	21648
883.136	21572
883.262	21408
883.388	21389
883.514	21523
883.64	21515
883.766	21523
883.892	21313
884.018	21408
884.143	21386
884.269	21408
884.395	21173
884.52	21192
884.646	21184
884.772	21127
884.897	21055
885.023	21173
885.148	21283
885.274	21249
885.399	21367
885.524	21146
885.65	21173
885.775	21256
885.9	21100
886.025	21237
886.15	21291
886.275	21135
886.4	21039
886.525	21055
886.65	21184
886.775	21051
886.9	21386
887.025	21374
887.149	21188
887.274	20925
887.399	20899
887.523	20971
887.648	20883
887.773	20788
887.897	20941
888.021	20990
888.146	20986
888.27	20952
888.395	20982
888.519	20971
888.643	21077
888.767	20944
888.891	20708
889.015	20834
889.139	20830
889.263	20720
889.387	20826
889.511	20952
889.635	20872
889.759	20765
889.883	20697
890.006	20705
890.13	20762
890.254	20689
890.377	20667
890.501	20571
890.624	20598
890.748	20587
890.871	20339
890.995	20294
891.118	20221
891.241	20438
891.364	20446
891.488	20450
891.611	20351
891.734	20298
891.857	20434
891.98	20301
892.103	20465
892.226	20313
892.349	20161
892.471	20020
892.594	20214
892.717	20259
892.839	20294
892.962	20119
893.085	20240
893.207	20187
893.33	20046
893.452	20100
893.575	20301
893.697	20142
893.819	20336
893.941	20480
894.064	20339
894.186	20206
894.308	20161
894.43	20320
894.552	20336
894.674	20267
894.796	20107
894.918	20237
895.04	20073
895.161	20164
895.283	20210
895.405	20168
895.526	20130
895.648	20039
895.769	20313
895.891	20301
896.012	20191
896.134	20278
896.255	20161
896.376	20176
896.498	20225
896.619	20317
896.74	20183
896.861	20282
896.982	20514
897.103	20533
897.224	20514
897.345	20389
897.466	20389
897.587	20370
897.708	20469
897.828	20648
897.949	20252
898.07	20244
898.19	20393
898.311	20396
898.431	20434
898.552	20355
898.672	20522
898.792	20492
898.913	20343
899.033	20336
899.153	20275
899.273	20020
899.393	20145
899.513	20210
899.633	20168
899.753	20153
899.873	20096
899.993	20202
900.113	20092
900.232	20130
900.352	20130
900.472	20020
900.591	19883
900.711	20001
900.83	19875
900.95	20016
901.069	19955
901.189	19742
901.308	19537
901.427	19518
901.546	19529
901.665	19563
901.784	19559
901.904	19468
902.023	19320
902.141	19141
902.26	18962
902.379	19145
902.498	19057
902.617	18966
902.735	19061
902.854	18993
902.973	19076
903.091	18833
903.21	18639
903.328	18707
903.446	18639
903.565	18578
903.683	18547
903.801	18391
903.919	18437
904.038	18376
904.156	18319
904.274	18445
904.392	18266
904.51	18220
904.627	18372
904.745	18350
904.863	18391
904.981	18106
905.098	17984
905.216	17992
905.334	18049
905.451	17912
905.569	17935
905.686	18087
905.803	17912
905.921	17771
906.038	17863
906.155	17718
906.272	17630
906.389	17687
906.506	17566
906.623	17581
906.74	17501
906.857	17368
906.974	17421
907.091	17577
907.208	17600
907.324	17562
907.441	17364
907.557	17227
907.674	17318
907.79	17166
907.907	17136
908.023	17318
908.139	17197
908.256	17216
908.372	17159
908.488	17132
908.604	16995
908.72	16908
908.836	16915
908.952	16919
909.068	16904
909.184	17086
909.3	16908
909.415	17006
909.531	16889
909.647	16721
909.762	16649
909.878	16580
909.993	16710
910.108	16656
910.224	16558
910.339	16599
910.454	16550
910.57	16493
910.685	16421
910.8	16675
910.915	16615
911.03	16504
911.145	16322
911.259	16352
911.374	16246
911.489	16192
911.604	16185
911.718	16082
911.833	15926
911.947	15918
912.062	15789
912.176	15987
912.291	15983
912.405	15854
912.519	16105
912.633	16109
912.748	16051
912.862	15930
912.976	15892
913.09	15675
913.204	15785
913.318	15682
913.431	15888
913.545	15823
913.659	15983
913.772	15759
913.886	15633
914	15606
914.113	15591
914.226	15728
914.34	15637
914.453	15500
914.566	15622
914.68	15492
914.793	15462
914.906	15332
915.019	15252
915.132	15184
915.245	15233
915.358	15260
915.47	15203
915.583	15207
915.696	15203
915.809	15332
915.921	15405
916.034	15108
916.146	15104
916.259	15135
916.371	15173
916.483	15123
916.595	15013
916.708	15066
916.82	15032
916.932	14952
917.044	14979
917.156	14921
917.268	14868
917.38	14872
917.491	14906
917.603	14804
917.715	14929
917.826	14864
917.938	14857
918.049	14655
918.161	14804
918.272	14925
918.384	14883
918.495	14849
918.606	14621
918.717	14571
918.828	14629
918.939	14678
919.05	14556
919.161	14522
919.272	14343
919.383	14438
919.494	14606
919.604	14796
919.715	14621
919.826	14556
919.936	14511
920.047	14625
920.157	14579
920.267	14750
920.378	14579
920.488	14549
920.598	14788
920.708	14910
920.818	14655
920.928	14682
921.038	14887
921.148	14743
921.258	14583
921.368	14427
921.477	14385
921.587	14370
921.697	14244
921.806	14347
921.916	14191
922.025	13978
922.134	13967
922.244	13807
922.353	13974
922.462	13921
922.571	13769
922.68	13696
922.789	13651
922.898	13632
923.007	13441
923.116	13601
923.224	13571
923.333	13537
923.442	13506
923.55	13449
923.659	13438
923.767	13563
923.876	13331
923.984	13457
924.092	13297
924.201	13373
924.309	13266
924.417	13320
924.525	13251
924.633	13335
924.741	14172
924.849	13061
924.956	13244
925.064	13031
925.172	12958
925.279	13072
925.387	13080
925.494	13050
925.602	13156
925.709	13053
925.816	12871
925.924	12973
926.031	13103
926.138	12958
926.245	12954
926.352	12817
926.459	12954
926.566	12939
926.673	12916
926.779	12734
926.886	12741
926.993	12532
927.099	12612
927.206	12551
927.312	12536
927.419	12612
927.525	12589
927.631	12589
927.737	12426
927.843	12338
927.95	12330
928.056	12361
928.162	12346
928.267	12460
928.373	13015
928.479	12460
928.585	12300
928.69	12300
928.796	12395
928.901	12213
929.007	12087
929.112	12258
929.218	12194
929.323	12121
929.428	12098
929.533	12266
929.638	11996
929.743	12102
929.848	12155
929.953	12019
930.058	12003
930.163	11729
930.267	11870
930.372	11923
930.477	11771
930.581	12076
930.685	11889
930.79	11691
930.894	11710
930.998	11630
931.103	11809
931.207	11467
931.311	11383
931.415	11345
931.519	11033
931.623	11105
