Data from test_V78500241_1007.txt Node
Date: Fri Mar 25 15:16:52 CST 2022
User: usil
Spectrometer: V785-0024
Trigger mode: 0
Integration Time (sec): 4.000000E-1
Scans to average: 1
Nonlinearity correction enabled: false
Boxcar width: 0
Storing dark spectrum: false
XAxis mode: Wavelengths
Number of Pixels in Spectrum: 1024
>>>>>Begin Spectral Data<<<<<
801.071	28322
801.214	28276
801.356	27991
801.499	27918
801.641	27994
801.783	27724
801.926	28078
802.068	27907
802.211	27679
802.353	27682
802.496	27538
802.638	27663
802.78	27568
802.923	27538
803.065	27378
803.208	27511
803.35	27488
803.492	27568
803.635	27781
803.777	27641
803.919	27812
804.061	28124
804.204	27846
804.346	27644
804.488	27564
804.63	27850
804.773	27587
804.915	27747
805.057	27994
805.199	27831
805.341	27819
805.483	27789
805.626	27850
805.768	27785
805.91	27831
806.052	27823
806.194	27736
806.336	28070
806.478	27987
806.62	28032
806.762	28032
806.904	28173
807.046	28360
807.188	28223
807.33	28265
807.472	28223
807.614	28325
807.756	28257
807.898	28188
808.04	28211
808.182	28090
808.324	28242
808.465	28291
808.607	28451
808.749	28546
808.891	28683
809.033	28736
809.174	28622
809.316	28504
809.458	28519
809.6	28531
809.741	28664
809.883	28596
810.025	28946
810.166	28824
810.308	28858
810.45	28797
810.591	28809
810.733	28618
810.875	28596
811.016	28531
811.158	28382
811.299	28664
811.441	28721
811.582	28626
811.724	28497
811.865	28508
812.007	28550
812.148	28546
812.29	28664
812.431	28763
812.573	28911
812.714	29029
812.855	29052
812.997	29185
813.138	29375
813.279	29208
813.421	29071
813.562	29159
813.703	28896
813.845	28847
813.986	28550
814.127	28379
814.268	28284
814.41	28341
814.551	28284
814.692	28363
814.833	28154
814.974	28249
815.115	28280
815.256	28090
815.397	27983
815.539	28128
815.68	28154
815.821	28109
815.962	28101
816.103	27956
816.244	27983
816.385	27907
816.526	27854
816.666	27728
816.807	27447
816.948	27614
817.089	27774
817.23	27728
817.371	27694
817.512	27583
817.653	27610
817.793	27519
817.934	27599
818.075	27515
818.216	27622
818.356	27637
818.497	27576
818.638	27310
818.778	27317
818.919	27412
819.06	27439
819.2	27523
819.341	27583
819.481	27755
819.622	27709
819.762	28063
819.903	27835
820.043	27899
820.184	27930
820.324	27869
820.465	27781
820.605	27732
820.746	27720
820.886	27705
821.026	27739
821.167	27660
821.307	27713
821.447	27595
821.588	27462
821.728	27382
821.868	27165
822.008	27093
822.149	27100
822.289	27085
822.429	26925
822.569	26716
822.709	26785
822.849	26632
822.99	26541
823.13	26495
823.27	26507
823.41	26442
823.55	26305
823.69	26374
823.83	26473
823.97	26400
824.11	26237
824.25	26187
824.389	26320
824.529	26377
824.669	26256
824.809	26343
824.949	26332
825.089	26313
825.228	26267
825.368	26142
825.508	26122
825.648	26073
825.787	26240
825.927	26298
826.067	26233
826.206	26077
826.346	26336
826.485	26244
826.625	26115
826.765	26107
826.904	26199
827.044	25978
827.183	25955
827.323	25868
827.462	25978
827.601	25932
827.741	25833
827.88	25986
828.02	25723
828.159	25894
828.298	25921
828.437	25814
828.577	25765
828.716	25928
828.855	25864
828.994	25521
829.134	25491
829.273	25590
829.412	25384
829.551	25411
829.69	25578
829.829	25624
829.968	25655
830.107	25518
830.246	25514
830.385	25525
830.524	25460
830.663	25422
830.802	25343
830.941	25129
831.08	25236
831.219	25274
831.357	25274
831.496	25365
831.635	25206
831.774	25099
831.913	25118
832.051	25103
832.19	25034
832.329	24962
832.467	24863
832.606	24745
832.744	24928
832.883	24711
833.022	24783
833.16	24951
833.299	24939
833.437	24901
833.576	24992
833.714	25008
833.852	24894
833.991	24932
834.129	24996
834.267	24970
834.406	24985
834.544	24954
834.682	24985
834.821	24856
834.959	25004
835.097	24856
835.235	24920
835.373	24943
835.511	24825
835.65	24779
835.788	24806
835.926	24601
836.064	24597
836.202	24642
836.34	24798
836.478	24848
836.615	24681
836.753	24791
836.891	24692
837.029	24787
837.167	24707
837.305	24688
837.443	24566
837.58	24544
837.718	24658
837.856	24585
837.993	24467
838.131	24563
838.269	24570
838.406	24464
838.544	24441
838.681	24323
838.819	24155
838.956	24072
839.094	24163
839.231	24216
839.369	24152
839.506	24456
839.643	24251
839.781	24072
839.918	23939
840.055	24015
840.193	24076
840.33	24079
840.467	24038
840.604	24224
840.742	24327
840.879	23904
841.016	23783
841.153	23882
841.29	24072
841.427	23923
841.564	24068
841.701	24057
841.838	23939
841.975	23931
842.112	23843
842.249	23745
842.385	23707
842.522	23901
842.659	23802
842.796	23661
842.933	23687
843.069	23653
843.206	23589
843.343	23748
843.479	23790
843.616	23764
843.752	23581
843.889	23562
844.025	23630
844.162	23505
844.298	23608
844.435	23516
844.571	23448
844.708	23608
844.844	23676
844.98	23733
845.117	23665
845.253	23433
845.389	23417
845.525	23398
845.661	23433
845.798	23303
845.934	23383
846.07	23113
846.206	23204
846.342	23273
846.478	23227
846.614	23067
846.75	22919
846.886	22892
847.022	23079
847.158	23006
847.294	22934
847.429	23064
847.565	23018
847.701	23098
847.837	22759
847.972	22710
848.108	22828
848.244	22698
848.379	22611
848.515	22557
848.65	22531
848.786	22497
848.921	22557
849.057	22580
849.192	22683
849.328	22481
849.463	22569
849.598	22489
849.734	22474
849.869	22432
850.004	22337
850.14	22322
850.275	22314
850.41	22246
850.545	22291
850.68	22318
850.815	22382
850.95	22344
851.085	22531
851.22	22344
851.355	22329
851.49	22284
851.625	22276
851.76	22242
851.895	22215
852.03	22261
852.165	22325
852.299	22333
852.434	22322
852.569	22443
852.703	22443
852.838	22325
852.973	22459
853.107	22466
853.242	22219
853.376	22143
853.511	22021
853.645	22059
853.78	22268
853.914	22158
854.048	22051
854.183	22112
854.317	22181
854.451	22333
854.585	22177
854.72	22109
854.854	22158
854.988	22074
855.122	22097
855.256	22002
855.39	22177
855.524	22242
855.658	22196
855.792	22344
855.926	22211
856.06	22147
856.194	22204
856.327	22147
856.461	22158
856.595	22036
856.729	22211
856.862	22207
856.996	22211
857.13	22226
857.263	22131
857.397	22124
857.53	22044
857.664	22078
857.797	22185
857.931	22257
858.064	22169
858.197	22318
858.331	22135
858.464	21987
858.597	22040
858.731	22120
858.864	22139
858.997	22078
859.13	22196
859.263	22166
859.396	22226
859.529	22116
859.662	22017
859.795	22078
859.928	22128
860.061	22318
860.194	22325
860.327	22154
860.46	22120
860.592	22200
860.725	22379
860.858	22276
860.99	22116
861.123	22093
861.256	22010
861.388	22139
861.521	22790
861.653	22086
861.786	21930
861.918	22097
862.05	21979
862.183	22074
862.315	21979
862.447	22143
862.58	21934
862.712	21899
862.844	21857
862.976	21915
863.108	21922
863.24	22215
863.372	21789
863.504	21865
863.636	21838
863.768	21960
863.9	21804
864.032	21895
864.164	21842
864.296	21869
864.428	21842
864.559	21922
864.691	21922
864.823	21778
864.954	21831
865.086	21819
865.217	21816
865.349	21671
865.48	21732
865.612	21644
865.743	21827
865.875	21781
866.006	21572
866.137	21701
866.269	21838
866.4	21660
866.531	21549
866.662	21496
866.793	21682
866.924	21603
867.055	21538
867.186	21629
867.317	21595
867.448	21698
867.579	21671
867.71	21454
867.841	21618
867.972	21637
868.103	21641
868.233	21705
868.364	21595
868.495	21690
868.625	21857
868.756	22017
868.886	21743
869.017	21911
869.147	21983
869.278	21968
869.408	21922
869.539	21831
869.669	22044
869.799	21960
869.929	21934
870.06	21941
870.19	22215
870.32	22135
870.45	22177
870.58	22223
870.71	22432
870.84	22325
870.97	22257
871.1	22162
871.23	22440
871.36	22390
871.489	22371
871.619	22424
871.749	22485
871.879	22447
872.008	22672
872.138	22569
872.267	22424
872.397	22299
872.526	22337
872.656	22360
872.785	22314
872.915	22485
873.044	22713
873.173	22462
873.303	22440
873.432	22535
873.561	22573
873.69	22489
873.819	22497
873.948	22561
874.077	22512
874.206	22489
874.335	22512
874.464	22516
874.593	22683
874.722	22717
874.851	22755
874.979	22786
875.108	22771
875.237	22675
875.365	22542
875.494	22653
875.623	22687
875.751	22694
875.88	22752
876.008	22733
876.136	22828
876.265	23143
876.393	23136
876.521	23132
876.65	23208
876.778	23098
876.906	23056
877.034	23037
877.162	23052
877.29	23143
877.418	23014
877.546	23197
877.674	23029
877.802	23018
877.93	23075
878.058	22919
878.185	22812
878.313	23075
878.441	23029
878.568	22831
878.696	22976
878.824	23178
878.951	23048
879.079	23250
879.206	23292
879.333	23216
879.461	22984
879.588	23254
879.715	23208
879.842	23353
879.97	23174
880.097	22797
880.224	22923
880.351	22968
880.478	22824
880.605	22748
880.732	22938
880.859	22995
880.986	22866
881.112	22900
881.239	22828
881.366	22607
881.493	22535
881.619	22436
881.746	22398
881.872	22481
881.999	22455
882.125	22382
882.252	22398
882.378	22386
882.505	22592
882.631	22322
882.757	22188
882.883	22268
883.01	22105
883.136	22116
883.262	22013
883.388	21953
883.514	22154
883.64	22017
883.766	22097
883.892	21930
884.018	21983
884.143	22192
884.269	22219
884.395	21774
884.52	21717
884.646	21717
884.772	21633
884.897	21698
885.023	21724
885.148	21823
885.274	21945
885.399	21907
885.524	21766
885.65	21736
885.775	21842
885.9	21701
886.025	21781
886.15	21819
886.275	21679
886.4	21747
886.525	21682
886.65	21732
886.775	21534
886.9	21922
887.025	21994
887.149	21728
887.274	21629
887.399	21534
887.523	21526
887.648	21466
887.773	21351
887.897	21667
888.021	21652
888.146	21488
888.27	21717
888.395	21656
888.519	21488
888.643	21405
888.767	21549
888.891	21302
889.015	21272
889.139	21378
889.263	21241
889.387	21275
889.511	21534
889.635	21393
889.759	21287
889.883	21321
890.006	21131
890.13	21454
890.254	21313
890.377	21214
890.501	21077
890.624	21066
890.748	21116
890.871	20891
890.995	20804
891.118	20857
891.241	20895
891.364	20937
891.488	20971
891.611	20906
891.734	20845
891.857	20925
891.98	20990
892.103	20906
892.226	20872
892.349	20804
892.471	20785
892.594	20910
892.717	20834
892.839	20640
892.962	20804
893.085	20819
893.207	20689
893.33	20640
893.452	20712
893.575	20758
893.697	20632
893.819	20910
893.941	21001
894.064	20891
894.186	20720
894.308	20727
894.43	20804
894.552	20883
894.674	20785
894.796	20594
894.918	20697
895.04	20705
895.161	20750
895.283	20815
895.405	20670
895.526	20750
895.648	20708
895.769	20746
895.891	20651
896.012	20815
896.134	20842
896.255	20739
896.376	20629
896.498	20804
896.619	20762
896.74	20754
896.861	20785
896.982	21070
897.103	21039
897.224	21005
897.345	20929
897.466	20830
897.587	20925
897.708	21074
897.828	20910
897.949	20807
898.07	20834
898.19	20941
898.311	21089
898.431	20925
898.552	20861
898.672	20948
898.792	21005
898.913	21024
899.033	20750
899.153	20758
899.273	20693
899.393	20625
899.513	20701
899.633	20800
899.753	20705
899.873	20609
899.993	20712
900.113	20549
900.232	20777
900.352	20590
900.472	20488
900.591	20381
900.711	20415
900.83	20431
900.95	20594
901.069	20404
901.189	20240
901.308	20058
901.427	19986
901.546	20115
901.665	20069
901.784	20062
901.904	19890
902.023	19696
902.141	19525
902.26	19620
902.379	19537
902.498	19480
902.617	19537
902.735	19586
902.854	19480
902.973	19419
903.091	19343
903.21	19179
903.328	19198
903.446	19110
903.565	19019
903.683	19057
903.801	18852
903.919	18916
904.038	18954
904.156	18669
904.274	18810
904.392	18711
904.51	18814
904.627	18734
904.745	18684
904.863	18757
904.981	18593
905.098	18327
905.216	18403
905.334	18486
905.451	18407
905.569	18380
905.686	18418
905.803	18445
905.921	18243
906.038	18399
906.155	18228
906.272	18049
906.389	18053
906.506	17996
906.623	18049
906.74	18072
906.857	17847
906.974	17946
907.091	17950
907.208	18030
907.324	17946
907.441	17802
907.557	17691
907.674	17665
907.79	17581
907.907	17630
908.023	17649
908.139	17745
908.256	17585
908.372	17581
908.488	17634
908.604	17509
908.72	17520
908.836	17353
908.952	17376
909.068	17539
909.184	17547
909.3	17410
909.415	17410
909.531	17398
909.647	17189
909.762	17113
909.878	17140
909.993	17113
910.108	17029
910.224	17052
910.339	17113
910.454	16968
910.57	17022
910.685	16866
910.8	17079
910.915	16999
911.03	16824
911.145	16706
911.259	16759
911.374	16767
911.489	16634
911.604	16421
911.718	16470
911.833	16531
911.947	16409
912.062	16363
912.176	16436
912.291	16459
912.405	16386
912.519	16618
912.633	16615
912.748	16375
912.862	16428
912.976	16192
913.09	16120
913.204	16192
913.318	16230
913.431	16352
913.545	16337
913.659	16291
913.772	16280
913.886	16067
914	16032
914.113	16135
914.226	16147
914.34	16128
914.453	15892
914.566	16002
914.68	16101
914.793	15850
914.906	15739
915.019	15717
915.132	15561
915.245	15603
915.358	15675
915.47	15720
915.583	15633
915.696	15671
915.809	15793
915.921	15785
916.034	15538
916.146	15564
916.259	15538
916.371	15660
916.483	15599
916.595	15591
916.708	15473
916.82	15526
916.932	15374
917.044	15344
917.156	15298
917.268	15272
917.38	15363
917.491	15321
917.603	15291
917.715	15287
917.826	15370
917.938	15161
918.049	15100
918.161	15294
918.272	15359
918.384	15344
918.495	15207
918.606	15070
918.717	14990
918.828	15051
918.939	15017
919.05	14842
919.161	14960
919.272	14739
919.383	14876
919.494	15055
919.604	15237
919.715	14990
919.826	14944
919.936	14899
920.047	14986
920.157	14914
920.267	15218
920.378	14971
920.488	14807
920.598	15138
920.708	15302
920.818	15081
920.928	15097
921.038	15173
921.148	15199
921.258	14842
921.368	14815
921.477	14712
921.587	14678
921.697	14537
921.806	14750
921.916	14545
922.025	14415
922.134	14305
922.244	14332
922.353	14400
922.462	14244
922.571	14252
922.68	13974
922.789	13906
922.898	14016
923.007	13849
923.116	14046
923.224	13909
923.333	13982
923.442	13814
923.55	13788
923.659	13849
923.767	13837
923.876	13712
923.984	13868
924.092	13689
924.201	13712
924.309	13727
924.417	13723
924.525	13662
924.633	13715
924.741	14507
924.849	13476
924.956	13578
925.064	13388
925.172	13274
925.279	13384
925.387	13350
925.494	13350
925.602	13472
925.709	13396
925.816	13217
925.924	13266
926.031	13304
926.138	13331
926.245	13289
926.352	13126
926.459	13365
926.566	13304
926.673	13190
926.779	13023
926.886	13015
926.993	12947
927.099	12901
927.206	12859
927.312	12890
927.419	12962
927.525	12924
927.631	12951
927.737	12825
927.843	12719
927.95	12650
928.056	12776
928.162	12787
928.267	12749
928.373	13274
928.479	12878
928.585	12566
928.69	12719
928.796	12677
928.901	12585
929.007	12403
929.112	12582
929.218	12509
929.323	12479
929.428	12414
929.533	12570
929.638	12365
929.743	12342
929.848	12437
929.953	12422
930.058	12308
930.163	12144
930.267	12091
930.372	12232
930.477	12072
930.581	12296
930.685	12144
930.79	12011
930.894	12022
930.998	11996
931.103	12076
931.207	11767
931.311	11604
931.415	11570
931.519	11345
931.623	11364
