Data from test_V78500241_3259.txt Node
Date: Fri Mar 25 15:32:33 CST 2022
User: usil
Spectrometer: V785-0024
Trigger mode: 0
Integration Time (sec): 4.000000E-1
Scans to average: 1
Nonlinearity correction enabled: false
Boxcar width: 0
Storing dark spectrum: false
XAxis mode: Wavelengths
Number of Pixels in Spectrum: 1024
>>>>>Begin Spectral Data<<<<<
801.071	27237
801.214	27279
801.356	26990
801.499	27009
801.641	26765
801.783	26902
801.926	26948
802.068	26876
802.211	26830
802.353	26731
802.496	26568
802.638	26552
802.78	26495
802.923	26408
803.065	26503
803.208	26328
803.35	26400
803.492	26587
803.635	26682
803.777	26423
803.919	26667
804.061	26990
804.204	26693
804.346	26667
804.488	26473
804.63	26602
804.773	26431
804.915	26594
805.057	26705
805.199	26564
805.341	26598
805.483	26815
805.626	26632
805.768	26609
805.91	26670
806.052	26712
806.194	26693
806.336	26940
806.478	26746
806.62	26651
806.762	26750
806.904	26921
807.046	27382
807.188	27184
807.33	27119
807.472	27127
807.614	27146
807.756	27043
807.898	26887
808.04	26937
808.182	26986
808.324	26975
808.465	27051
808.607	27146
808.749	27355
808.891	27302
809.033	27496
809.174	27492
809.316	27214
809.458	27405
809.6	27233
809.741	27272
809.883	27359
810.025	27652
810.166	27526
810.308	27572
810.45	27511
810.591	27545
810.733	27272
810.875	27230
811.016	27230
811.158	27230
811.299	27408
811.441	27450
811.582	27454
811.724	27272
811.865	27195
812.007	27317
812.148	27329
812.29	27329
812.431	27466
812.573	27614
812.714	27785
812.855	27873
812.997	27846
813.138	28074
813.279	27926
813.421	27842
813.562	27701
813.703	27625
813.845	27587
813.986	27256
814.127	26971
814.268	26994
814.41	26982
814.551	26899
814.692	27001
814.833	27013
814.974	26940
815.115	26876
815.256	26872
815.397	26834
815.539	26807
815.68	26826
815.821	26632
815.962	26667
816.103	26796
816.244	26651
816.385	26602
816.526	26431
816.666	26252
816.807	26214
816.948	26278
817.089	26381
817.23	26180
817.371	26103
817.512	26111
817.653	26199
817.793	26202
817.934	26130
818.075	26286
818.216	26214
818.356	26328
818.497	26065
818.638	25989
818.778	25982
818.919	26039
819.06	26115
819.2	26122
819.341	26271
819.481	26233
819.622	26400
819.762	26587
819.903	26313
820.043	26343
820.184	26294
820.324	26294
820.465	26263
820.605	26343
820.746	26309
820.886	26164
821.026	26248
821.167	26305
821.307	26355
821.447	26225
821.588	26145
821.728	26073
821.868	25791
822.008	25616
822.149	25818
822.289	25563
822.429	25460
822.569	25403
822.709	25381
822.849	25206
822.99	25232
823.13	25259
823.27	25122
823.41	24981
823.55	25027
823.69	24951
823.83	25027
823.97	24817
824.11	24779
824.25	24692
824.389	24897
824.529	24882
824.669	24878
824.809	24966
824.949	24833
825.089	24943
825.228	24989
825.368	24521
825.508	24574
825.648	24616
825.787	24882
825.927	24684
826.067	24612
826.206	24635
826.346	24768
826.485	24802
826.625	24654
826.765	24779
826.904	24715
827.044	24456
827.183	24471
827.323	24429
827.462	24483
827.601	24479
827.741	24353
827.88	24563
828.02	24224
828.159	24475
828.298	24502
828.437	24471
828.577	24380
828.716	24467
828.855	24273
828.994	24140
829.134	24079
829.273	24209
829.412	24121
829.551	24026
829.69	24064
829.829	24140
829.968	24235
830.107	24064
830.246	24194
830.385	24182
830.524	24030
830.663	23954
830.802	23843
830.941	23718
831.08	23741
831.219	23821
831.357	23859
831.496	24060
831.635	23764
831.774	23703
831.913	23585
832.051	23570
832.19	23471
832.329	23585
832.467	23452
832.606	23444
832.744	23254
832.883	23383
833.022	23391
833.16	23410
833.299	23482
833.437	23455
833.576	23516
833.714	23254
833.852	23577
833.991	23581
834.129	23649
834.267	23596
834.406	23531
834.544	23551
834.682	23482
834.821	23452
834.959	23630
835.097	23467
835.235	23558
835.373	23543
835.511	23417
835.65	23349
835.788	23330
835.926	23360
836.064	23155
836.202	23151
836.34	23349
836.478	23410
836.615	23280
836.753	23379
836.891	23360
837.029	23467
837.167	23265
837.305	23223
837.443	23193
837.58	23181
837.718	23318
837.856	23136
837.993	23162
838.131	23227
838.269	23056
838.406	23029
838.544	23079
838.681	22755
838.819	22957
838.956	22603
839.094	22767
839.231	22850
839.369	22774
839.506	23090
839.643	22866
839.781	22694
839.918	22493
840.055	22561
840.193	22774
840.33	22546
840.467	22694
840.604	22706
840.742	22965
840.879	22462
841.016	22538
841.153	22569
841.29	22748
841.427	22603
841.564	22660
841.701	22596
841.838	22538
841.975	22489
842.112	22634
842.249	22440
842.385	22413
842.522	22744
842.659	22508
842.796	22417
842.933	22409
843.069	22299
843.206	22238
843.343	22344
843.479	22371
843.616	22360
843.752	22196
843.889	22246
844.025	22234
844.162	22147
844.298	22223
844.435	22131
844.571	22051
844.708	22147
844.844	22238
844.98	22295
845.117	22284
845.253	22166
845.389	21964
845.525	22116
845.661	22010
845.798	21778
845.934	21915
846.07	21915
846.206	21953
846.342	22063
846.478	21888
846.614	21709
846.75	21652
846.886	21504
847.022	21732
847.158	21629
847.294	21652
847.429	21789
847.565	21580
847.701	21869
847.837	21355
847.972	21321
848.108	21454
848.244	21359
848.379	21359
848.515	21214
848.65	21138
848.786	21119
848.921	21222
849.057	21252
849.192	21279
849.328	21272
849.463	21180
849.598	21108
849.734	21116
849.869	21005
850.004	20937
850.14	21062
850.275	21005
850.41	20914
850.545	20902
850.68	20902
850.815	21108
850.95	20941
851.085	21138
851.22	21036
851.355	20956
851.49	20963
851.625	21032
851.76	20963
851.895	20910
852.03	20804
852.165	20975
852.299	20986
852.434	21051
852.569	21058
852.703	21066
852.838	21077
852.973	21138
853.107	21138
853.242	20967
853.376	20880
853.511	20701
853.645	20796
853.78	20876
853.914	20880
854.048	20788
854.183	20864
854.317	20842
854.451	21077
854.585	20754
854.72	20849
854.854	20902
854.988	20682
855.122	20765
855.256	20651
855.39	20823
855.524	20982
855.658	20842
855.792	20849
855.926	20811
856.06	20895
856.194	20895
856.327	20765
856.461	20724
856.595	20674
856.729	20792
856.862	20872
856.996	20811
857.13	20990
857.263	20826
857.397	20906
857.53	20807
857.664	20853
857.797	20895
857.931	20891
858.064	20842
858.197	20937
858.331	20762
858.464	20739
858.597	20731
858.731	20701
858.864	20686
858.997	20735
859.13	20777
859.263	20864
859.396	20937
859.529	20773
859.662	20758
859.795	20743
859.928	20720
860.061	20967
860.194	21005
860.327	20853
860.46	20826
860.592	20800
860.725	20925
860.858	20933
860.99	20804
861.123	20720
861.256	20758
861.388	20845
861.521	21310
861.653	20773
861.786	20667
861.918	20651
862.05	20644
862.183	20830
862.315	20720
862.447	20823
862.58	20629
862.712	20575
862.844	20469
862.976	20583
863.108	20549
863.24	21043
863.372	20400
863.504	20461
863.636	20465
863.768	20629
863.9	20480
864.032	20423
864.164	20495
864.296	20602
864.428	20625
864.559	20461
864.691	20514
864.823	20564
864.954	20503
865.086	20389
865.217	20442
865.349	20404
865.48	20431
865.612	20396
865.743	20598
865.875	20499
866.006	20366
866.137	20355
866.269	20415
866.4	20415
866.531	20434
866.662	20240
866.793	20396
866.924	20454
867.055	20423
867.186	20324
867.317	20301
867.448	20214
867.579	20404
867.71	20370
867.841	20244
867.972	20370
868.103	20351
868.233	20507
868.364	20423
868.495	20488
868.625	20625
868.756	20796
868.886	20549
869.017	20636
869.147	20686
869.278	20750
869.408	20636
869.539	20606
869.669	20670
869.799	20598
869.929	20708
870.06	20632
870.19	20868
870.32	20804
870.45	20883
870.58	21077
870.71	21100
870.84	21241
870.97	20971
871.1	21024
871.23	21154
871.36	21268
871.489	21180
871.619	21093
871.749	21180
871.879	21245
872.008	21325
872.138	21173
872.267	21199
872.397	21032
872.526	20925
872.656	21017
872.785	20967
872.915	21283
873.044	21268
873.173	21218
873.303	21199
873.432	21199
873.561	21348
873.69	21173
873.819	21199
873.948	21252
874.077	21249
874.206	21214
874.335	21188
874.464	21348
874.593	21526
874.722	21466
874.851	21481
874.979	21542
875.108	21458
875.237	21397
875.365	21454
875.494	21389
875.623	21618
875.751	21591
875.88	21469
876.008	21637
876.136	21618
876.265	21762
876.393	22105
876.521	21968
876.65	21899
876.778	21880
876.906	21778
877.034	21865
877.162	21873
877.29	21759
877.418	21823
877.546	21751
877.674	21873
877.802	21747
877.93	21823
878.058	21762
878.185	21720
878.313	21739
878.441	21789
878.568	21564
878.696	21766
878.824	21762
878.951	21979
879.079	22078
879.206	22139
879.333	21949
879.461	21907
879.588	21987
879.715	21926
879.842	22101
879.97	21876
880.097	21656
880.224	21599
880.351	21739
880.478	21675
880.605	21667
880.732	21652
880.859	21812
880.986	21724
881.112	21637
881.239	21549
881.366	21519
881.493	21310
881.619	21169
881.746	21275
881.872	21230
881.999	21131
882.125	21226
882.252	21237
882.378	21344
882.505	21332
882.631	21089
882.757	20944
882.883	21009
883.01	20941
883.136	20788
883.262	20876
883.388	20796
883.514	20933
883.64	21055
883.766	20819
883.892	20765
884.018	20796
884.143	20845
884.269	21013
884.395	20777
884.52	20545
884.646	20651
884.772	20526
884.897	20480
885.023	20625
885.148	20682
885.274	20678
885.399	20625
885.524	20590
885.65	20617
885.775	20571
885.9	20560
886.025	20629
886.15	20716
886.275	20571
886.4	20438
886.525	20636
886.65	20533
886.775	20461
886.9	20731
887.025	20746
887.149	20590
887.274	20290
887.399	20370
887.523	20381
887.648	20351
887.773	20161
887.897	20385
888.021	20396
888.146	20412
888.27	20434
888.395	20446
888.519	20434
888.643	20396
888.767	20362
888.891	20294
889.015	20164
889.139	20176
889.263	20145
889.387	20324
889.511	20362
889.635	20343
889.759	20119
889.883	20092
890.006	20218
890.13	20256
890.254	20153
890.377	20062
890.501	20005
890.624	19807
890.748	19959
890.871	19784
890.995	19738
891.118	19715
891.241	19662
891.364	19845
891.488	19761
891.611	19712
891.734	19841
891.857	19814
891.98	19734
892.103	19795
892.226	19738
892.349	19772
892.471	19457
892.594	19540
892.717	19708
892.839	19643
892.962	19719
893.085	19613
893.207	19647
893.33	19567
893.452	19556
893.575	19715
893.697	19628
893.819	19776
893.941	19887
894.064	19890
894.186	19628
894.308	19601
894.43	19639
894.552	19822
894.674	19715
894.796	19582
894.918	19651
895.04	19700
895.161	19689
895.283	19795
895.405	19639
895.526	19727
895.648	19594
895.769	19563
895.891	19715
896.012	19708
896.134	19772
896.255	19670
896.376	19510
896.498	19689
896.619	19738
896.74	19685
896.861	19731
896.982	20001
897.103	20206
897.224	19959
897.345	19898
897.466	19883
897.587	19906
897.708	20126
897.828	19959
897.949	19898
898.07	19704
898.19	19856
898.311	20005
898.431	19818
898.552	19852
898.672	20016
898.792	20062
898.913	19883
899.033	19788
899.153	19757
899.273	19670
899.393	19681
899.513	19647
899.633	19715
899.753	19525
899.873	19510
899.993	19605
900.113	19506
900.232	19635
900.352	19548
900.472	19495
900.591	19457
900.711	19339
900.83	19537
900.95	19540
901.069	19457
901.189	19335
901.308	19069
901.427	19000
901.546	19000
901.665	19107
901.784	18973
901.904	18802
902.023	18867
902.141	18711
902.26	18494
902.379	18692
902.498	18544
902.617	18338
902.735	18574
902.854	18551
902.973	18460
903.091	18319
903.21	18144
903.328	18182
903.446	18007
903.565	18098
903.683	17988
903.801	17931
903.919	18019
904.038	18087
904.156	17752
904.274	17813
904.392	17722
904.51	17767
904.627	17813
904.745	17832
904.863	17958
904.981	17577
905.098	17395
905.216	17414
905.334	17570
905.451	17459
905.569	17433
905.686	17573
905.803	17417
905.921	17273
906.038	17379
906.155	17330
906.272	17227
906.389	17170
906.506	17052
906.623	16991
906.74	16915
906.857	16930
906.974	16824
907.091	16953
907.208	17029
907.324	17067
907.441	16885
907.557	16767
907.674	16683
907.79	16698
907.907	16675
908.023	16744
908.139	16694
908.256	16752
908.372	16622
908.488	16622
908.604	16523
908.72	16413
908.836	16440
908.952	16405
909.068	16436
909.184	16436
909.3	16432
909.415	16409
909.531	16440
909.647	16196
909.762	16188
909.878	16139
909.993	16150
910.108	16093
910.224	16082
910.339	16131
910.454	15949
910.57	16025
910.685	15975
910.8	16219
910.915	16131
911.03	16002
911.145	15827
911.259	15785
911.374	15739
911.489	15606
911.604	15584
911.718	15500
911.833	15557
911.947	15447
912.062	15321
912.176	15511
912.291	15523
912.405	15523
912.519	15751
912.633	15637
912.748	15603
912.862	15488
912.976	15283
913.09	15302
913.204	15306
913.318	15279
913.431	15355
913.545	15340
913.659	15378
913.772	15268
913.886	15180
914	15123
914.113	15154
914.226	15207
914.34	15268
914.453	15036
914.566	15161
914.68	15062
914.793	15032
914.906	14838
915.019	14731
915.132	14648
915.245	14739
915.358	14727
915.47	14765
915.583	14743
915.696	14777
915.809	14895
915.921	14811
916.034	14705
916.146	14701
916.259	14670
916.371	14712
916.483	14651
916.595	14533
916.708	14648
916.82	14644
916.932	14560
917.044	14564
917.156	14442
917.268	14358
917.38	14514
917.491	14537
917.603	14442
917.715	14507
917.826	14556
917.938	14343
918.049	14324
918.161	14366
918.272	14495
918.384	14625
918.495	14423
918.606	14256
918.717	14278
918.828	14221
918.939	14282
919.05	14206
919.161	14214
919.272	14012
919.383	14092
919.494	14126
919.604	14488
919.715	14206
919.826	14077
919.936	14096
920.047	14161
920.157	14282
920.267	14377
920.378	14233
920.488	14172
920.598	14317
920.708	14473
920.818	14461
920.928	14431
921.038	14473
921.148	14454
921.258	14157
921.368	14077
921.477	13986
921.587	13887
921.697	13868
921.806	14008
921.916	13776
922.025	13662
922.134	13643
922.244	13449
922.353	13476
922.462	13582
922.571	13449
922.68	13175
922.789	13190
922.898	13327
923.007	13149
923.116	13202
923.224	13213
923.333	13236
923.442	13110
923.55	13084
923.659	13156
923.767	13164
923.876	13031
923.984	13103
924.092	12924
924.201	12981
924.309	13042
924.417	12913
924.525	12905
924.633	12996
924.741	13879
924.849	12753
924.956	12821
925.064	12684
925.172	12612
925.279	12665
925.387	12753
925.494	12688
925.602	12810
925.709	12665
925.816	12585
925.924	12604
926.031	12612
926.138	12608
926.245	12570
926.352	12578
926.459	12623
926.566	12741
926.673	12608
926.779	12342
926.886	12433
926.993	12353
927.099	12258
927.206	12167
927.312	12140
927.419	12235
927.525	12323
927.631	12273
927.737	12144
927.843	12133
927.95	12053
928.056	12091
928.162	12053
928.267	12175
928.373	12753
928.479	12011
928.585	11942
928.69	12041
928.796	12079
928.901	12053
929.007	11798
929.112	11901
929.218	11866
929.323	11752
929.428	11783
929.533	11931
929.638	11691
929.743	11707
929.848	11798
929.953	11688
930.058	11684
930.163	11406
930.267	11596
930.372	11581
930.477	11402
930.581	11672
930.685	11573
930.79	11341
930.894	11459
930.998	11391
931.103	11463
931.207	11151
931.311	11102
931.415	10957
931.519	10778
931.623	10809
