Data from test_V78500241_2911.txt Node
Date: Fri Mar 25 15:30:07 CST 2022
User: usil
Spectrometer: V785-0024
Trigger mode: 0
Integration Time (sec): 4.000000E-1
Scans to average: 1
Nonlinearity correction enabled: false
Boxcar width: 0
Storing dark spectrum: false
XAxis mode: Wavelengths
Number of Pixels in Spectrum: 1024
>>>>>Begin Spectral Data<<<<<
801.071	27241
801.214	27195
801.356	27001
801.499	26940
801.641	26883
801.783	26659
801.926	26880
802.068	26830
802.211	26792
802.353	26552
802.496	26564
802.638	26469
802.78	26415
802.923	26438
803.065	26355
803.208	26351
803.35	26415
803.492	26552
803.635	26598
803.777	26473
803.919	26511
804.061	26944
804.204	26655
804.346	26537
804.488	26488
804.63	26537
804.773	26453
804.915	26564
805.057	26689
805.199	26556
805.341	26587
805.483	26636
805.626	26758
805.768	26549
805.91	26724
806.052	26674
806.194	26564
806.336	26838
806.478	26735
806.62	26648
806.762	26815
806.904	26914
807.046	27249
807.188	27081
807.33	27070
807.472	27119
807.614	27070
807.756	27070
807.898	27028
808.04	26971
808.182	26952
808.324	26823
808.465	26994
808.607	27161
808.749	27268
808.891	27488
809.033	27313
809.174	27427
809.316	27272
809.458	27275
809.6	27306
809.741	27329
809.883	27458
810.025	27492
810.166	27599
810.308	27557
810.45	27568
810.591	27542
810.733	27279
810.875	27283
811.016	27165
811.158	27302
811.299	27287
811.441	27325
811.582	27538
811.724	27382
811.865	27233
812.007	27146
812.148	27230
812.29	27370
812.431	27466
812.573	27614
812.714	27667
812.855	27728
812.997	27838
813.138	28067
813.279	27945
813.421	27800
813.562	27648
813.703	27690
813.845	27462
813.986	27169
814.127	27013
814.268	27032
814.41	27085
814.551	26796
814.692	26979
814.833	26887
814.974	26891
815.115	26906
815.256	26914
815.397	26762
815.539	26857
815.68	26735
815.821	26716
815.962	26693
816.103	26731
816.244	26602
816.385	26499
816.526	26511
816.666	26400
816.807	26115
816.948	26263
817.089	26233
817.23	26161
817.371	26077
817.512	26229
817.653	26362
817.793	26126
817.934	26142
818.075	26210
818.216	26275
818.356	26183
818.497	26054
818.638	25940
818.778	25921
818.919	25959
819.06	26142
819.2	26046
819.341	26248
819.481	26214
819.622	26374
819.762	26598
819.903	26438
820.043	26305
820.184	26339
820.324	26328
820.465	26511
820.605	26393
820.746	26317
820.886	26206
821.026	26282
821.167	26282
821.307	26278
821.447	26263
821.588	26119
821.728	26046
821.868	25833
822.008	25772
822.149	25723
822.289	25601
822.429	25392
822.569	25365
822.709	25411
822.849	25228
822.99	25297
823.13	25270
823.27	24973
823.41	25152
823.55	24821
823.69	24867
823.83	24977
823.97	24992
824.11	24783
824.25	24848
824.389	24738
824.529	24844
824.669	24753
824.809	24859
824.949	24947
825.089	24951
825.228	24935
825.368	24540
825.508	24658
825.648	24669
825.787	24589
825.927	24734
826.067	24623
826.206	24623
826.346	24715
826.485	24681
826.625	24688
826.765	24734
826.904	24719
827.044	24388
827.183	24467
827.323	24308
827.462	24525
827.601	24372
827.741	24369
827.88	24353
828.02	24285
828.159	24296
828.298	24357
828.437	24376
828.577	24372
828.716	24407
828.855	24095
828.994	24201
829.134	24018
829.273	24140
829.412	24064
829.551	24011
829.69	24098
829.829	24060
829.968	24155
830.107	24106
830.246	24064
830.385	23942
830.524	24045
830.663	23798
830.802	23718
830.941	23714
831.08	23604
831.219	23813
831.357	23687
831.496	23805
831.635	23676
831.774	23638
831.913	23623
832.051	23455
832.19	23535
832.329	23372
832.467	23250
832.606	23330
832.744	23296
832.883	23307
833.022	23250
833.16	23277
833.299	23379
833.437	23387
833.576	23383
833.714	23364
833.852	23444
833.991	23444
834.129	23528
834.267	23501
834.406	23398
834.544	23376
834.682	23406
834.821	23341
834.959	23543
835.097	23425
835.235	23376
835.373	23360
835.511	23383
835.65	23265
835.788	23273
835.926	23037
836.064	23056
836.202	23143
836.34	23284
836.478	23299
836.615	23208
836.753	23235
836.891	23315
837.029	23284
837.167	23208
837.305	23151
837.443	23071
837.58	22892
837.718	23250
837.856	23102
837.993	22999
838.131	22965
838.269	22885
838.406	22991
838.544	22908
838.681	22694
838.819	22755
838.956	22542
839.094	22542
839.231	22641
839.369	22801
839.506	22900
839.643	22809
839.781	22470
839.918	22508
840.055	22611
840.193	22493
840.33	22481
840.467	22485
840.604	22504
840.742	22782
840.879	22375
841.016	22398
841.153	22390
841.29	22538
841.427	22421
841.564	22546
841.701	22542
841.838	22394
841.975	22371
842.112	22382
842.249	22306
842.385	22306
842.522	22550
842.659	22337
842.796	22318
842.933	22261
843.069	22280
843.206	22196
843.343	22280
843.479	22284
843.616	22287
843.752	21994
843.889	22029
844.025	22173
844.162	21979
844.298	22204
844.435	22044
844.571	21911
844.708	21975
844.844	22048
844.98	22105
845.117	22109
845.253	21991
845.389	21724
845.525	21842
845.661	21865
845.798	21728
845.934	21800
846.07	21728
846.206	21789
846.342	21736
846.478	21644
846.614	21511
846.75	21473
846.886	21408
847.022	21561
847.158	21504
847.294	21564
847.429	21466
847.565	21374
847.701	21694
847.837	21203
847.972	21188
848.108	21321
848.244	21313
848.379	21047
848.515	21127
848.65	21074
848.786	20960
848.921	21176
849.057	21154
849.192	20998
849.328	21051
849.463	21051
849.598	21017
849.734	20929
849.869	20880
850.004	20754
850.14	20899
850.275	20868
850.41	20724
850.545	20785
850.68	20792
850.815	20777
850.95	20838
851.085	20944
851.22	20921
851.355	20849
851.49	20716
851.625	20735
851.76	20667
851.895	20731
852.03	20811
852.165	20857
852.299	20868
852.434	20910
852.569	20758
852.703	20705
852.838	20796
852.973	20975
853.107	20952
853.242	20853
853.376	20640
853.511	20602
853.645	20579
853.78	20788
853.914	20670
854.048	20587
854.183	20655
854.317	20701
854.451	20937
854.585	20769
854.72	20571
854.854	20697
854.988	20606
855.122	20724
855.256	20552
855.39	20697
855.524	20807
855.658	20636
855.792	20640
855.926	20602
856.06	20705
856.194	20701
856.327	20678
856.461	20537
856.595	20465
856.729	20636
856.862	20716
856.996	20697
857.13	20796
857.263	20712
857.397	20826
857.53	20644
857.664	20629
857.797	20746
857.931	20697
858.064	20693
858.197	20815
858.331	20746
858.464	20461
858.597	20568
858.731	20606
858.864	20686
858.997	20632
859.13	20568
859.263	20522
859.396	20864
859.529	20575
859.662	20644
859.795	20598
859.928	20613
860.061	20838
860.194	20883
860.327	20769
860.46	20621
860.592	20823
860.725	20868
860.858	20815
860.99	20712
861.123	20507
861.256	20575
861.388	20792
861.521	21241
861.653	20526
861.786	20457
861.918	20434
862.05	20613
862.183	20514
862.315	20629
862.447	20693
862.58	20617
862.712	20339
862.844	20317
862.976	20404
863.108	20476
863.24	20826
863.372	20248
863.504	20450
863.636	20431
863.768	20434
863.9	20454
864.032	20229
864.164	20324
864.296	20473
864.428	20332
864.559	20408
864.691	20488
864.823	20423
864.954	20366
865.086	20381
865.217	20305
865.349	20305
865.48	20233
865.612	20221
865.743	20377
865.875	20252
866.006	20145
866.137	20263
866.269	20218
866.4	20267
866.531	20145
866.662	20218
866.793	20237
866.924	20320
867.055	20187
867.186	20168
867.317	20138
867.448	20111
867.579	20183
867.71	20062
867.841	20134
867.972	20168
868.103	20164
868.233	20164
868.364	20400
868.495	20332
868.625	20366
868.756	20381
868.886	20313
869.017	20423
869.147	20488
869.278	20533
869.408	20473
869.539	20419
869.669	20465
869.799	20408
869.929	20499
870.06	20644
870.19	20701
870.32	20838
870.45	20842
870.58	20872
870.71	20967
870.84	20899
870.97	20811
871.1	20834
871.23	21017
871.36	21043
871.489	20883
871.619	21154
871.749	21028
871.879	21055
872.008	21085
872.138	20971
872.267	20891
872.397	21032
872.526	20651
872.656	20861
872.785	20933
872.915	20948
873.044	21211
873.173	21051
873.303	21127
873.432	21093
873.561	21100
873.69	21039
873.819	21005
873.948	21112
874.077	21074
874.206	21093
874.335	21119
874.464	21260
874.593	21241
874.722	21161
874.851	21386
874.979	21252
875.108	21317
875.237	21313
875.365	21211
875.494	21260
875.623	21405
875.751	21351
875.88	21359
876.008	21431
876.136	21614
876.265	21797
876.393	21755
876.521	21781
876.65	21766
876.778	21888
876.906	21698
877.034	21663
877.162	21660
877.29	21538
877.418	21660
877.546	21675
877.674	21652
877.802	21762
877.93	21660
878.058	21576
878.185	21519
878.313	21587
878.441	21614
878.568	21344
878.696	21686
878.824	21629
878.951	21686
879.079	21846
879.206	21873
879.333	21918
879.461	21667
879.588	21694
879.715	21903
879.842	21857
879.97	21675
880.097	21519
880.224	21496
880.351	21534
880.478	21481
880.605	21443
880.732	21614
880.859	21614
880.986	21424
881.112	21614
881.239	21496
881.366	21192
881.493	21138
881.619	21161
881.746	21127
881.872	21100
881.999	20967
882.125	20914
882.252	21017
882.378	21093
882.505	21252
882.631	20967
882.757	20853
882.883	20811
883.01	20765
883.136	20682
883.262	20678
883.388	20533
883.514	20689
883.64	20826
883.766	20746
883.892	20537
884.018	20511
884.143	20689
884.269	20758
884.395	20514
884.52	20454
884.646	20492
884.772	20366
884.897	20309
885.023	20427
885.148	20495
885.274	20446
885.399	20564
885.524	20488
885.65	20419
885.775	20438
885.9	20324
886.025	20579
886.15	20457
886.275	20324
886.4	20381
886.525	20347
886.65	20218
886.775	20393
886.9	20484
887.025	20720
887.149	20465
887.274	20214
887.399	20161
887.523	20199
887.648	20069
887.773	20092
887.897	20195
888.021	20286
888.146	20088
888.27	20294
888.395	20259
888.519	20290
888.643	20161
888.767	20199
888.891	20161
889.015	20012
889.139	20115
889.263	19887
889.387	20069
889.511	20142
889.635	20153
889.759	19967
889.883	19959
890.006	20134
890.13	20122
890.254	19925
890.377	19989
890.501	19769
890.624	19776
890.748	19871
890.871	19643
890.995	19639
891.118	19537
891.241	19502
891.364	19605
891.488	19734
891.611	19632
891.734	19643
891.857	19685
891.98	19502
892.103	19597
892.226	19700
892.349	19575
892.471	19331
892.594	19590
892.717	19407
892.839	19563
892.962	19537
893.085	19601
893.207	19449
893.33	19377
893.452	19373
893.575	19537
893.697	19552
893.819	19613
893.941	19704
894.064	19651
894.186	19426
894.308	19434
894.43	19521
894.552	19529
894.674	19552
894.796	19472
894.918	19426
895.04	19514
895.161	19540
895.283	19552
895.405	19533
895.526	19544
895.648	19453
895.769	19559
895.891	19514
896.012	19620
896.134	19544
896.255	19426
896.376	19407
896.498	19518
896.619	19537
896.74	19582
896.861	19666
896.982	19753
897.103	19982
897.224	19811
897.345	19685
897.466	19734
897.587	19753
897.708	19871
897.828	19795
897.949	19655
898.07	19632
898.19	19731
898.311	19845
898.431	19708
898.552	19742
898.672	19776
898.792	19780
898.913	19643
899.033	19594
899.153	19491
899.273	19396
899.393	19521
899.513	19582
899.633	19597
899.753	19514
899.873	19525
899.993	19563
900.113	19434
900.232	19453
900.352	19407
900.472	19388
900.591	19259
900.711	19312
900.83	19236
900.95	19365
901.069	19251
901.189	19175
901.308	18989
901.427	18814
901.546	18913
901.665	18928
901.784	18905
901.904	18837
902.023	18601
902.141	18445
902.26	18452
902.379	18669
902.498	18445
902.617	18357
902.735	18509
902.854	18426
902.973	18365
903.091	18144
903.21	18144
903.328	18133
903.446	18038
903.565	17950
903.683	17912
903.801	17832
903.919	17847
904.038	17885
904.156	17676
904.274	17745
904.392	17600
904.51	17532
904.627	17672
904.745	17729
904.863	17722
904.981	17535
905.098	17383
905.216	17387
905.334	17414
905.451	17379
905.569	17296
905.686	17372
905.803	17368
905.921	17166
906.038	17273
906.155	17140
906.272	16968
906.389	17105
906.506	16835
906.623	16953
906.74	16927
906.857	16736
906.974	16759
907.091	16968
907.208	16953
907.324	16995
907.441	16839
907.557	16618
907.674	16626
907.79	16474
907.907	16603
908.023	16531
908.139	16641
908.256	16599
908.372	16538
908.488	16497
908.604	16363
908.72	16265
908.836	16386
908.952	16238
909.068	16382
909.184	16322
909.3	16344
909.415	16409
909.531	16303
909.647	16021
909.762	15987
909.878	16067
909.993	16017
910.108	16074
910.224	15873
910.339	16044
910.454	15934
910.57	15937
910.685	15778
910.8	16101
910.915	16097
911.03	15880
911.145	15667
911.259	15641
911.374	15667
911.489	15561
911.604	15542
911.718	15462
911.833	15462
911.947	15310
912.062	15207
912.176	15378
912.291	15469
912.405	15462
912.519	15625
912.633	15591
912.748	15435
912.862	15340
912.976	15218
913.09	15047
913.204	15218
913.318	15302
913.431	15367
913.545	15264
913.659	15363
913.772	15199
913.886	15005
914	15055
914.113	15043
914.226	15127
914.34	15085
914.453	14857
914.566	15165
914.68	14910
914.793	14861
914.906	14727
915.019	14663
915.132	14579
915.245	14575
915.358	14629
915.47	14606
915.583	14720
915.696	14617
915.809	14758
915.921	14796
916.034	14556
916.146	14465
916.259	14518
916.371	14602
916.483	14625
916.595	14541
916.708	14454
916.82	14511
916.932	14454
917.044	14457
917.156	14229
917.268	14347
917.38	14351
917.491	14252
917.603	14358
917.715	14457
917.826	14461
917.938	14301
918.049	14123
918.161	14206
918.272	14343
918.384	14332
918.495	14298
918.606	14176
918.717	14046
918.828	14115
918.939	14103
919.05	14016
919.161	14016
919.272	13913
919.383	13982
919.494	14103
919.604	14324
919.715	14103
919.826	14092
919.936	14077
920.047	14237
920.157	14043
920.267	14282
920.378	14024
920.488	14142
920.598	14252
920.708	14396
920.818	14145
920.928	14199
921.038	14347
921.148	14240
921.258	14043
921.368	13947
921.477	13696
921.587	13845
921.697	13791
921.806	13852
921.916	13731
922.025	13537
922.134	13403
922.244	13411
922.353	13491
922.462	13316
922.571	13335
922.68	13179
922.789	13069
922.898	13126
923.007	13088
923.116	13091
923.224	13110
923.333	12989
923.442	13137
923.55	12966
923.659	12932
923.767	12993
923.876	12890
923.984	13019
924.092	12856
924.201	12875
924.309	12878
924.417	12772
924.525	12795
924.633	12757
924.741	13715
924.849	12654
924.956	12776
925.064	12521
925.172	12490
925.279	12521
925.387	12608
925.494	12532
925.602	12669
925.709	12555
925.816	12391
925.924	12513
926.031	12559
926.138	12532
926.245	12578
926.352	12471
926.459	12532
926.566	12623
926.673	12448
926.779	12292
926.886	12292
926.993	12159
927.099	12125
927.206	12155
927.312	12034
927.419	12117
927.525	12152
927.631	12114
927.737	12034
927.843	11923
927.95	11878
928.056	11904
928.162	11942
928.267	12030
928.373	12642
928.479	12083
928.585	11794
928.69	11889
928.796	12053
928.901	11821
929.007	11714
929.112	11752
929.218	11748
929.323	11684
929.428	11756
929.533	11760
929.638	11573
929.743	11638
929.848	11783
929.953	11623
930.058	11528
930.163	11402
930.267	11376
930.372	11535
930.477	11349
930.581	11570
930.685	11463
930.79	11231
930.894	11292
930.998	11197
931.103	11383
931.207	11037
931.311	10961
931.415	10904
931.519	10664
931.623	10580
