Data from test_V78500241_1618.txt Node
Date: Fri Mar 25 15:21:07 CST 2022
User: usil
Spectrometer: V785-0024
Trigger mode: 0
Integration Time (sec): 4.000000E-1
Scans to average: 1
Nonlinearity correction enabled: false
Boxcar width: 0
Storing dark spectrum: false
XAxis mode: Wavelengths
Number of Pixels in Spectrum: 1024
>>>>>Begin Spectral Data<<<<<
801.071	27831
801.214	27762
801.356	27622
801.499	27542
801.641	27367
801.783	27348
801.926	27431
802.068	27424
802.211	27378
802.353	27241
802.496	27096
802.638	27104
802.78	26899
802.923	27032
803.065	26918
803.208	26952
803.35	27085
803.492	27112
803.635	27226
803.777	27077
803.919	27211
804.061	27523
804.204	27443
804.346	27313
804.488	27161
804.63	27116
804.773	27192
804.915	27256
805.057	27260
805.199	27256
805.341	27260
805.483	27401
805.626	27424
805.768	27214
805.91	27355
806.052	27412
806.194	27321
806.336	27610
806.478	27466
806.62	27336
806.762	27431
806.904	27671
807.046	27922
807.188	27713
807.33	27762
807.472	27869
807.614	27698
807.756	27800
807.898	27648
808.04	27488
808.182	27572
808.324	27652
808.465	27751
808.607	27964
808.749	27960
808.891	28055
809.033	28090
809.174	28051
809.316	27873
809.458	28040
809.6	27983
809.741	28139
809.883	28253
810.025	28150
810.166	28310
810.308	28295
810.45	28143
810.591	28204
810.733	28013
810.875	27964
811.016	27808
811.158	27892
811.299	28002
811.441	28181
811.582	28139
811.724	28025
811.865	27953
812.007	28013
812.148	27945
812.29	28013
812.431	28284
812.573	28379
812.714	28561
812.855	28462
812.997	28561
813.138	28759
813.279	28702
813.421	28550
813.562	28546
813.703	28257
813.845	28169
813.986	27998
814.127	27747
814.268	27667
814.41	27679
814.551	27595
814.692	27690
814.833	27572
814.974	27580
815.115	27789
815.256	27591
815.397	27701
815.539	27477
815.68	27507
815.821	27511
815.962	27580
816.103	27542
816.244	27435
816.385	27279
816.526	27332
816.666	27089
816.807	26899
816.948	27077
817.089	27119
817.23	27047
817.371	26982
817.512	26998
817.653	26937
817.793	27032
817.934	26956
818.075	26990
818.216	26929
818.356	26933
818.497	26739
818.638	26750
818.778	26632
818.919	26788
819.06	26842
819.2	26902
819.341	27020
819.481	26891
819.622	27142
819.762	27340
819.903	27150
820.043	27203
820.184	27199
820.324	27039
820.465	27119
820.605	27127
820.746	27214
820.886	26944
821.026	27081
821.167	27051
821.307	27116
821.447	27017
821.588	26918
821.728	26830
821.868	26640
822.008	26488
822.149	26495
822.289	26511
822.429	26248
822.569	26138
822.709	26168
822.849	25868
822.99	25959
823.13	25883
823.27	25906
823.41	25731
823.55	25818
823.69	25822
823.83	25681
823.97	25791
824.11	25582
824.25	25540
824.389	25514
824.529	25556
824.669	25689
824.809	25776
824.949	25597
825.089	25658
825.228	25632
825.368	25510
825.508	25506
825.648	25487
825.787	25552
825.927	25594
826.067	25468
826.206	25487
826.346	25597
826.485	25605
826.625	25483
826.765	25529
826.904	25632
827.044	25320
827.183	25225
827.323	25263
827.462	25282
827.601	25194
827.741	25171
827.88	25031
828.02	25107
828.159	25133
828.298	25217
828.437	25236
828.577	25103
828.716	25251
828.855	25133
828.994	24981
829.134	24901
829.273	24958
829.412	24897
829.551	24840
829.69	24924
829.829	24958
829.968	24894
830.107	25000
830.246	24795
830.385	24844
830.524	24897
830.663	24814
830.802	24658
830.941	24570
831.08	24448
831.219	24559
831.357	24528
831.496	24700
831.635	24578
831.774	24456
831.913	24338
832.051	24338
832.19	24243
832.329	24330
832.467	24182
832.606	24133
832.744	24247
832.883	24144
833.022	24148
833.16	24034
833.299	24213
833.437	24076
833.576	24418
833.714	24182
833.852	24296
833.991	24380
834.129	24330
834.267	24308
834.406	24163
834.544	24247
834.682	24228
834.821	24186
834.959	24372
835.097	24213
835.235	24243
835.373	24239
835.511	24285
835.65	24136
835.788	24057
835.926	23889
836.064	23760
836.202	23874
836.34	24018
836.478	24125
836.615	24030
836.753	24068
836.891	24125
837.029	24106
837.167	24041
837.305	23973
837.443	23939
837.58	23901
837.718	23958
837.856	23802
837.993	23908
838.131	23950
838.269	23821
838.406	23882
838.544	23695
838.681	23570
838.819	23611
838.956	23467
839.094	23356
839.231	23448
839.369	23520
839.506	23767
839.643	23638
839.781	23414
839.918	23136
840.055	23341
840.193	23322
840.33	23261
840.467	23280
840.604	23258
840.742	23478
840.879	23048
841.016	23246
841.153	23200
841.29	23402
841.427	23387
841.564	23193
841.701	23292
841.838	23181
841.975	23136
842.112	23174
842.249	22999
842.385	23018
842.522	23216
842.659	23052
842.796	23090
842.933	23033
843.069	23014
843.206	23067
843.343	23189
843.479	23094
843.616	23018
843.752	22740
843.889	22824
844.025	22984
844.162	22885
844.298	23041
844.435	22889
844.571	22740
844.708	22850
844.844	23022
844.98	23022
845.117	22961
845.253	22679
845.389	22805
845.525	22847
845.661	22630
845.798	22493
845.934	22611
846.07	22466
846.206	22519
846.342	22767
846.478	22550
846.614	22348
846.75	22276
846.886	22268
847.022	22398
847.158	22344
847.294	22363
847.429	22390
847.565	22219
847.701	22500
847.837	21979
847.972	22006
848.108	22025
848.244	22021
848.379	21873
848.515	21884
848.65	21774
848.786	21915
848.921	21945
849.057	22040
849.192	21888
849.328	21911
849.463	21797
849.598	21915
849.734	21835
849.869	21747
850.004	21667
850.14	21641
850.275	21591
850.41	21580
850.545	21443
850.68	21576
850.815	21614
850.95	21686
851.085	21755
851.22	21667
851.355	21709
851.49	21675
851.625	21534
851.76	21492
851.895	21439
852.03	21538
852.165	21713
852.299	21698
852.434	21618
852.569	21667
852.703	21656
852.838	21759
852.973	21755
853.107	21713
853.242	21618
853.376	21477
853.511	21268
853.645	21401
853.78	21606
853.914	21492
854.048	21523
854.183	21412
854.317	21549
854.451	21542
854.585	21401
854.72	21405
854.854	21530
854.988	21439
855.122	21435
855.256	21378
855.39	21504
855.524	21629
855.658	21561
855.792	21389
855.926	21580
856.06	21416
856.194	21443
856.327	21549
856.461	21363
856.595	21386
856.729	21401
856.862	21690
856.996	21359
857.13	21580
857.263	21561
857.397	21481
857.53	21454
857.664	21420
857.797	21447
857.931	21534
858.064	21454
858.197	21614
858.331	21397
858.464	21485
858.597	21336
858.731	21454
858.864	21363
858.997	21443
859.13	21561
859.263	21519
859.396	21504
859.529	21439
859.662	21306
859.795	21329
859.928	21545
860.061	21542
860.194	21713
860.327	21466
860.46	21481
860.592	21492
860.725	21603
860.858	21622
860.99	21431
861.123	21519
861.256	21466
861.388	21378
861.521	22147
861.653	21203
861.786	21355
861.918	21237
862.05	21355
862.183	21317
862.315	21428
862.447	21420
862.58	21416
862.712	21203
862.844	21165
862.976	21211
863.108	21199
863.24	21485
863.372	21161
863.504	21146
863.636	21055
863.768	21245
863.9	21188
864.032	21203
864.164	21146
864.296	21123
864.428	21252
864.559	21279
864.691	21279
864.823	21123
864.954	21116
865.086	21127
865.217	21043
865.349	20948
865.48	21039
865.612	21036
865.743	21230
865.875	21070
866.006	21089
866.137	20994
866.269	20990
866.4	21055
866.531	20979
866.662	21085
866.793	20982
866.924	21093
867.055	21013
867.186	21005
867.317	20937
867.448	20933
867.579	21058
867.71	20910
867.841	20777
867.972	21043
868.103	20941
868.233	20883
868.364	20990
868.495	21005
868.625	21131
868.756	21405
868.886	21173
869.017	21260
869.147	21359
869.278	21294
869.408	21173
869.539	21230
869.669	21321
869.799	21116
869.929	21329
870.06	21359
870.19	21580
870.32	21500
870.45	21614
870.58	21637
870.71	21618
870.84	21690
870.97	21732
871.1	21599
871.23	21743
871.36	21865
871.489	21751
871.619	21736
871.749	21880
871.879	21869
872.008	21895
872.138	21797
872.267	21819
872.397	21614
872.526	21656
872.656	21686
872.785	21625
872.915	21831
873.044	21994
873.173	21922
873.303	21983
873.432	21827
873.561	21956
873.69	21884
873.819	21823
873.948	21895
874.077	21903
874.206	21694
874.335	21797
874.464	21922
874.593	22070
874.722	22021
874.851	22059
874.979	22032
875.108	22177
875.237	21994
875.365	21880
875.494	22139
875.623	22166
875.751	21987
875.88	21998
876.008	22135
876.136	22265
876.265	22348
876.393	22497
876.521	22478
876.65	22542
876.778	22504
876.906	22386
877.034	22493
877.162	22451
877.29	22394
877.418	22352
877.546	22398
877.674	22489
877.802	22519
877.93	22402
878.058	22314
878.185	22318
878.313	22379
878.441	22386
878.568	22261
878.696	22341
878.824	22451
878.951	22523
879.079	22618
879.206	22653
879.333	22531
879.461	22413
879.588	22409
879.715	22618
879.842	22660
879.97	22561
880.097	22226
880.224	22128
880.351	22367
880.478	22314
880.605	22128
880.732	22169
880.859	22398
880.986	22177
881.112	22329
881.239	22017
881.366	22013
881.493	21842
881.619	21892
881.746	21770
881.872	21884
881.999	21728
882.125	21751
882.252	21778
882.378	21724
882.505	21827
882.631	21759
882.757	21591
882.883	21629
883.01	21382
883.136	21466
883.262	21397
883.388	21226
883.514	21530
883.64	21599
883.766	21397
883.892	21245
884.018	21287
884.143	21481
884.269	21424
884.395	21195
884.52	21146
884.646	21226
884.772	21081
884.897	21020
885.023	21150
885.148	21184
885.274	21348
885.399	21214
885.524	21161
885.65	21203
885.775	21165
885.9	21116
886.025	21218
886.15	21260
886.275	21096
886.4	21070
886.525	21058
886.65	20952
886.775	21081
886.9	21203
887.025	21378
887.149	21131
887.274	20880
887.399	20872
887.523	20906
887.648	20792
887.773	20872
887.897	21070
888.021	20880
888.146	20902
888.27	20994
888.395	20895
888.519	20826
888.643	20948
888.767	20921
888.891	20807
889.015	20708
889.139	20830
889.263	20560
889.387	20815
889.511	20834
889.635	20880
889.759	20678
889.883	20781
890.006	20758
890.13	20811
890.254	20640
890.377	20697
890.501	20469
890.624	20267
890.748	20549
890.871	20415
890.995	20267
891.118	20221
891.241	20393
891.364	20419
891.488	20336
891.611	20172
891.734	20259
891.857	20393
891.98	20286
892.103	20221
892.226	20248
892.349	20138
892.471	20096
892.594	20237
892.717	20358
892.839	20282
892.962	20229
893.085	20210
893.207	20252
893.33	20092
893.452	20096
893.575	20317
893.697	20221
893.819	20298
893.941	20461
894.064	20256
894.186	20161
894.308	20237
894.43	20244
894.552	20339
894.674	20221
894.796	20073
894.918	20195
895.04	20039
895.161	20183
895.283	20134
895.405	19997
895.526	20229
895.648	20134
895.769	20290
895.891	20351
896.012	20305
896.134	20229
896.255	20142
896.376	20107
896.498	20164
896.619	20206
896.74	20153
896.861	20263
896.982	20381
897.103	20625
897.224	20457
897.345	20412
897.466	20180
897.587	20362
897.708	20499
897.828	20324
897.949	20263
898.07	20161
898.19	20305
898.311	20480
898.431	20351
898.552	20328
898.672	20454
898.792	20431
898.913	20549
899.033	20347
899.153	20324
899.273	20100
899.393	20199
899.513	20100
899.633	20161
899.753	20195
899.873	20126
899.993	20065
900.113	20088
900.232	20107
900.352	20187
900.472	19986
900.591	19955
900.711	19894
900.83	19868
900.95	19913
901.069	20062
901.189	19814
901.308	19487
901.427	19537
901.546	19491
901.665	19529
901.784	19480
901.904	19350
902.023	19316
902.141	19114
902.26	18977
902.379	19107
902.498	19004
902.617	18970
902.735	18989
902.854	19012
902.973	18928
903.091	18677
903.21	18475
903.328	18688
903.446	18582
903.565	18456
903.683	18555
903.801	18334
903.919	18456
904.038	18311
904.156	18254
904.274	18330
904.392	18308
904.51	18285
904.627	18194
904.745	18273
904.863	18350
904.981	18015
905.098	17954
905.216	17904
905.334	17939
905.451	17882
905.569	17863
905.686	17954
905.803	17935
905.921	17775
906.038	17817
906.155	17821
906.272	17661
906.389	17676
906.506	17627
906.623	17452
906.74	17471
906.857	17200
906.974	17414
907.091	17459
907.208	17520
907.324	17391
907.441	17356
907.557	17334
907.674	17140
907.79	17045
907.907	17086
908.023	17231
908.139	17220
908.256	17208
908.372	17071
908.488	17010
908.604	16908
908.72	16911
908.836	16930
908.952	16877
909.068	16801
909.184	16938
909.3	16801
909.415	16881
909.531	16980
909.647	16580
909.762	16573
909.878	16546
909.993	16592
910.108	16561
910.224	16527
910.339	16527
910.454	16428
910.57	16386
910.685	16341
910.8	16698
910.915	16508
911.03	16417
911.145	16299
911.259	16131
911.374	16257
911.489	16071
911.604	16040
911.718	15972
911.833	15983
911.947	15869
912.062	15755
912.176	15854
912.291	15941
912.405	15842
912.519	15987
912.633	16021
912.748	16029
912.862	15983
912.976	15846
913.09	15641
913.204	15648
913.318	15736
913.431	15869
913.545	15770
913.659	15956
913.772	15709
913.886	15652
914	15504
914.113	15553
914.226	15614
914.34	15538
914.453	15447
914.566	15568
914.68	15374
914.793	15386
914.906	15321
915.019	15157
915.132	14990
915.245	15093
915.358	15157
915.47	15226
915.583	15157
915.696	15089
915.809	15275
915.921	15313
916.034	15074
916.146	14998
916.259	15077
916.371	15047
916.483	15051
916.595	14941
916.708	14975
916.82	15070
916.932	14872
917.044	14941
917.156	14941
917.268	14777
917.38	14800
917.491	14743
917.603	14899
917.715	14845
917.826	14880
917.938	14727
918.049	14705
918.161	14701
918.272	14929
918.384	14902
918.495	14788
918.606	14667
918.717	14560
918.828	14522
918.939	14564
919.05	14480
919.161	14629
919.272	14313
919.383	14412
919.494	14602
919.604	14731
919.715	14571
919.826	14552
919.936	14549
920.047	14667
920.157	14511
920.267	14636
920.378	14469
920.488	14514
920.598	14686
920.708	14804
920.818	14644
920.928	14689
921.038	14868
921.148	14781
921.258	14476
921.368	14434
921.477	14259
921.587	14206
921.697	14134
921.806	14183
921.916	14172
922.025	13898
922.134	13928
922.244	13951
922.353	13913
922.462	13852
922.571	13696
922.68	13643
922.789	13605
922.898	13529
923.007	13540
923.116	13575
923.224	13468
923.333	13449
923.442	13362
923.55	13358
923.659	13415
923.767	13472
923.876	13343
923.984	13434
924.092	13209
924.201	13327
924.309	13213
924.417	13320
924.525	13126
924.633	13141
924.741	14020
924.849	13031
924.956	13202
925.064	13080
925.172	12970
925.279	12886
925.387	13061
925.494	12878
925.602	13137
925.709	12970
925.816	12798
925.924	12935
926.031	13031
926.138	12886
926.245	12924
926.352	12810
926.459	12852
926.566	13019
926.673	12848
926.779	12692
926.886	12730
926.993	12589
927.099	12540
927.206	12513
927.312	12536
927.419	12582
927.525	12479
927.631	12540
927.737	12410
927.843	12369
927.95	12308
928.056	12338
928.162	12365
928.267	12353
928.373	12989
928.479	12528
928.585	12121
928.69	12247
928.796	12311
928.901	12273
929.007	11999
929.112	12228
929.218	12163
929.323	12064
929.428	12030
929.533	12167
929.638	11992
929.743	11992
929.848	12076
929.953	12007
930.058	11878
930.163	11703
930.267	11828
930.372	11889
930.477	11688
930.581	11950
930.685	11855
930.79	11657
930.894	11714
930.998	11707
931.103	11695
931.207	11444
931.311	11345
931.415	11223
931.519	10987
931.623	10991
