Data from test_V78500241_308.txt Node
Date: Fri Mar 25 15:12:00 CST 2022
User: usil
Spectrometer: V785-0024
Trigger mode: 0
Integration Time (sec): 4.000000E-1
Scans to average: 1
Nonlinearity correction enabled: false
Boxcar width: 0
Storing dark spectrum: false
XAxis mode: Wavelengths
Number of Pixels in Spectrum: 1024
>>>>>Begin Spectral Data<<<<<
801.071	27332
801.214	27096
801.356	27028
801.499	26937
801.641	26701
801.783	26743
801.926	26899
802.068	26670
802.211	26708
802.353	26598
802.496	26461
802.638	26514
802.78	26465
802.923	26377
803.065	26347
803.208	26381
803.35	26377
803.492	26450
803.635	26473
803.777	26419
803.919	26522
804.061	26845
804.204	26488
804.346	26404
804.488	26476
804.63	26385
804.773	26351
804.915	26495
805.057	26465
805.199	26507
805.341	26575
805.483	26746
805.626	26689
805.768	26465
805.91	26503
806.052	26724
806.194	26488
806.336	26701
806.478	26594
806.62	26476
806.762	26712
806.904	26940
807.046	27020
807.188	27032
807.33	26883
807.472	27116
807.614	26853
807.756	26918
807.898	26746
808.04	26701
808.182	26845
808.324	26823
808.465	26773
808.607	27036
808.749	27154
808.891	27165
809.033	27344
809.174	27306
809.316	27127
809.458	27154
809.6	27074
809.741	27161
809.883	27154
810.025	27469
810.166	27355
810.308	27416
810.45	27287
810.591	27310
810.733	27222
810.875	27024
811.016	27039
811.158	26940
811.299	27123
811.441	27279
811.582	27249
811.724	27104
811.865	27039
812.007	27047
812.148	27112
812.29	27192
812.431	27233
812.573	27348
812.714	27485
812.855	27553
812.997	27591
813.138	27739
813.279	27713
813.421	27675
813.562	27580
813.703	27458
813.845	27291
813.986	27005
814.127	26762
814.268	26758
814.41	26590
814.551	26731
814.692	26788
814.833	26549
814.974	26762
815.115	26705
815.256	26488
815.397	26655
815.539	26560
815.68	26556
815.821	26434
815.962	26503
816.103	26545
816.244	26461
816.385	26358
816.526	26290
816.666	26092
816.807	25826
816.948	26191
817.089	26161
817.23	26012
817.371	25845
817.512	25879
817.653	25890
817.793	25894
817.934	25913
818.075	25963
818.216	25925
818.356	25883
818.497	25776
818.638	25685
818.778	25643
818.919	25734
819.06	25738
819.2	25879
819.341	25807
819.481	25784
819.622	26039
819.762	26328
819.903	26187
820.043	26001
820.184	26020
820.324	26100
820.465	26153
820.605	25940
820.746	26012
820.886	25868
821.026	25932
821.167	25883
821.307	26069
821.447	25826
821.588	25742
821.728	25658
821.868	25502
822.008	25400
822.149	25354
822.289	25335
822.429	25152
822.569	24939
822.709	24977
822.849	24882
822.99	24920
823.13	24875
823.27	24840
823.41	24692
823.55	24620
823.69	24612
823.83	24578
823.97	24467
824.11	24414
824.25	24490
824.389	24391
824.529	24525
824.669	24471
824.809	24551
824.949	24574
825.089	24566
825.228	24464
825.368	24327
825.508	24232
825.648	24369
825.787	24315
825.927	24429
826.067	24391
826.206	24395
826.346	24361
826.485	24254
826.625	24365
826.765	24505
826.904	24388
827.044	24136
827.183	24095
827.323	23882
827.462	23996
827.601	23984
827.741	23923
827.88	24015
828.02	23958
828.159	23958
828.298	23984
828.437	24136
828.577	23988
828.716	24018
828.855	24007
828.994	23710
829.134	23703
829.273	23703
829.412	23707
829.551	23668
829.69	23722
829.829	23710
829.968	23805
830.107	23767
830.246	23767
830.385	23710
830.524	23600
830.663	23474
830.802	23436
830.941	23379
831.08	23315
831.219	23501
831.357	23299
831.496	23589
831.635	23322
831.774	23254
831.913	23193
832.051	23140
832.19	23189
832.329	23128
832.467	23117
832.606	22915
832.744	22892
832.883	23113
833.022	23033
833.16	22999
833.299	23121
833.437	23025
833.576	23060
833.714	22957
833.852	23193
833.991	23147
834.129	23128
834.267	23022
834.406	23083
834.544	23029
834.682	23048
834.821	22965
834.959	23094
835.097	22946
835.235	23052
835.373	23044
835.511	22980
835.65	22820
835.788	22900
835.926	22801
836.064	22664
836.202	22641
836.34	22892
836.478	22896
836.615	22949
836.753	22866
836.891	22828
837.029	22961
837.167	22858
837.305	22782
837.443	22736
837.58	22858
837.718	22904
837.856	22786
837.993	22691
838.131	22645
838.269	22634
838.406	22588
838.544	22603
838.681	22417
838.819	22432
838.956	22268
839.094	22147
839.231	22284
839.369	22333
839.506	22550
839.643	22356
839.781	22173
839.918	22207
840.055	22135
840.193	22215
840.33	22109
840.467	22128
840.604	22055
840.742	22394
840.879	21994
841.016	22124
841.153	22093
841.29	22280
841.427	22128
841.564	22051
841.701	22124
841.838	22166
841.975	21888
842.112	21972
842.249	21884
842.385	21850
842.522	22150
842.659	21892
842.796	21808
842.933	21728
843.069	21755
843.206	21785
843.343	21838
843.479	21739
843.616	21774
843.752	21622
843.889	21595
844.025	21736
844.162	21473
844.298	21671
844.435	21603
844.571	21473
844.708	21629
844.844	21789
844.98	21804
845.117	21736
845.253	21606
845.389	21568
845.525	21515
845.661	21538
845.798	21340
845.934	21348
846.07	21420
846.206	21363
846.342	21462
846.478	21211
846.614	21157
846.75	20944
846.886	21089
847.022	21180
847.158	21062
847.294	21104
847.429	21173
847.565	21028
847.701	21275
847.837	20765
847.972	20724
848.108	20921
848.244	20929
848.379	20708
848.515	20655
848.65	20678
848.786	20632
848.921	20724
849.057	20708
849.192	20830
849.328	20807
849.463	20727
849.598	20613
849.734	20621
849.869	20579
850.004	20313
850.14	20492
850.275	20396
850.41	20320
850.545	20347
850.68	20412
850.815	20492
850.95	20415
851.085	20636
851.22	20568
851.355	20385
851.49	20385
851.625	20381
851.76	20351
851.895	20351
852.03	20309
852.165	20305
852.299	20480
852.434	20530
852.569	20480
852.703	20480
852.838	20374
852.973	20507
853.107	20488
853.242	20427
853.376	20263
853.511	20168
853.645	20142
853.78	20473
853.914	20324
854.048	20103
854.183	20199
854.317	20347
854.451	20355
854.585	20153
854.72	20259
854.854	20301
854.988	20263
855.122	20237
855.256	20073
855.39	20233
855.524	20290
855.658	20282
855.792	20240
855.926	20263
856.06	20336
856.194	20454
856.327	20210
856.461	20142
856.595	20225
856.729	20161
856.862	20370
856.996	20263
857.13	20324
857.263	20355
857.397	20385
857.53	20248
857.664	20263
857.797	20252
857.931	20317
858.064	20313
858.197	20332
858.331	20161
858.464	20157
858.597	20100
858.731	20195
858.864	20126
858.997	20168
859.13	20248
859.263	20320
859.396	20412
859.529	20153
859.662	20202
859.795	20103
859.928	20176
860.061	20313
860.194	20358
860.327	20202
860.46	20298
860.592	20301
860.725	20339
860.858	20320
860.99	20191
861.123	20172
861.256	20218
861.388	20347
861.521	20785
861.653	20096
861.786	19982
861.918	20058
862.05	20195
862.183	20145
862.315	20218
862.447	20221
862.58	20081
862.712	19947
862.844	19921
862.976	19997
863.108	20005
863.24	20442
863.372	19887
863.504	20024
863.636	19967
863.768	19932
863.9	19921
864.032	19833
864.164	19852
864.296	19898
864.428	20027
864.559	19989
864.691	20092
864.823	19875
864.954	19913
865.086	19951
865.217	19780
865.349	19750
865.48	19890
865.612	19818
865.743	20062
865.875	19887
866.006	19788
866.137	19788
866.269	19849
866.4	19807
866.531	19731
866.662	19727
866.793	19746
866.924	19769
867.055	19925
867.186	19818
867.317	19780
867.448	19655
867.579	19734
867.71	19795
867.841	19677
867.972	19811
868.103	19753
868.233	19841
868.364	19845
868.495	19830
868.625	19947
868.756	20210
868.886	19936
869.017	19982
869.147	20202
869.278	20225
869.408	20073
869.539	20043
869.669	20187
869.799	20024
869.929	20119
870.06	20050
870.19	20324
870.32	20225
870.45	20313
870.58	20381
870.71	20537
870.84	20552
870.97	20339
871.1	20412
871.23	20568
871.36	20609
871.489	20423
871.619	20606
871.749	20659
871.879	20762
872.008	20625
872.138	20541
872.267	20632
872.397	20522
872.526	20480
872.656	20419
872.785	20507
872.915	20549
873.044	20552
873.173	20625
873.303	20617
873.432	20602
873.561	20750
873.69	20549
873.819	20617
873.948	20712
874.077	20602
874.206	20693
874.335	20560
874.464	20849
874.593	21020
874.722	20659
874.851	20990
874.979	20960
875.108	20925
875.237	20864
875.365	20758
875.494	20845
875.623	20857
875.751	20864
875.88	20864
876.008	21017
876.136	21093
876.265	21283
876.393	21412
876.521	21374
876.65	21245
876.778	21310
876.906	21226
877.034	21123
877.162	21180
877.29	21203
877.418	21233
877.546	21325
877.674	21226
877.802	21279
877.93	21207
878.058	21245
878.185	21077
878.313	21192
878.441	21260
878.568	21123
878.696	21207
878.824	21272
878.951	21287
879.079	21435
879.206	21526
879.333	21317
879.461	21230
879.588	21329
879.715	21329
879.842	21450
879.97	21252
880.097	21150
880.224	21043
880.351	21142
880.478	21039
880.605	20948
880.732	21036
880.859	21317
880.986	21135
881.112	21108
881.239	20918
881.366	20815
881.493	20785
881.619	20804
881.746	20720
881.872	20609
881.999	20583
882.125	20495
882.252	20674
882.378	20632
882.505	20815
882.631	20454
882.757	20377
882.883	20552
883.01	20336
883.136	20324
883.262	20278
883.388	20138
883.514	20393
883.64	20488
883.766	20259
883.892	20206
884.018	20126
884.143	20423
884.269	20431
884.395	20088
884.52	20031
884.646	19887
884.772	19917
884.897	20016
885.023	19951
885.148	20107
885.274	20180
885.399	20187
885.524	19989
885.65	20058
885.775	20005
885.9	19993
886.025	20054
886.15	20046
886.275	19970
886.4	19917
886.525	19947
886.65	19841
886.775	19909
886.9	20073
887.025	20157
887.149	20084
887.274	19769
887.399	19826
887.523	19662
887.648	19738
887.773	19742
887.897	19925
888.021	19818
888.146	19753
888.27	19902
888.395	19932
888.519	19822
888.643	19868
888.767	19833
888.891	19731
889.015	19662
889.139	19628
889.263	19601
889.387	19685
889.511	19803
889.635	19666
889.759	19491
889.883	19601
890.006	19575
890.13	19799
890.254	19559
890.377	19548
890.501	19320
890.624	19259
890.748	19472
890.871	19183
890.995	19236
891.118	19156
891.241	19099
891.364	19194
891.488	19354
891.611	19175
891.734	19160
891.857	19240
891.98	19122
892.103	19217
892.226	19225
892.349	19156
892.471	18977
892.594	19061
892.717	19118
892.839	19088
892.962	19129
893.085	19206
893.207	19148
893.33	18989
893.452	18951
893.575	19107
893.697	19110
893.819	19236
893.941	19240
894.064	19228
894.186	19084
894.308	19053
894.43	19168
894.552	19255
894.674	19190
894.796	19038
894.918	19000
895.04	19061
895.161	19244
895.283	19225
895.405	19156
895.526	19148
895.648	19129
895.769	19228
895.891	19080
896.012	19091
896.134	19099
896.255	19187
896.376	19019
896.498	19183
896.619	19126
896.74	19065
896.861	19331
896.982	19430
897.103	19605
897.224	19419
897.345	19327
897.466	19339
897.587	19388
897.708	19525
897.828	19377
897.949	19251
898.07	19304
898.19	19240
898.311	19464
898.431	19293
898.552	19422
898.672	19430
898.792	19422
898.913	19346
899.033	19282
899.153	19095
899.273	19031
899.393	19114
899.513	19183
899.633	19103
899.753	19168
899.873	19057
899.993	19126
900.113	19027
900.232	19069
900.352	19012
900.472	18939
900.591	18882
900.711	18935
900.83	18878
900.95	19012
901.069	18989
901.189	18897
901.308	18544
901.427	18418
901.546	18509
901.665	18479
901.784	18483
901.904	18361
902.023	18319
902.141	18091
902.26	17958
902.379	18057
902.498	18053
902.617	18015
902.735	18106
902.854	18041
902.973	17847
903.091	17608
903.21	17786
903.328	17687
903.446	17714
903.565	17509
903.683	17512
903.801	17433
903.919	17463
904.038	17474
904.156	17307
904.274	17284
904.392	17318
904.51	17265
904.627	17185
904.745	17303
904.863	17307
904.981	17212
905.098	17045
905.216	17003
905.334	17094
905.451	17045
905.569	16965
905.686	16965
905.803	16919
905.921	16744
906.038	16877
906.155	16782
906.272	16561
906.389	16782
906.506	16508
906.623	16466
906.74	16405
906.857	16485
906.974	16497
907.091	16558
907.208	16599
907.324	16550
907.441	16303
907.557	16211
907.674	16219
907.79	16238
907.907	16230
908.023	16276
908.139	16185
908.256	16173
908.372	16234
908.488	16032
908.604	15934
908.72	15991
908.836	15937
908.952	15816
909.068	15869
909.184	15979
909.3	15888
909.415	15972
909.531	16010
909.647	15660
909.762	15686
909.878	15679
909.993	15690
910.108	15686
910.224	15580
910.339	15557
910.454	15504
910.57	15473
910.685	15374
910.8	15660
910.915	15534
911.03	15462
911.145	15329
911.259	15241
911.374	15150
911.489	15020
911.604	15146
911.718	14921
911.833	14979
911.947	14872
912.062	14788
912.176	14956
912.291	15051
912.405	14994
912.519	15104
912.633	15161
912.748	15093
912.862	15009
912.976	14845
913.09	14758
913.204	14773
913.318	14781
913.431	14849
913.545	14910
913.659	14895
913.772	14750
913.886	14640
914	14568
914.113	14754
914.226	14754
914.34	14708
914.453	14541
914.566	14804
914.68	14503
914.793	14552
914.906	14351
915.019	14218
915.132	14240
915.245	14187
915.358	14199
915.47	14168
915.583	14286
915.696	14286
915.809	14427
915.921	14431
916.034	14233
916.146	14229
916.259	14134
916.371	14244
916.483	14180
916.595	14012
916.708	14062
916.82	14062
916.932	14062
917.044	14092
917.156	14092
917.268	13887
917.38	13906
917.491	13947
917.603	13921
917.715	13997
917.826	13947
917.938	13883
918.049	13784
918.161	13841
918.272	13993
918.384	13944
918.495	13917
918.606	13681
918.717	13632
918.828	13803
918.939	13814
919.05	13685
919.161	13791
919.272	13620
919.383	13674
919.494	13757
919.604	13849
919.715	13734
919.826	13677
919.936	13681
920.047	13704
920.157	13712
920.267	13902
920.378	13677
920.488	13578
920.598	13833
920.708	13951
920.818	13852
920.928	13814
921.038	13944
921.148	13807
921.258	13765
921.368	13514
921.477	13464
921.587	13411
921.697	13324
921.806	13468
921.916	13255
922.025	13133
922.134	13095
922.244	13076
922.353	13065
922.462	12951
922.571	12932
922.68	12662
922.789	12757
922.898	12741
923.007	12665
923.116	12711
923.224	12719
923.333	12730
923.442	12620
923.55	12528
923.659	12578
923.767	12662
923.876	12471
923.984	12597
924.092	12410
924.201	12410
924.309	12502
924.417	12486
924.525	12456
924.633	12433
924.741	13240
924.849	12334
924.956	12350
925.064	12334
925.172	12152
925.279	12224
925.387	12228
925.494	12239
925.602	12277
925.709	12243
925.816	12057
925.924	12163
926.031	12281
926.138	12194
926.245	12136
926.352	12098
926.459	12167
926.566	12163
926.673	12041
926.779	11999
926.886	12045
926.993	11863
927.099	11802
927.206	11786
927.312	11745
927.419	11821
927.525	11809
927.631	11760
927.737	11604
927.843	11714
927.95	11600
928.056	11642
928.162	11608
928.267	11699
928.373	12281
928.479	11745
928.585	11486
928.69	11589
928.796	11665
928.901	11520
929.007	11341
929.112	11535
929.218	11520
929.323	11376
929.428	11315
929.533	11486
929.638	11349
929.743	11277
929.848	11341
929.953	11292
930.058	11391
930.163	11010
930.267	11098
930.372	11258
930.477	11048
930.581	11299
930.685	11151
930.79	10915
930.894	11029
930.998	10934
931.103	11052
931.207	10714
931.311	10649
931.415	10489
931.519	10337
931.623	10382
