Data from test_V78500241_2370.txt Node
Date: Fri Mar 25 15:26:21 CST 2022
User: usil
Spectrometer: V785-0024
Trigger mode: 0
Integration Time (sec): 4.000000E-1
Scans to average: 1
Nonlinearity correction enabled: false
Boxcar width: 0
Storing dark spectrum: false
XAxis mode: Wavelengths
Number of Pixels in Spectrum: 1024
>>>>>Begin Spectral Data<<<<<
801.071	27496
801.214	27298
801.356	27176
801.499	27119
801.641	26906
801.783	26963
801.926	26986
802.068	26963
802.211	26963
802.353	26899
802.496	26636
802.638	26689
802.78	26594
802.923	26514
803.065	26393
803.208	26705
803.35	26697
803.492	26724
803.635	26838
803.777	26670
803.919	26910
804.061	27070
804.204	26834
804.346	26678
804.488	26727
804.63	26895
804.773	26758
804.915	26804
805.057	26845
805.199	26731
805.341	26815
805.483	26933
805.626	26853
805.768	26788
805.91	26990
806.052	26914
806.194	26864
806.336	27036
806.478	26937
806.62	26960
806.762	27081
806.904	27127
807.046	27462
807.188	27268
807.33	27329
807.472	27481
807.614	27207
807.756	27294
807.898	27207
808.04	27150
808.182	27169
808.324	27222
808.465	27260
808.607	27412
808.749	27576
808.891	27458
809.033	27660
809.174	27580
809.316	27450
809.458	27408
809.6	27386
809.741	27603
809.883	27675
810.025	27869
810.166	27884
810.308	27778
810.45	27713
810.591	27644
810.733	27504
810.875	27500
811.016	27382
811.158	27439
811.299	27519
811.441	27557
811.582	27667
811.724	27477
811.865	27496
812.007	27447
812.148	27348
812.29	27401
812.431	27739
812.573	27854
812.714	27850
812.855	27895
812.997	28143
813.138	28226
813.279	28097
813.421	28192
813.562	27914
813.703	27930
813.845	27698
813.986	27507
814.127	27283
814.268	27180
814.41	27294
814.551	27165
814.692	27195
814.833	27154
814.974	27055
815.115	27336
815.256	27096
815.397	27013
815.539	26986
815.68	26944
815.821	26899
815.962	26891
816.103	26940
816.244	26731
816.385	26777
816.526	26773
816.666	26549
816.807	26381
816.948	26488
817.089	26518
817.23	26514
817.371	26393
817.512	26415
817.653	26457
817.793	26389
817.934	26495
818.075	26480
818.216	26412
818.356	26336
818.497	26374
818.638	26214
818.778	26172
818.919	26263
819.06	26199
819.2	26313
819.341	26396
819.481	26442
819.622	26629
819.762	26788
819.903	26686
820.043	26533
820.184	26545
820.324	26606
820.465	26689
820.605	26712
820.746	26461
820.886	26457
821.026	26366
821.167	26423
821.307	26457
821.447	26533
821.588	26301
821.728	26191
821.868	25978
822.008	26077
822.149	25986
822.289	25890
822.429	25666
822.569	25563
822.709	25537
822.849	25441
822.99	25339
823.13	25491
823.27	25441
823.41	25236
823.55	25251
823.69	25274
823.83	25232
823.97	25148
824.11	25110
824.25	24992
824.389	25053
824.529	25278
824.669	25118
824.809	25012
824.949	24981
825.089	25209
825.228	25069
825.368	24837
825.508	24859
825.648	24977
825.787	25038
825.927	24985
826.067	25031
826.206	24795
826.346	24833
826.485	24989
826.625	24871
826.765	25038
826.904	24844
827.044	24661
827.183	24620
827.323	24631
827.462	24749
827.601	24669
827.741	24574
827.88	24631
828.02	24608
828.159	24505
828.298	24642
828.437	24627
828.577	24505
828.716	24616
828.855	24483
828.994	24391
829.134	24334
829.273	24437
829.412	24300
829.551	24346
829.69	24426
829.829	24319
829.968	24403
830.107	24190
830.246	24441
830.385	24155
830.524	24258
830.663	24266
830.802	24053
830.941	23958
831.08	23840
831.219	24072
831.357	23958
831.496	24239
831.635	23931
831.774	23901
831.913	23802
832.051	23745
832.19	23767
832.329	23703
832.467	23585
832.606	23642
832.744	23528
832.883	23611
833.022	23551
833.16	23615
833.299	23596
833.437	23562
833.576	23695
833.714	23562
833.852	23756
833.991	23646
834.129	23737
834.267	23798
834.406	23680
834.544	23699
834.682	23691
834.821	23585
834.959	23885
835.097	23661
835.235	23710
835.373	23619
835.511	23646
835.65	23562
835.788	23581
835.926	23395
836.064	23239
836.202	23364
836.34	23543
836.478	23627
836.615	23493
836.753	23657
836.891	23615
837.029	23528
837.167	23577
837.305	23467
837.443	23433
837.58	23509
837.718	23337
837.856	23330
837.993	23239
838.131	23356
838.269	23269
838.406	23395
838.544	23159
838.681	23121
838.819	22984
838.956	22869
839.094	22824
839.231	22942
839.369	22965
839.506	23159
839.643	23022
839.781	22892
839.918	22744
840.055	22828
840.193	22881
840.33	22862
840.467	22774
840.604	22759
840.742	23071
840.879	22622
841.016	22596
841.153	22630
841.29	22896
841.427	22717
841.564	22869
841.701	22759
841.838	22664
841.975	22599
842.112	22675
842.249	22630
842.385	22584
842.522	22748
842.659	22402
842.796	22535
842.933	22497
843.069	22561
843.206	22489
843.343	22729
843.479	22356
843.616	22569
843.752	22192
843.889	22322
844.025	22398
844.162	22382
844.298	22447
844.435	22398
844.571	22249
844.708	22394
844.844	22497
844.98	22443
845.117	22371
845.253	22173
845.389	22097
845.525	22215
845.661	22059
845.798	22074
845.934	22078
846.07	22112
846.206	22097
846.342	22219
846.478	22059
846.614	21816
846.75	21778
846.886	21656
847.022	21884
847.158	21846
847.294	21747
847.429	21770
847.565	21785
847.701	21911
847.837	21496
847.972	21534
848.108	21549
848.244	21564
848.379	21351
848.515	21374
848.65	21504
848.786	21317
848.921	21325
849.057	21545
849.192	21367
849.328	21397
849.463	21313
849.598	21340
849.734	21268
849.869	21283
850.004	21207
850.14	21138
850.275	21116
850.41	21039
850.545	21039
850.68	20971
850.815	21230
850.95	21043
851.085	21279
851.22	21241
851.355	21176
851.49	21077
851.625	21127
851.76	21096
851.895	21070
852.03	21146
852.165	21150
852.299	21116
852.434	21161
852.569	21169
852.703	21089
852.838	21138
852.973	21142
853.107	21230
853.242	21055
853.376	20914
853.511	20929
853.645	20864
853.78	21009
853.914	20971
854.048	20826
854.183	20834
854.317	21157
854.451	21142
854.585	20967
854.72	20975
854.854	20998
854.988	20895
855.122	20918
855.256	20864
855.39	20948
855.524	20975
855.658	21009
855.792	20971
855.926	20910
856.06	21112
856.194	21024
856.327	20925
856.461	20811
856.595	20830
856.729	20899
856.862	20864
856.996	21032
857.13	20990
857.263	20941
857.397	21058
857.53	20975
857.664	20956
857.797	21032
857.931	21161
858.064	20990
858.197	21184
858.331	20876
858.464	20880
858.597	20872
858.731	20864
858.864	20906
858.997	20785
859.13	20948
859.263	20941
859.396	20971
859.529	20925
859.662	20994
859.795	20819
859.928	21005
860.061	21028
860.194	21074
860.327	20990
860.46	20895
860.592	21043
860.725	21112
860.858	21039
860.99	20982
861.123	20762
861.256	20963
861.388	20944
861.521	21504
861.653	20804
861.786	20731
861.918	20773
862.05	20941
862.183	20880
862.315	20830
862.447	20899
862.58	20876
862.712	20705
862.844	20621
862.976	20727
863.108	20815
863.24	21264
863.372	20602
863.504	20541
863.636	20765
863.768	20674
863.9	20632
864.032	20579
864.164	20556
864.296	20659
864.428	20765
864.559	20632
864.691	20834
864.823	20648
864.954	20632
865.086	20678
865.217	20617
865.349	20469
865.48	20537
865.612	20560
865.743	20648
865.875	20613
866.006	20564
866.137	20522
866.269	20495
866.4	20530
866.531	20526
866.662	20454
866.793	20545
866.924	20522
867.055	20450
867.186	20602
867.317	20571
867.448	20438
867.579	20404
867.71	20396
867.841	20488
867.972	20484
868.103	20450
868.233	20446
868.364	20636
868.495	20533
868.625	20724
868.756	20727
868.886	20659
869.017	20670
869.147	20830
869.278	20861
869.408	20811
869.539	20823
869.669	20804
869.799	20819
869.929	20693
870.06	20864
870.19	21013
870.32	21093
870.45	21127
870.58	21119
870.71	21272
870.84	21207
870.97	21108
871.1	21173
871.23	21317
871.36	21397
871.489	21192
871.619	21317
871.749	21264
871.879	21359
872.008	21466
872.138	21329
872.267	21355
872.397	21272
872.526	21157
872.656	21214
872.785	21176
872.915	21424
873.044	21424
873.173	21405
873.303	21443
873.432	21340
873.561	21523
873.69	21416
873.819	21363
873.948	21488
874.077	21363
874.206	21401
874.335	21374
874.464	21412
874.593	21542
874.722	21545
874.851	21644
874.979	21568
875.108	21705
875.237	21412
875.365	21454
875.494	21622
875.623	21622
875.751	21625
875.88	21652
876.008	21644
876.136	21747
876.265	21998
876.393	22135
876.521	22105
876.65	22036
876.778	21994
876.906	21975
877.034	21941
877.162	21930
877.29	21835
877.418	22006
877.546	21934
877.674	21953
877.802	21972
877.93	21953
878.058	21804
878.185	21793
878.313	21934
878.441	21800
878.568	21831
878.696	21979
878.824	22105
878.951	22048
879.079	22143
879.206	22177
879.333	22093
879.461	21937
879.588	22002
879.715	22128
879.842	22177
879.97	21968
880.097	21842
880.224	21789
880.351	21675
880.478	21770
880.605	21736
880.732	21854
880.859	22002
880.986	21713
881.112	21857
881.239	21717
881.366	21466
881.493	21294
881.619	21374
881.746	21268
881.872	21329
881.999	21355
882.125	21287
882.252	21405
882.378	21294
882.505	21397
882.631	21203
882.757	21176
882.883	21104
883.01	21039
883.136	21070
883.262	20872
883.388	20826
883.514	21009
883.64	21055
883.766	20876
883.892	20750
884.018	20788
884.143	20891
884.269	21036
884.395	20792
884.52	20724
884.646	20674
884.772	20705
884.897	20606
885.023	20701
885.148	20899
885.274	20830
885.399	20785
885.524	20861
885.65	20731
885.775	20792
885.9	20697
886.025	20644
886.15	20788
886.275	20617
886.4	20533
886.525	20689
886.65	20609
886.775	20590
886.9	20807
887.025	20864
887.149	20659
887.274	20473
887.399	20617
887.523	20457
887.648	20549
887.773	20469
887.897	20541
888.021	20514
888.146	20438
888.27	20571
888.395	20541
888.519	20526
888.643	20438
888.767	20549
888.891	20374
889.015	20240
889.139	20317
889.263	20233
889.387	20339
889.511	20446
889.635	20362
889.759	20271
889.883	20313
890.006	20263
890.13	20218
890.254	20229
890.377	20191
890.501	19967
890.624	20062
890.748	20062
890.871	19970
890.995	19887
891.118	19822
891.241	19826
891.364	19871
891.488	19868
891.611	19947
891.734	19818
891.857	19955
891.98	19803
892.103	19875
892.226	19795
892.349	19761
892.471	19651
892.594	19776
892.717	19860
892.839	19757
892.962	19788
893.085	19833
893.207	19712
893.33	19677
893.452	19795
893.575	19689
893.697	19830
893.819	19917
893.941	19928
894.064	20005
894.186	19533
894.308	19632
894.43	19818
894.552	19856
894.674	19898
894.796	19670
894.918	19830
895.04	19632
895.161	19871
895.283	19772
895.405	19647
895.526	19776
895.648	19693
895.769	19852
895.891	19753
896.012	19841
896.134	19830
896.255	19818
896.376	19803
896.498	19761
896.619	19822
896.74	19814
896.861	19860
896.982	20012
897.103	20237
897.224	20058
897.345	19947
897.466	19947
897.587	20046
897.708	20058
897.828	19997
897.949	19898
898.07	19811
898.19	19951
898.311	20126
898.431	19898
898.552	20008
898.672	20088
898.792	20092
898.913	19986
899.033	19845
899.153	19849
899.273	19807
899.393	19731
899.513	19818
899.633	19738
899.753	19635
899.873	19590
899.993	19738
900.113	19750
900.232	19784
900.352	19597
900.472	19586
900.591	19312
900.711	19445
900.83	19422
900.95	19624
901.069	19628
901.189	19419
901.308	19118
901.427	19171
901.546	19194
901.665	19145
901.784	19179
901.904	19015
902.023	18894
902.141	18719
902.26	18654
902.379	18700
902.498	18506
902.617	18506
902.735	18707
902.854	18646
902.973	18498
903.091	18258
903.21	18319
903.328	18247
903.446	18197
903.565	18239
903.683	18007
903.801	17980
903.919	18026
904.038	18102
904.156	17901
904.274	17992
904.392	17927
904.51	17863
904.627	17870
904.745	17908
904.863	17836
904.981	17638
905.098	17516
905.216	17661
905.334	17623
905.451	17543
905.569	17486
905.686	17604
905.803	17661
905.921	17387
906.038	17376
906.155	17315
906.272	17322
906.389	17284
906.506	17098
906.623	17212
906.74	17071
906.857	16919
906.974	17083
907.091	17086
907.208	17185
907.324	17117
907.441	16938
907.557	16752
907.674	16790
907.79	16797
907.907	16755
908.023	16843
908.139	16759
908.256	16793
908.372	16679
908.488	16774
908.604	16516
908.72	16470
908.836	16516
908.952	16462
909.068	16554
909.184	16607
909.3	16584
909.415	16523
909.531	16470
909.647	16390
909.762	16242
909.878	16230
909.993	16253
910.108	16253
910.224	16204
910.339	16166
910.454	16082
910.57	15994
910.685	15991
910.8	16322
910.915	16185
911.03	16025
911.145	15922
911.259	15876
911.374	15747
911.489	15816
911.604	15724
911.718	15667
911.833	15652
911.947	15462
912.062	15477
912.176	15545
912.291	15538
912.405	15450
912.519	15717
912.633	15690
912.748	15625
912.862	15553
912.976	15454
913.09	15268
913.204	15332
913.318	15287
913.431	15458
913.545	15378
913.659	15466
913.772	15386
913.886	15260
914	15226
914.113	15412
914.226	15283
914.34	15370
914.453	15020
914.566	15199
914.68	15077
914.793	15043
914.906	14937
915.019	14819
915.132	14693
915.245	14834
915.358	14857
915.47	14815
915.583	14826
915.696	14845
915.809	14872
915.921	15055
916.034	14720
916.146	14716
916.259	14663
916.371	14701
916.483	14693
916.595	14659
916.708	14575
916.82	14644
916.932	14659
917.044	14552
917.156	14442
917.268	14503
917.38	14511
917.491	14503
917.603	14522
917.715	14640
917.826	14583
917.938	14389
918.049	14332
918.161	14404
918.272	14590
918.384	14530
918.495	14461
918.606	14267
918.717	14229
918.828	14199
918.939	14278
919.05	14134
919.161	14366
919.272	14065
919.383	14195
919.494	14320
919.604	14484
919.715	14313
919.826	14161
919.936	14176
920.047	14263
920.157	14290
920.267	14366
920.378	14225
920.488	14248
920.598	14415
920.708	14549
920.818	14351
920.928	14343
921.038	14454
921.148	14514
921.258	14221
921.368	14062
921.477	13963
921.587	14001
921.697	13845
921.806	14073
921.916	13776
922.025	13651
922.134	13643
922.244	13597
922.353	13738
922.462	13499
922.571	13358
922.68	13324
922.789	13217
922.898	13327
923.007	13171
923.116	13297
923.224	13259
923.333	13221
923.442	13149
923.55	13118
923.659	13088
923.767	13171
923.876	13110
923.984	13103
924.092	12973
924.201	12962
924.309	12996
924.417	13027
924.525	12970
924.633	12981
924.741	13841
924.849	12817
924.956	12821
925.064	12703
925.172	12604
925.279	12654
925.387	12722
925.494	12673
925.602	12817
925.709	12711
925.816	12597
925.924	12601
926.031	12677
926.138	12635
926.245	12673
926.352	12490
926.459	12662
926.566	12673
926.673	12502
926.779	12422
926.886	12445
926.993	12266
927.099	12292
927.206	12273
927.312	12205
927.419	12330
927.525	12175
927.631	12285
927.737	12186
927.843	12064
927.95	12045
928.056	12110
928.162	12129
928.267	12106
928.373	12829
928.479	12098
928.585	11954
928.69	12003
928.796	12064
928.901	11965
929.007	11802
929.112	11942
929.218	11866
929.323	11843
929.428	11756
929.533	11950
929.638	11684
929.743	11802
929.848	11832
929.953	11805
930.058	11688
930.163	11501
930.267	11611
930.372	11649
930.477	11414
930.581	11764
930.685	11558
930.79	11505
930.894	11337
930.998	11402
931.103	11501
931.207	11170
931.311	11094
931.415	10999
931.519	10729
931.623	10828
