Data from test_V78500241_674.txt Node
Date: Fri Mar 25 15:14:33 CST 2022
User: usil
Spectrometer: V785-0024
Trigger mode: 0
Integration Time (sec): 4.000000E-1
Scans to average: 1
Nonlinearity correction enabled: false
Boxcar width: 0
Storing dark spectrum: false
XAxis mode: Wavelengths
Number of Pixels in Spectrum: 1024
>>>>>Begin Spectral Data<<<<<
801.071	28166
801.214	27793
801.356	27816
801.499	27705
801.641	27595
801.783	27557
801.926	27713
802.068	27663
802.211	27443
802.353	27405
802.496	27294
802.638	27222
802.78	27294
802.923	27249
803.065	27195
803.208	27207
803.35	27329
803.492	27359
803.635	27313
803.777	27283
803.919	27462
804.061	27606
804.204	27507
804.346	27329
804.488	27260
804.63	27542
804.773	27382
804.915	27492
805.057	27660
805.199	27359
805.341	27549
805.483	27572
805.626	27492
805.768	27477
805.91	27439
806.052	27606
806.194	27386
806.336	27762
806.478	27644
806.62	27553
806.762	27717
806.904	27785
807.046	28109
807.188	27903
807.33	27983
807.472	28097
807.614	27960
807.756	27930
807.898	27778
808.04	27739
808.182	27804
808.324	27755
808.465	27720
808.607	28002
808.749	28105
808.891	28276
809.033	28577
809.174	28276
809.316	28242
809.458	28192
809.6	28207
809.741	28348
809.883	28451
810.025	28489
810.166	28538
810.308	28405
810.45	28630
810.591	28516
810.733	28272
810.875	28310
811.016	28173
811.158	28063
811.299	28348
811.441	28440
811.582	28363
811.724	28291
811.865	28112
812.007	28097
812.148	28219
812.29	28325
812.431	28500
812.573	28535
812.714	28710
812.855	28862
812.997	28877
813.138	29048
813.279	28915
813.421	28809
813.562	28786
813.703	28656
813.845	28481
813.986	28188
814.127	27991
814.268	27934
814.41	27850
814.551	27869
814.692	27975
814.833	28074
814.974	27949
815.115	27903
815.256	27941
815.397	27808
815.539	27789
815.68	27804
815.821	27595
815.962	27785
816.103	27713
816.244	27739
816.385	27534
816.526	27374
816.666	27462
816.807	27344
816.948	27450
817.089	27454
817.23	27329
817.371	27325
817.512	27169
817.653	27351
817.793	27211
817.934	27294
818.075	27176
818.216	27192
818.356	27135
818.497	27161
818.638	26967
818.778	27074
818.919	26998
819.06	26990
819.2	27070
819.341	27188
819.481	27180
819.622	27389
819.762	27545
819.903	27393
820.043	27310
820.184	27317
820.324	27298
820.465	27367
820.605	27294
820.746	27203
820.886	27275
821.026	27370
821.167	27397
821.307	27260
821.447	27252
821.588	27150
821.728	26864
821.868	26994
822.008	26659
822.149	26632
822.289	26746
822.429	26590
822.569	26408
822.709	26351
822.849	26221
822.99	26240
823.13	26164
823.27	26218
823.41	26031
823.55	25818
823.69	26138
823.83	25944
823.97	26092
824.11	25921
824.25	25750
824.389	25814
824.529	25864
824.669	25890
824.809	25986
824.949	25970
825.089	25974
825.228	25951
825.368	25651
825.508	25788
825.648	25738
825.787	25818
825.927	25944
826.067	25712
826.206	25719
826.346	25693
826.485	25750
826.625	25807
826.765	25837
826.904	25906
827.044	25460
827.183	25613
827.323	25377
827.462	25502
827.601	25392
827.741	25354
827.88	25483
828.02	25308
828.159	25449
828.298	25434
828.437	25529
828.577	25396
828.716	25590
828.855	25381
828.994	25240
829.134	25183
829.273	25126
829.412	25072
829.551	25095
829.69	25000
829.829	25137
829.968	25164
830.107	25088
830.246	25225
830.385	25103
830.524	24954
830.663	24939
830.802	24916
830.941	24760
831.08	24677
831.219	24753
831.357	24901
831.496	24996
831.635	24707
831.774	24696
831.913	24559
832.051	24555
832.19	24540
832.329	24601
832.467	24407
832.606	24414
832.744	24445
832.883	24330
833.022	24300
833.16	24410
833.299	24433
833.437	24521
833.576	24509
833.714	24608
833.852	24536
833.991	24475
834.129	24483
834.267	24547
834.406	24384
834.544	24528
834.682	24525
834.821	24551
834.959	24684
835.097	24410
835.235	24665
835.373	24486
835.511	24460
835.65	24422
835.788	24391
835.926	24174
836.064	24152
836.202	24205
836.34	24315
836.478	24384
836.615	24277
836.753	24304
836.891	24467
837.029	24281
837.167	24319
837.305	24216
837.443	24254
837.58	24087
837.718	24243
837.856	24190
837.993	24201
838.131	24171
838.269	24045
838.406	24011
838.544	24007
838.681	23813
838.819	23775
838.956	23615
839.094	23619
839.231	23672
839.369	23889
839.506	23950
839.643	23965
839.781	23611
839.918	23668
840.055	23672
840.193	23634
840.33	23554
840.467	23581
840.604	23436
840.742	23805
840.879	23345
841.016	23482
841.153	23463
841.29	23528
841.427	23497
841.564	23665
841.701	23486
841.838	23551
841.975	23410
842.112	23417
842.249	23265
842.385	23303
842.522	23368
842.659	23379
842.796	23261
842.933	23368
843.069	23185
843.206	23178
843.343	23364
843.479	23254
843.616	23353
843.752	23102
843.889	23121
844.025	23197
844.162	22984
844.298	23003
844.435	22946
844.571	23102
844.708	23064
844.844	23136
844.98	23147
845.117	23136
845.253	23075
845.389	22999
845.525	22953
845.661	22923
845.798	22767
845.934	22866
846.07	22710
846.206	22809
846.342	22812
846.478	22649
846.614	22615
846.75	22561
846.886	22508
847.022	22516
847.158	22527
847.294	22462
847.429	22588
847.565	22626
847.701	22744
847.837	22291
847.972	22249
848.108	22360
848.244	22272
848.379	22207
848.515	22059
848.65	22059
848.786	22048
848.921	22048
849.057	22268
849.192	22219
849.328	22181
849.463	22120
849.598	21987
849.734	22051
849.869	21956
850.004	22002
850.14	21808
850.275	21739
850.41	21751
850.545	21774
850.68	21808
850.815	21922
850.95	21861
851.085	22013
851.22	21975
851.355	21922
851.49	21960
851.625	21827
851.76	21873
851.895	21812
852.03	21690
852.165	21892
852.299	22044
852.434	21972
852.569	22006
852.703	21838
852.838	21857
852.973	22029
853.107	22090
853.242	21774
853.376	21846
853.511	21606
853.645	21732
853.78	21861
853.914	21656
854.048	21724
854.183	21530
854.317	21736
854.451	21983
854.585	21682
854.72	21713
854.854	21804
854.988	21709
855.122	21625
855.256	21576
855.39	21789
855.524	21789
855.658	21644
855.792	21842
855.926	21736
856.06	21682
856.194	21774
856.327	21751
856.461	21606
856.595	21701
856.729	21595
856.862	21949
856.996	21705
857.13	21679
857.263	21743
857.397	21899
857.53	21694
857.664	21679
857.797	21770
857.931	21728
858.064	21701
858.197	21781
858.331	21682
858.464	21686
858.597	21549
858.731	21701
858.864	21644
858.997	21694
859.13	21732
859.263	21679
859.396	21797
859.529	21530
859.662	21534
859.795	21656
859.928	21622
860.061	21854
860.194	21778
860.327	21724
860.46	21736
860.592	21819
860.725	21816
860.858	21797
860.99	21587
861.123	21663
861.256	21667
861.388	21667
861.521	22379
861.653	21530
861.786	21549
861.918	21561
862.05	21648
862.183	21679
862.315	21656
862.447	21671
862.58	21637
862.712	21408
862.844	21382
862.976	21477
863.108	21363
863.24	21667
863.372	21287
863.504	21401
863.636	21405
863.768	21435
863.9	21443
864.032	21291
864.164	21329
864.296	21393
864.428	21504
864.559	21485
864.691	21340
864.823	21401
864.954	21374
865.086	21268
865.217	21298
865.349	21264
865.48	21272
865.612	21279
865.743	21412
865.875	21336
866.006	21294
866.137	21192
866.269	21450
866.4	21275
866.531	21241
866.662	21211
866.793	21252
866.924	21203
867.055	21275
867.186	21226
867.317	21275
867.448	21207
867.579	21252
867.71	21058
867.841	21108
867.972	21294
868.103	21169
868.233	21211
868.364	21237
868.495	21359
868.625	21481
868.756	21420
868.886	21477
869.017	21378
869.147	21625
869.278	21572
869.408	21473
869.539	21545
869.669	21477
869.799	21416
869.929	21629
870.06	21652
870.19	21701
870.32	21720
870.45	21838
870.58	21903
870.71	21953
870.84	21922
870.97	21911
871.1	21785
871.23	22032
871.36	22078
871.489	22048
871.619	21964
871.749	22048
871.879	22017
872.008	22124
872.138	22055
872.267	22013
872.397	21926
872.526	21869
872.656	21899
872.785	21865
872.915	22105
873.044	22040
873.173	22055
873.303	22082
873.432	22154
873.561	22196
873.69	22063
873.819	22101
873.948	22143
874.077	22093
874.206	22135
874.335	22040
874.464	22219
874.593	22382
874.722	22261
874.851	22371
874.979	22257
875.108	22398
875.237	22257
875.365	22291
875.494	22249
875.623	22333
875.751	22341
875.88	22447
876.008	22546
876.136	22523
876.265	22755
876.393	22733
876.521	22736
876.65	22812
876.778	22733
876.906	22637
877.034	22653
877.162	22725
877.29	22561
877.418	22649
877.546	22641
877.674	22554
877.802	22550
877.93	22603
878.058	22656
878.185	22542
878.313	22580
878.441	22592
878.568	22405
878.696	22546
878.824	22672
878.951	22653
879.079	22824
879.206	22847
879.333	22763
879.461	22771
879.588	22778
879.715	22923
879.842	22957
879.97	22683
880.097	22459
880.224	22512
880.351	22493
880.478	22432
880.605	22333
880.732	22394
880.859	22729
880.986	22508
881.112	22523
881.239	22398
881.366	22253
881.493	22246
881.619	22013
881.746	22021
881.872	22021
881.999	22067
882.125	21987
882.252	21903
882.378	22070
882.505	22032
882.631	21884
882.757	21705
882.883	21819
883.01	21633
883.136	21507
883.262	21545
883.388	21561
883.514	21774
883.64	21774
883.766	21656
883.892	21603
884.018	21633
884.143	21793
884.269	21747
884.395	21462
884.52	21260
884.646	21386
884.772	21237
884.897	21321
885.023	21344
885.148	21511
885.274	21511
885.399	21473
885.524	21355
885.65	21344
885.775	21401
885.9	21393
886.025	21466
886.15	21389
886.275	21287
886.4	21195
886.525	21386
886.65	21249
886.775	21275
886.9	21370
887.025	21606
887.149	21298
887.274	21169
887.399	20975
887.523	21176
887.648	20975
887.773	21036
887.897	21207
888.021	21203
888.146	21116
888.27	21195
888.395	21211
888.519	21157
888.643	21135
888.767	21135
888.891	21028
889.015	21066
889.139	21009
889.263	20975
889.387	20952
889.511	21108
889.635	21096
889.759	20975
889.883	20929
890.006	20902
890.13	21047
890.254	20849
890.377	20777
890.501	20682
890.624	20621
890.748	20644
890.871	20518
890.995	20427
891.118	20434
891.241	20533
891.364	20644
891.488	20571
891.611	20522
891.734	20579
891.857	20488
891.98	20476
892.103	20518
892.226	20473
892.349	20400
892.471	20305
892.594	20415
892.717	20374
892.839	20381
892.962	20473
893.085	20450
893.207	20377
893.33	20256
893.452	20377
893.575	20389
893.697	20366
893.819	20545
893.941	20484
894.064	20522
894.186	20400
894.308	20313
894.43	20526
894.552	20552
894.674	20533
894.796	20267
894.918	20374
895.04	20271
895.161	20522
895.283	20427
895.405	20332
895.526	20446
895.648	20298
895.769	20446
895.891	20408
896.012	20408
896.134	20476
896.255	20427
896.376	20351
896.498	20461
896.619	20408
896.74	20351
896.861	20400
896.982	20644
897.103	20891
897.224	20648
897.345	20606
897.466	20465
897.587	20526
897.708	20682
897.828	20731
897.949	20579
898.07	20442
898.19	20488
898.311	20613
898.431	20609
898.552	20541
898.672	20659
898.792	20644
898.913	20598
899.033	20454
899.153	20396
899.273	20221
899.393	20393
899.513	20324
899.633	20263
899.753	20431
899.873	20221
899.993	20324
900.113	20275
900.232	20313
900.352	20301
900.472	20111
900.591	20119
900.711	20122
900.83	20145
900.95	20183
901.069	20145
901.189	19875
901.308	19708
901.427	19681
901.546	19708
901.665	19685
901.784	19746
901.904	19609
902.023	19457
902.141	19202
902.26	19103
902.379	19358
902.498	19232
902.617	19194
902.735	19209
902.854	19164
902.973	19015
903.091	18833
903.21	18878
903.328	18886
903.446	18783
903.565	18681
903.683	18589
903.801	18623
903.919	18559
904.038	18536
904.156	18452
904.274	18456
904.392	18544
904.51	18433
904.627	18467
904.745	18593
904.863	18460
904.981	18228
905.098	18228
905.216	17954
905.334	18136
905.451	18220
905.569	18106
905.686	18106
905.803	18114
905.921	17927
906.038	18015
906.155	17863
906.272	17821
906.389	17851
906.506	17646
906.623	17695
906.74	17585
906.857	17478
906.974	17520
907.091	17676
907.208	17767
907.324	17676
907.441	17611
907.557	17524
907.674	17410
907.79	17277
907.907	17235
908.023	17395
908.139	17330
908.256	17307
908.372	17212
908.488	17227
908.604	17151
908.72	17117
908.836	17102
908.952	17003
909.068	17105
909.184	17193
909.3	17060
909.415	16987
909.531	16972
909.647	16729
909.762	16782
909.878	16664
909.993	16733
910.108	16736
910.224	16763
910.339	16675
910.454	16675
910.57	16672
910.685	16504
910.8	16831
910.915	16691
911.03	16664
911.145	16459
911.259	16360
911.374	16485
911.489	16329
911.604	16204
911.718	16002
911.833	16162
911.947	16021
912.062	15956
912.176	16074
912.291	16154
912.405	16048
912.519	16280
912.633	16265
912.748	16074
912.862	16063
912.976	16013
913.09	15857
913.204	15808
913.318	15956
913.431	16025
913.545	15937
913.659	16078
913.772	15930
913.886	15728
914	15648
914.113	15781
914.226	15842
914.34	15835
914.453	15644
914.566	15766
914.68	15572
914.793	15587
914.906	15382
915.019	15302
915.132	15264
915.245	15195
915.358	15374
915.47	15306
915.583	15306
915.696	15332
915.809	15454
915.921	15412
916.034	15237
916.146	15074
916.259	15233
916.371	15279
916.483	15245
916.595	15123
916.708	15249
916.82	15116
916.932	15150
917.044	15104
917.156	15085
917.268	15013
917.38	15024
917.491	14941
917.603	14899
917.715	15039
917.826	15005
917.938	14800
918.049	14902
918.161	14807
918.272	15047
918.384	14948
918.495	14975
918.606	14842
918.717	14636
918.828	14739
918.939	14781
919.05	14629
919.161	14701
919.272	14571
919.383	14484
919.494	14693
919.604	14880
919.715	14670
919.826	14514
919.936	14682
920.047	14792
920.157	14678
920.267	14826
920.378	14667
920.488	14636
920.598	14872
920.708	14941
920.818	14796
920.928	14773
921.038	14982
921.148	14876
921.258	14670
921.368	14594
921.477	14412
921.587	14370
921.697	14294
921.806	14377
921.916	14286
922.025	14065
922.134	14039
922.244	14031
922.353	14050
922.462	13887
922.571	13883
922.68	13753
922.789	13681
922.898	13765
923.007	13662
923.116	13693
923.224	13693
923.333	13605
923.442	13563
923.55	13537
923.659	13476
923.767	13502
923.876	13491
923.984	13556
924.092	13430
924.201	13491
924.309	13365
924.417	13426
924.525	13415
924.633	13358
924.741	14111
924.849	13213
924.956	13308
925.064	13133
925.172	13129
925.279	13091
925.387	13091
925.494	13126
925.602	13304
925.709	13114
925.816	12970
925.924	13042
926.031	13118
926.138	13034
926.245	13164
926.352	12916
926.459	13145
926.566	13168
926.673	13012
926.779	12875
926.886	12837
926.993	12741
927.099	12711
927.206	12684
927.312	12551
927.419	12791
927.525	12620
927.631	12711
927.737	12593
927.843	12498
927.95	12513
928.056	12460
928.162	12498
928.267	12559
928.373	13099
928.479	12486
928.585	12342
928.69	12395
928.796	12407
928.901	12285
929.007	12178
929.112	12346
929.218	12323
929.323	12300
929.428	12186
929.533	12403
929.638	12197
929.743	12106
929.848	12228
929.953	12087
930.058	11973
930.163	11836
930.267	11950
930.372	12022
930.477	11745
930.581	12060
930.685	11939
930.79	11813
930.894	11699
930.998	11741
931.103	11927
931.207	11482
931.311	11425
931.415	11402
931.519	11159
931.623	11090
