Data from test_V78500241_874.txt Node
Date: Fri Mar 25 15:15:56 CST 2022
User: usil
Spectrometer: V785-0024
Trigger mode: 0
Integration Time (sec): 4.000000E-1
Scans to average: 1
Nonlinearity correction enabled: false
Boxcar width: 0
Storing dark spectrum: false
XAxis mode: Wavelengths
Number of Pixels in Spectrum: 1024
>>>>>Begin Spectral Data<<<<<
801.071	28177
801.214	28082
801.356	27994
801.499	27732
801.641	27682
801.783	27606
801.926	27785
802.068	27838
802.211	27682
802.353	27705
802.496	27207
802.638	27367
802.78	27424
802.923	27241
803.065	27351
803.208	27378
803.35	27355
803.492	27473
803.635	27469
803.777	27435
803.919	27591
804.061	27899
804.204	27622
804.346	27530
804.488	27515
804.63	27610
804.773	27458
804.915	27534
805.057	27698
805.199	27542
805.341	27637
805.483	27671
805.626	27736
805.768	27739
805.91	27694
806.052	27629
806.194	27656
806.336	27918
806.478	27800
806.62	27812
806.762	27899
806.904	27888
807.046	28177
807.188	28044
807.33	28223
807.472	28253
807.614	27994
807.756	28135
807.898	28211
808.04	27987
808.182	27960
808.324	28048
808.465	28139
808.607	28185
808.749	28272
808.891	28363
809.033	28523
809.174	28462
809.316	28337
809.458	28379
809.6	28398
809.741	28542
809.883	28443
810.025	28675
810.166	28615
810.308	28626
810.45	28596
810.591	28580
810.733	28436
810.875	28303
811.016	28261
811.158	28363
811.299	28516
811.441	28386
811.582	28584
811.724	28390
811.865	28401
812.007	28413
812.148	28405
812.29	28348
812.431	28664
812.573	28820
812.714	28774
812.855	29060
812.997	29006
813.138	29322
813.279	29140
813.421	28984
813.562	28831
813.703	28729
813.845	28710
813.986	28325
814.127	28287
814.268	28131
814.41	28086
814.551	28139
814.692	28086
814.833	28032
814.974	27945
815.115	28124
815.256	28097
815.397	28105
815.539	28021
815.68	28048
815.821	27846
815.962	27850
816.103	27850
816.244	27907
816.385	27774
816.526	27641
816.666	27553
816.807	27370
816.948	27492
817.089	27492
817.23	27458
817.371	27389
817.512	27431
817.653	27542
817.793	27481
817.934	27462
818.075	27397
818.216	27454
818.356	27351
818.497	27199
818.638	27180
818.778	27138
818.919	27123
819.06	27230
819.2	27214
819.341	27412
819.481	27427
819.622	27515
819.762	27671
819.903	27705
820.043	27667
820.184	27511
820.324	27568
820.465	27614
820.605	27576
820.746	27447
820.886	27348
821.026	27477
821.167	27481
821.307	27523
821.447	27538
821.588	27401
821.728	27294
821.868	27222
822.008	26933
822.149	26842
822.289	26914
822.429	26663
822.569	26602
822.709	26549
822.849	26560
822.99	26476
823.13	26301
823.27	26221
823.41	26225
823.55	26092
823.69	26244
823.83	26111
823.97	26195
824.11	26012
824.25	26012
824.389	26107
824.529	26111
824.669	26008
824.809	26100
824.949	26138
825.089	26221
825.228	26119
825.368	25963
825.508	25909
825.648	25906
825.787	25986
825.927	26058
826.067	25986
826.206	25818
826.346	25894
826.485	26039
826.625	25928
826.765	26138
826.904	25959
827.044	25784
827.183	25715
827.323	25712
827.462	25658
827.601	25609
827.741	25571
827.88	25742
828.02	25651
828.159	25723
828.298	25506
828.437	25662
828.577	25704
828.716	25742
828.855	25350
828.994	25324
829.134	25422
829.273	25343
829.412	25236
829.551	25335
829.69	25331
829.829	25483
829.968	25472
830.107	25354
830.246	25285
830.385	25259
830.524	25255
830.663	25236
830.802	25069
830.941	25000
831.08	25004
831.219	25065
831.357	25091
831.496	25247
831.635	24966
831.774	24764
831.913	24939
832.051	24753
832.19	24795
832.329	24837
832.467	24661
832.606	24616
832.744	24551
832.883	24734
833.022	24658
833.16	24696
833.299	24707
833.437	24787
833.576	24722
833.714	24734
833.852	24715
833.991	24658
834.129	24745
834.267	24757
834.406	24688
834.544	24802
834.682	24715
834.821	24627
834.959	24867
835.097	24696
835.235	24772
835.373	24738
835.511	24639
835.65	24566
835.788	24700
835.926	24597
836.064	24429
836.202	24384
836.34	24654
836.478	24650
836.615	24494
836.753	24509
836.891	24665
837.029	24498
837.167	24547
837.305	24509
837.443	24346
837.58	24315
837.718	24418
837.856	24410
837.993	24380
838.131	24289
838.269	24277
838.406	24163
838.544	24060
838.681	23923
838.819	24064
838.956	23836
839.094	23893
839.231	23927
839.369	23859
839.506	24247
839.643	24018
839.781	23805
839.918	23737
840.055	23851
840.193	23885
840.33	23710
840.467	23649
840.604	23882
840.742	24011
840.879	23581
841.016	23745
841.153	23748
841.29	23832
841.427	23661
841.564	23741
841.701	23703
841.838	23718
841.975	23585
842.112	23623
842.249	23608
842.385	23585
842.522	23737
842.659	23520
842.796	23520
842.933	23455
843.069	23459
843.206	23501
843.343	23509
843.479	23440
843.616	23444
843.752	23395
843.889	23200
844.025	23471
844.162	23273
844.298	23425
844.435	23200
844.571	23124
844.708	23334
844.844	23417
844.98	23436
845.117	23433
845.253	23250
845.389	23174
845.525	23162
845.661	23136
845.798	23113
845.934	23143
846.07	23006
846.206	22999
846.342	23086
846.478	22854
846.614	22778
846.75	22668
846.886	22752
847.022	22767
847.158	22664
847.294	22790
847.429	22687
847.565	22645
847.701	22919
847.837	22440
847.972	22470
848.108	22615
848.244	22504
848.379	22318
848.515	22325
848.65	22352
848.786	22337
848.921	22329
849.057	22459
849.192	22428
849.328	22322
849.463	22295
849.598	22192
849.734	22234
849.869	22067
850.004	22082
850.14	22131
850.275	22173
850.41	22101
850.545	22006
850.68	22139
850.815	22082
850.95	22139
851.085	22371
851.22	22234
851.355	22021
851.49	22147
851.625	22078
851.76	22044
851.895	22044
852.03	22032
852.165	22017
852.299	22200
852.434	22158
852.569	22120
852.703	22154
852.838	22128
852.973	22246
853.107	22246
853.242	21975
853.376	21987
853.511	21747
853.645	21781
853.78	22048
853.914	21945
854.048	21770
854.183	21918
854.317	21907
854.451	22169
854.585	21926
854.72	21804
854.854	21930
854.988	21861
855.122	21819
855.256	21728
855.39	21850
855.524	21964
855.658	22002
855.792	21857
855.926	21949
856.06	21941
856.194	21888
856.327	21865
856.461	21778
856.595	21842
856.729	21937
856.862	21930
856.996	21949
857.13	22002
857.263	21991
857.397	21960
857.53	21895
857.664	21934
857.797	21892
857.931	21968
858.064	21873
858.197	21987
858.331	21797
858.464	21903
858.597	21846
858.731	21838
858.864	21922
858.997	21846
859.13	21846
859.263	21964
859.396	22067
859.529	21934
859.662	21736
859.795	21819
859.928	21846
860.061	22040
860.194	22299
860.327	21857
860.46	21953
860.592	21930
860.725	22013
860.858	21937
860.99	21907
861.123	21789
861.256	21835
861.388	21884
861.521	22694
861.653	21774
861.786	21717
861.918	21739
862.05	21751
862.183	21755
862.315	21762
862.447	21793
862.58	21755
862.712	21690
862.844	21622
862.976	21755
863.108	21549
863.24	21987
863.372	21625
863.504	21682
863.636	21648
863.768	21572
863.9	21507
864.032	21511
864.164	21587
864.296	21663
864.428	21675
864.559	21759
864.691	21690
864.823	21538
864.954	21587
865.086	21641
865.217	21530
865.349	21359
865.48	21549
865.612	21530
865.743	21698
865.875	21599
866.006	21401
866.137	21557
866.269	21526
866.4	21526
866.531	21462
866.662	21336
866.793	21386
866.924	21435
867.055	21466
867.186	21439
867.317	21363
867.448	21237
867.579	21435
867.71	21393
867.841	21382
867.972	21424
868.103	21272
868.233	21374
868.364	21511
868.495	21526
868.625	21576
868.756	21675
868.886	21488
869.017	21629
869.147	21690
869.278	21713
869.408	21698
869.539	21553
869.669	21747
869.799	21679
869.929	21774
870.06	21797
870.19	21934
870.32	21838
870.45	21873
870.58	21918
870.71	22124
870.84	22131
870.97	22109
871.1	21979
871.23	22078
871.36	22211
871.489	22169
871.619	22181
871.749	22253
871.879	22268
872.008	22207
872.138	22192
872.267	22276
872.397	22143
872.526	22112
872.656	22112
872.785	22063
872.915	22386
873.044	22382
873.173	22284
873.303	22310
873.432	22333
873.561	22299
873.69	22265
873.819	22295
873.948	22329
874.077	22303
874.206	22268
874.335	22246
874.464	22432
874.593	22508
874.722	22398
874.851	22569
874.979	22489
875.108	22611
875.237	22561
875.365	22394
875.494	22466
875.623	22611
875.751	22367
875.88	22481
876.008	22577
876.136	22626
876.265	22835
876.393	23067
876.521	22957
876.65	22881
876.778	22919
876.906	22938
877.034	22774
877.162	22847
877.29	22805
877.418	22740
877.546	22759
877.674	22828
877.802	22634
877.93	22850
878.058	22793
878.185	22645
878.313	22778
878.441	22721
878.568	22691
878.696	22740
878.824	22930
878.951	22793
879.079	22995
879.206	23014
879.333	22987
879.461	22816
879.588	22927
879.715	22972
879.842	23044
879.97	23052
880.097	22630
880.224	22672
880.351	22683
880.478	22672
880.605	22580
880.732	22557
880.859	22892
880.986	22519
881.112	22698
881.239	22428
881.366	22440
881.493	22253
881.619	22200
881.746	22344
881.872	22162
881.999	22207
882.125	22177
882.252	22188
882.378	22234
882.505	22284
882.631	22051
882.757	21915
882.883	22048
883.01	21953
883.136	21918
883.262	21739
883.388	21713
883.514	21846
883.64	21968
883.766	21892
883.892	21698
884.018	21717
884.143	21903
884.269	21964
884.395	21671
884.52	21576
884.646	21572
884.772	21519
884.897	21431
885.023	21736
885.148	21583
885.274	21705
885.399	21698
885.524	21466
885.65	21641
885.775	21671
885.9	21488
886.025	21713
886.15	21671
886.275	21686
886.4	21431
886.525	21553
886.65	21488
886.775	21576
886.9	21622
887.025	21808
887.149	21599
887.274	21412
887.399	21370
887.523	21325
887.648	21275
887.773	21233
887.897	21496
888.021	21469
888.146	21340
888.27	21416
888.395	21473
888.519	21393
888.643	21344
888.767	21306
888.891	21321
889.015	21214
889.139	21146
889.263	21017
889.387	21252
889.511	21344
889.635	21268
889.759	21135
889.883	21157
890.006	21127
890.13	21245
890.254	21123
890.377	21039
890.501	20960
890.624	20868
890.748	20765
890.871	20849
890.995	20667
891.118	20697
891.241	20674
891.364	20590
891.488	20868
891.611	20613
891.734	20708
891.857	20617
891.98	20697
892.103	20644
892.226	20655
892.349	20648
892.471	20434
892.594	20598
892.717	20594
892.839	20549
892.962	20788
893.085	20568
893.207	20537
893.33	20629
893.452	20499
893.575	20701
893.697	20568
893.819	20724
893.941	20796
894.064	20712
894.186	20552
894.308	20571
894.43	20678
894.552	20739
894.674	20682
894.796	20503
894.918	20568
895.04	20552
895.161	20541
895.283	20636
895.405	20537
895.526	20568
895.648	20587
895.769	20431
895.891	20541
896.012	20640
896.134	20613
896.255	20526
896.376	20560
896.498	20552
896.619	20621
896.74	20568
896.861	20644
896.982	20967
897.103	21039
897.224	20861
897.345	20861
897.466	20606
897.587	20758
897.708	20883
897.828	20830
897.949	20667
898.07	20621
898.19	20739
898.311	20925
898.431	20823
898.552	20762
898.672	20868
898.792	20834
898.913	20765
899.033	20743
899.153	20686
899.273	20427
899.393	20457
899.513	20431
899.633	20473
899.753	20423
899.873	20499
899.993	20575
900.113	20499
900.232	20427
900.352	20419
900.472	20396
900.591	20225
900.711	20286
900.83	20271
900.95	20377
901.069	20351
901.189	20180
901.308	20084
901.427	19833
901.546	19898
901.665	19837
901.784	19864
901.904	19723
902.023	19540
902.141	19411
902.26	19464
902.379	19502
902.498	19434
902.617	19388
902.735	19426
902.854	19331
902.973	19297
903.091	19084
903.21	19076
903.328	19126
903.446	19034
903.565	18882
903.683	18909
903.801	18711
903.919	18749
904.038	18791
904.156	18582
904.274	18616
904.392	18627
904.51	18654
904.627	18578
904.745	18525
904.863	18703
904.981	18407
905.098	18334
905.216	18289
905.334	18330
905.451	18209
905.569	18232
905.686	18281
905.803	18346
905.921	18098
906.038	18251
906.155	18007
906.272	18003
906.389	18034
906.506	17885
906.623	17840
906.74	17874
906.857	17657
906.974	17771
907.091	17840
907.208	17859
907.324	17843
907.441	17718
907.557	17589
907.674	17554
907.79	17421
907.907	17592
908.023	17520
908.139	17474
908.256	17490
908.372	17356
908.488	17326
908.604	17311
908.72	17147
908.836	17223
908.952	17227
909.068	17299
909.184	17288
909.3	17212
909.415	17227
909.531	17322
909.647	17010
909.762	16991
909.878	16854
909.993	16965
910.108	16908
910.224	16938
910.339	16809
910.454	16896
910.57	16889
910.685	16664
910.8	16896
910.915	16847
911.03	16835
911.145	16554
911.259	16550
911.374	16565
911.489	16451
911.604	16379
911.718	16272
911.833	16363
911.947	16215
912.062	16109
912.176	16150
912.291	16284
912.405	16200
912.519	16386
912.633	16379
912.748	16337
912.862	16196
912.976	16169
913.09	15922
913.204	16040
913.318	15934
913.431	16234
913.545	16071
913.659	16131
913.772	15934
913.886	15884
914	15953
914.113	15915
914.226	16044
914.34	16002
914.453	15793
914.566	15915
914.68	15785
914.793	15641
914.906	15587
915.019	15447
915.132	15450
915.245	15443
915.358	15534
915.47	15473
915.583	15416
915.696	15580
915.809	15553
915.921	15629
916.034	15519
916.146	15367
916.259	15344
916.371	15473
916.483	15435
916.595	15374
916.708	15214
916.82	15237
916.932	15214
917.044	15214
917.156	15214
917.268	15055
917.38	15131
917.491	15142
917.603	15165
917.715	15222
917.826	15192
917.938	15085
918.049	14891
918.161	15138
918.272	15135
918.384	15123
918.495	14979
918.606	14902
918.717	14826
918.828	14941
918.939	14902
919.05	14857
919.161	14762
919.272	14632
919.383	14705
919.494	14876
919.604	15017
919.715	14838
919.826	14819
919.936	14731
920.047	14804
920.157	14769
920.267	14952
920.378	14842
920.488	14727
920.598	15009
920.708	15100
920.818	14956
920.928	14948
921.038	15112
921.148	15074
921.258	14743
921.368	14648
921.477	14522
921.587	14545
921.697	14294
921.806	14514
921.916	14385
922.025	14271
922.134	14149
922.244	14149
922.353	14218
922.462	14024
922.571	14005
922.68	13875
922.789	13868
922.898	13909
923.007	13841
923.116	13765
923.224	13780
923.333	13826
923.442	13712
923.55	13677
923.659	13681
923.767	13643
923.876	13605
923.984	13826
924.092	13571
924.201	13506
924.309	13605
924.417	13620
924.525	13464
924.633	13506
924.741	14275
924.849	13194
924.956	13407
925.064	13293
925.172	13285
925.279	13244
925.387	13228
925.494	13187
925.602	13358
925.709	13213
925.816	13251
925.924	13175
926.031	13270
926.138	13156
926.245	13365
926.352	13061
926.459	13179
926.566	13164
926.673	13053
926.779	12970
926.886	12962
926.993	12848
927.099	12768
927.206	12692
927.312	12798
927.419	12802
927.525	12821
927.631	12840
927.737	12681
927.843	12646
927.95	12391
928.056	12528
928.162	12673
928.267	12635
928.373	13141
928.479	12620
928.585	12532
928.69	12544
928.796	12521
928.901	12399
929.007	12376
929.112	12395
929.218	12422
929.323	12353
929.428	12388
929.533	12448
929.638	12178
929.743	12273
929.848	12327
929.953	12228
930.058	12190
930.163	11958
930.267	12015
930.372	12182
930.477	11958
930.581	12220
930.685	12060
930.79	11889
930.894	11950
930.998	11882
931.103	11946
931.207	11676
931.311	11509
931.415	11490
931.519	11220
931.623	11296
