Data from test_V78500241_1152.txt Node
Date: Fri Mar 25 15:17:52 CST 2022
User: usil
Spectrometer: V785-0024
Trigger mode: 0
Integration Time (sec): 4.000000E-1
Scans to average: 1
Nonlinearity correction enabled: false
Boxcar width: 0
Storing dark spectrum: false
XAxis mode: Wavelengths
Number of Pixels in Spectrum: 1024
>>>>>Begin Spectral Data<<<<<
801.071	28295
801.214	28211
801.356	28147
801.499	27991
801.641	27686
801.783	27869
801.926	27835
802.068	27873
802.211	27857
802.353	27766
802.496	27576
802.638	27580
802.78	27538
802.923	27557
803.065	27466
803.208	27401
803.35	27523
803.492	27743
803.635	27739
803.777	27652
803.919	27705
804.061	28006
804.204	27774
804.346	27709
804.488	27652
804.63	27610
804.773	27713
804.915	27762
805.057	27873
805.199	27785
805.341	27823
805.483	27770
805.626	27766
805.768	27690
805.91	27846
806.052	27842
806.194	27808
806.336	28082
806.478	27968
806.62	27876
806.762	28010
806.904	28017
807.046	28379
807.188	28424
807.33	28314
807.472	28188
807.614	28333
807.756	28348
807.898	28211
808.04	28067
808.182	28124
808.324	28291
808.465	28287
808.607	28379
808.749	28618
808.891	28653
809.033	28710
809.174	28660
809.316	28508
809.458	28523
809.6	28668
809.741	28596
809.883	28698
810.025	28908
810.166	28881
810.308	28896
810.45	28778
810.591	28736
810.733	28615
810.875	28618
811.016	28554
811.158	28584
811.299	28683
811.441	28660
811.582	28706
811.724	28561
811.865	28516
812.007	28664
812.148	28478
812.29	28569
812.431	28782
812.573	28999
812.714	29052
812.855	29037
812.997	29239
813.138	29235
813.279	29200
813.421	29227
813.562	28999
813.703	28911
813.845	28847
813.986	28664
814.127	28398
814.268	28382
814.41	28158
814.551	28261
814.692	28291
814.833	28188
814.974	28306
815.115	28306
815.256	28173
815.397	28226
815.539	28128
815.68	28135
815.821	28010
815.962	28010
816.103	27983
816.244	27975
816.385	27911
816.526	27953
816.666	27747
816.807	27660
816.948	27717
817.089	27778
817.23	27656
817.371	27614
817.512	27709
817.653	27686
817.793	27504
817.934	27652
818.075	27648
818.216	27538
818.356	27641
818.497	27416
818.638	27283
818.778	27363
818.919	27420
819.06	27393
819.2	27401
819.341	27534
819.481	27648
819.622	27759
819.762	27994
819.903	28048
820.043	27876
820.184	27713
820.324	27781
820.465	27827
820.605	27736
820.746	27732
820.886	27660
821.026	27774
821.167	27580
821.307	27717
821.447	27732
821.588	27553
821.728	27321
821.868	27260
822.008	27089
822.149	26948
822.289	27047
822.429	26678
822.569	26777
822.709	26731
822.849	26602
822.99	26686
823.13	26549
823.27	26450
823.41	26423
823.55	26301
823.69	26343
823.83	26358
823.97	26336
824.11	26256
824.25	26244
824.389	26199
824.529	26434
824.669	26336
824.809	26427
824.949	26358
825.089	26317
825.228	26381
825.368	26077
825.508	26134
825.648	26161
825.787	26320
825.927	26290
826.067	26149
826.206	26084
826.346	26065
826.485	26202
826.625	26046
826.765	26195
826.904	26157
827.044	25917
827.183	26027
827.323	25860
827.462	25982
827.601	25788
827.741	25902
827.88	25951
828.02	25795
828.159	25913
828.298	25951
828.437	26027
828.577	25742
828.716	25871
828.855	25791
828.994	25647
829.134	25582
829.273	25594
829.412	25571
829.551	25563
829.69	25533
829.829	25567
829.968	25491
830.107	25635
830.246	25586
830.385	25495
830.524	25460
830.663	25384
830.802	25270
830.941	25141
831.08	25190
831.219	25202
831.357	25282
831.496	25400
831.635	25251
831.774	25122
831.913	25031
832.051	24989
832.19	24882
832.329	24863
832.467	24985
832.606	24882
832.744	24954
832.883	24894
833.022	24814
833.16	24825
833.299	24897
833.437	24833
833.576	24932
833.714	24901
833.852	25084
833.991	24970
834.129	25103
834.267	25031
834.406	25145
834.544	25050
834.682	24954
834.821	25023
834.959	24996
835.097	24859
835.235	25061
835.373	24806
835.511	24992
835.65	24749
835.788	24882
835.926	24642
836.064	24582
836.202	24650
836.34	24867
836.478	24814
836.615	24661
836.753	24840
836.891	24817
837.029	24776
837.167	24707
837.305	24707
837.443	24654
837.58	24681
837.718	24563
837.856	24665
837.993	24525
838.131	24574
838.269	24456
838.406	24623
838.544	24452
838.681	24254
838.819	24076
838.956	24087
839.094	24136
839.231	24011
839.369	24273
839.506	24528
839.643	24273
839.781	24209
839.918	23969
840.055	24079
840.193	24121
840.33	24057
840.467	23889
840.604	24095
840.742	24232
840.879	23821
841.016	24011
841.153	23882
841.29	24125
841.427	24110
841.564	24007
841.701	23935
841.838	23950
841.975	23901
842.112	23847
842.249	23733
842.385	23714
842.522	23992
842.659	23710
842.796	23786
842.933	23722
843.069	23714
843.206	23642
843.343	23855
843.479	23680
843.616	23630
843.752	23573
843.889	23592
844.025	23551
844.162	23490
844.298	23764
844.435	23547
844.571	23528
844.708	23535
844.844	23783
844.98	23668
845.117	23745
845.253	23562
845.389	23345
845.525	23497
845.661	23376
845.798	23277
845.934	23220
846.07	23326
846.206	23261
846.342	23326
846.478	23166
846.614	23113
846.75	22999
846.886	22987
847.022	23086
847.158	23090
847.294	22991
847.429	22885
847.565	22934
847.701	23102
847.837	22615
847.972	22793
848.108	22664
848.244	22809
848.379	22626
848.515	22565
848.65	22519
848.786	22478
848.921	22592
849.057	22649
849.192	22637
849.328	22698
849.463	22546
849.598	22459
849.734	22489
849.869	22474
850.004	22371
850.14	22417
850.275	22379
850.41	22310
850.545	22253
850.68	22295
850.815	22398
850.95	22356
851.085	22538
851.22	22432
851.355	22348
851.49	22402
851.625	22394
851.76	22287
851.895	22158
852.03	22402
852.165	22261
852.299	22394
852.434	22428
852.569	22356
852.703	22272
852.838	22459
852.973	22470
853.107	22356
853.242	22295
853.376	22109
853.511	22055
853.645	22128
853.78	22291
853.914	22265
854.048	22086
854.183	22207
854.317	22196
854.451	22333
854.585	22207
854.72	22295
854.854	22223
854.988	22177
855.122	22211
855.256	21979
855.39	22154
855.524	22139
855.658	22097
855.792	22025
855.926	22059
856.06	22128
856.194	22166
856.327	22105
856.461	22048
856.595	22097
856.729	22128
856.862	22253
856.996	22147
857.13	22215
857.263	22211
857.397	22287
857.53	22215
857.664	22154
857.797	22196
857.931	22200
858.064	22204
858.197	22295
858.331	22230
858.464	21975
858.597	21998
858.731	22059
858.864	22120
858.997	22097
859.13	22124
859.263	22173
859.396	22261
859.529	22150
859.662	22067
859.795	22147
859.928	22074
860.061	22291
860.194	22360
860.327	22181
860.46	22154
860.592	22337
860.725	22268
860.858	22306
860.99	22204
861.123	22070
861.256	22150
861.388	22226
861.521	22942
861.653	22044
861.786	21926
861.918	22006
862.05	21979
862.183	22105
862.315	21930
862.447	22242
862.58	22055
862.712	21953
862.844	21857
862.976	22025
863.108	21922
863.24	22246
863.372	21812
863.504	21762
863.636	21899
863.768	21956
863.9	21827
864.032	21857
864.164	21720
864.296	21819
864.428	21956
864.559	21949
864.691	21945
864.823	21781
864.954	21899
865.086	21835
865.217	21739
865.349	21572
865.48	21831
865.612	21774
865.743	21766
865.875	21736
866.006	21762
866.137	21812
866.269	21709
866.4	21724
866.531	21587
866.662	21580
866.793	21743
866.924	21705
867.055	21679
867.186	21698
867.317	21644
867.448	21656
867.579	21610
867.71	21675
867.841	21504
867.972	21667
868.103	21656
868.233	21690
868.364	21576
868.495	21861
868.625	21781
868.756	21998
868.886	21831
869.017	21850
869.147	21956
869.278	21998
869.408	21934
869.539	21892
869.669	22025
869.799	22002
869.929	21998
870.06	21964
870.19	22143
870.32	22158
870.45	22226
870.58	22398
870.71	22474
870.84	22405
870.97	22253
871.1	22405
871.23	22405
871.36	22405
871.489	22424
871.619	22310
871.749	22531
871.879	22390
872.008	22577
872.138	22611
872.267	22466
872.397	22382
872.526	22314
872.656	22402
872.785	22276
872.915	22588
873.044	22584
873.173	22394
873.303	22470
873.432	22573
873.561	22664
873.69	22493
873.819	22569
873.948	22584
874.077	22516
874.206	22459
874.335	22497
874.464	22694
874.593	22759
874.722	22694
874.851	22717
874.979	22729
875.108	22740
875.237	22710
875.365	22668
875.494	22744
875.623	22698
875.751	22637
875.88	22702
876.008	22820
876.136	22904
876.265	23189
876.393	23185
876.521	23079
876.65	23231
876.778	23140
876.906	23113
877.034	22980
877.162	23166
877.29	22892
877.418	23159
877.546	23117
877.674	23159
877.802	22930
877.93	23025
878.058	22991
878.185	22972
878.313	22927
878.441	22953
878.568	22946
878.696	23003
878.824	23216
878.951	23140
879.079	23231
879.206	23227
879.333	23162
879.461	23239
879.588	23128
879.715	23246
879.842	23452
879.97	23216
880.097	22881
880.224	22915
880.351	23003
880.478	22866
880.605	22786
880.732	22927
880.859	23121
880.986	22820
881.112	22904
881.239	22812
881.366	22577
881.493	22474
881.619	22325
881.746	22436
881.872	22504
881.999	22459
882.125	22470
882.252	22485
882.378	22443
882.505	22542
882.631	22253
882.757	22131
882.883	22223
883.01	22215
883.136	22120
883.262	22097
883.388	21934
883.514	22051
883.64	22177
883.766	22006
883.892	22067
884.018	21937
884.143	22097
884.269	22185
884.395	21918
884.52	21747
884.646	21838
884.772	21709
884.897	21785
885.023	21720
885.148	21922
885.274	21960
885.399	21835
885.524	21804
885.65	21800
885.775	21880
885.9	21884
886.025	21808
886.15	21812
886.275	21701
886.4	21648
886.525	21770
886.65	21705
886.775	21732
886.9	21903
887.025	21960
887.149	21804
887.274	21542
887.399	21477
887.523	21492
887.648	21431
887.773	21431
887.897	21610
888.021	21564
888.146	21408
888.27	21542
888.395	21633
888.519	21717
888.643	21618
888.767	21663
888.891	21485
889.015	21313
889.139	21344
889.263	21317
889.387	21477
889.511	21496
889.635	21329
889.759	21321
889.883	21294
890.006	21313
890.13	21401
890.254	21226
890.377	21275
890.501	21055
890.624	20944
890.748	21055
890.871	21043
890.995	20785
891.118	20823
891.241	20891
891.364	20880
891.488	21028
891.611	20883
891.734	20868
891.857	20960
891.98	20899
892.103	21001
892.226	20929
892.349	20834
892.471	20716
892.594	20777
892.717	20861
892.839	20765
892.962	20807
893.085	20883
893.207	20697
893.33	20693
893.452	20735
893.575	20925
893.697	20777
893.819	20864
893.941	21024
894.064	20861
894.186	20705
894.308	20720
894.43	20811
894.552	20918
894.674	20800
894.796	20712
894.918	20632
895.04	20674
895.161	20887
895.283	20804
895.405	20701
895.526	20758
895.648	20667
895.769	20727
895.891	20830
896.012	20845
896.134	20762
896.255	20804
896.376	20724
896.498	20724
896.619	20796
896.74	20674
896.861	20807
896.982	21070
897.103	21161
897.224	21077
897.345	20998
897.466	20929
897.587	20948
897.708	21043
897.828	20952
897.949	20899
898.07	20815
898.19	20895
898.311	21009
898.431	20960
898.552	20971
898.672	21028
898.792	20960
898.913	21051
899.033	20842
899.153	20750
899.273	20655
899.393	20678
899.513	20868
899.633	20705
899.753	20663
899.873	20678
899.993	20667
900.113	20701
900.232	20644
900.352	20617
900.472	20560
900.591	20415
900.711	20636
900.83	20355
900.95	20663
901.069	20492
901.189	20381
901.308	20046
901.427	20065
901.546	20138
901.665	20088
901.784	20054
901.904	20001
902.023	19750
902.141	19651
902.26	19609
902.379	19628
902.498	19460
902.617	19495
902.735	19624
902.854	19460
902.973	19491
903.091	19236
903.21	19179
903.328	19175
903.446	19042
903.565	18905
903.683	18928
903.801	18867
903.919	18878
904.038	18947
904.156	18734
904.274	18783
904.392	18764
904.51	18711
904.627	18719
904.745	18833
904.863	18867
904.981	18521
905.098	18391
905.216	18429
905.334	18486
905.451	18521
905.569	18361
905.686	18464
905.803	18433
905.921	18178
906.038	18258
906.155	18266
906.272	18228
906.389	18136
906.506	18026
906.623	17977
906.74	17988
906.857	17916
906.974	17813
907.091	17954
907.208	18095
907.324	17885
907.441	17870
907.557	17634
907.674	17703
907.79	17547
907.907	17543
908.023	17642
908.139	17729
908.256	17619
908.372	17459
908.488	17493
908.604	17417
908.72	17376
908.836	17360
908.952	17269
909.068	17387
909.184	17440
909.3	17372
909.415	17478
909.531	17440
909.647	17189
909.762	17086
909.878	17113
909.993	17113
910.108	17174
910.224	16908
910.339	17041
910.454	16972
910.57	16919
910.685	16828
910.8	17143
910.915	17048
911.03	16946
911.145	16755
911.259	16687
911.374	16733
911.489	16558
911.604	16428
911.718	16485
911.833	16405
911.947	16295
912.062	16356
912.176	16436
912.291	16325
912.405	16409
912.519	16497
912.633	16641
912.748	16497
912.862	16306
912.976	16272
913.09	16188
913.204	16211
913.318	16219
913.431	16352
913.545	16219
913.659	16367
913.772	16223
913.886	16120
914	16051
914.113	16143
914.226	16166
914.34	16067
914.453	16017
914.566	16067
914.68	15979
914.793	15819
914.906	15785
915.019	15614
915.132	15538
915.245	15686
915.358	15633
915.47	15599
915.583	15587
915.696	15660
915.809	15724
915.921	15648
916.034	15523
916.146	15458
916.259	15439
916.371	15576
916.483	15492
916.595	15549
916.708	15408
916.82	15397
916.932	15374
917.044	15473
917.156	15393
917.268	15165
917.38	15192
917.491	15211
917.603	15268
917.715	15329
917.826	15367
917.938	15058
918.049	15058
918.161	15157
918.272	15302
918.384	15294
918.495	15241
918.606	14990
918.717	14918
918.828	15100
918.939	15051
919.05	14891
919.161	15051
919.272	14788
919.383	14819
919.494	15043
919.604	15127
919.715	14918
919.826	14883
919.936	14864
920.047	15005
920.157	14956
920.267	15161
920.378	14918
920.488	14994
920.598	15077
920.708	15283
920.818	15032
920.928	15081
921.038	15279
921.148	15256
921.258	14857
921.368	14727
921.477	14769
921.587	14651
921.697	14495
921.806	14598
921.916	14533
922.025	14400
922.134	14298
922.244	14278
922.353	14324
922.462	14214
922.571	14126
922.68	13947
922.789	13940
922.898	13967
923.007	13833
923.116	13997
923.224	13913
923.333	13928
923.442	13795
923.55	13769
923.659	13841
923.767	13894
923.876	13700
923.984	13833
924.092	13662
924.201	13670
924.309	13693
924.417	13624
924.525	13594
924.633	13502
924.741	14545
924.849	13316
924.956	13506
925.064	13411
925.172	13312
925.279	13282
925.387	13350
925.494	13316
925.602	13407
925.709	13343
925.816	13228
925.924	13270
926.031	13476
926.138	13350
926.245	13270
926.352	13232
926.459	13392
926.566	13293
926.673	13168
926.779	13065
926.886	13091
926.993	12993
927.099	12856
927.206	12844
927.312	12779
927.419	12943
927.525	12882
927.631	12856
927.737	12810
927.843	12669
927.95	12555
928.056	12692
928.162	12700
928.267	12692
928.373	13335
928.479	12749
928.585	12608
928.69	12764
928.796	12711
928.901	12604
929.007	12479
929.112	12532
929.218	12536
929.323	12342
929.428	12357
929.533	12547
929.638	12361
929.743	12342
929.848	12429
929.953	12308
930.058	12266
930.163	12045
930.267	12064
930.372	12186
930.477	12038
930.581	12251
930.685	12106
930.79	11980
930.894	11988
930.998	11923
931.103	12110
931.207	11714
931.311	11608
931.415	11554
931.519	11345
931.623	11383
