Data from test_V78500241_2252.txt Node
Date: Fri Mar 25 15:25:32 CST 2022
User: usil
Spectrometer: V785-0024
Trigger mode: 0
Integration Time (sec): 4.000000E-1
Scans to average: 1
Nonlinearity correction enabled: false
Boxcar width: 0
Storing dark spectrum: false
XAxis mode: Wavelengths
Number of Pixels in Spectrum: 1024
>>>>>Begin Spectral Data<<<<<
801.071	27816
801.214	27739
801.356	27492
801.499	27466
801.641	27367
801.783	27287
801.926	27260
802.068	27294
802.211	27207
802.353	27222
802.496	26914
802.638	26918
802.78	27013
802.923	26819
803.065	26800
803.208	26876
803.35	26975
803.492	27074
803.635	27051
803.777	26990
803.919	27142
804.061	27458
804.204	27313
804.346	27070
804.488	27112
804.63	27077
804.773	27062
804.915	27184
805.057	27249
805.199	27062
805.341	27252
805.483	27332
805.626	27332
805.768	27294
805.91	27104
806.052	27245
806.194	27218
806.336	27317
806.478	27207
806.62	27256
806.762	27317
806.904	27420
807.046	27755
807.188	27812
807.33	27774
807.472	27743
807.614	27694
807.756	27507
807.898	27450
808.04	27450
808.182	27557
808.324	27618
808.465	27477
808.607	27671
808.749	28097
808.891	27865
809.033	28131
809.174	27850
809.316	27895
809.458	27808
809.6	27979
809.741	27979
809.883	28010
810.025	28169
810.166	28204
810.308	28070
810.45	28097
810.591	28010
810.733	27903
810.875	27850
811.016	27770
811.158	27728
811.299	27945
811.441	27994
811.582	27953
811.724	27831
811.865	27797
812.007	27842
812.148	27888
812.29	27895
812.431	28029
812.573	28211
812.714	28333
812.855	28394
812.997	28527
813.138	28519
813.279	28493
813.421	28451
813.562	28310
813.703	28116
813.845	28166
813.986	27956
814.127	27682
814.268	27595
814.41	27606
814.551	27530
814.692	27564
814.833	27473
814.974	27427
815.115	27435
815.256	27454
815.397	27488
815.539	27496
815.68	27344
815.821	27294
815.962	27306
816.103	27241
816.244	27260
816.385	27138
816.526	27074
816.666	27039
816.807	26853
816.948	26994
817.089	27096
817.23	26857
817.371	26743
817.512	26826
817.653	26891
817.793	26876
817.934	26880
818.075	26792
818.216	26891
818.356	26792
818.497	26686
818.638	26731
818.778	26507
818.919	26621
819.06	26720
819.2	26670
819.341	26853
819.481	26853
819.622	27001
819.762	27112
819.903	27066
820.043	26998
820.184	26918
820.324	26811
820.465	27001
820.605	26967
820.746	26857
820.886	26842
821.026	26823
821.167	26899
821.307	26986
821.447	26880
821.588	26857
821.728	26503
821.868	26396
822.008	26343
822.149	26286
822.289	26176
822.429	26214
822.569	26043
822.709	25978
822.849	25909
822.99	25734
823.13	25822
823.27	25875
823.41	25563
823.55	25415
823.69	25609
823.83	25586
823.97	25388
824.11	25472
824.25	25400
824.389	25544
824.529	25510
824.669	25529
824.809	25567
824.949	25563
825.089	25464
825.228	25556
825.368	25285
825.508	25255
825.648	25236
825.787	25301
825.927	25354
826.067	25304
826.206	25148
826.346	25320
826.485	25335
826.625	25381
826.765	25430
826.904	25369
827.044	25061
827.183	25126
827.323	24935
827.462	25107
827.601	24958
827.741	25031
827.88	24901
828.02	24882
828.159	24962
828.298	25015
828.437	24973
828.577	24924
828.716	25065
828.855	25034
828.994	24608
829.134	24719
829.273	24741
829.412	24646
829.551	24642
829.69	24719
829.829	24719
829.968	24730
830.107	24715
830.246	24738
830.385	24669
830.524	24665
830.663	24513
830.802	24471
830.941	24281
831.08	24353
831.219	24338
831.357	24486
831.496	24601
831.635	24380
831.774	24068
831.913	24174
832.051	24121
832.19	24102
832.329	23988
832.467	24022
832.606	23904
832.744	23961
832.883	23946
833.022	23958
833.16	23984
833.299	24034
833.437	23950
833.576	24045
833.714	24079
833.852	24007
833.991	24072
834.129	24011
834.267	24163
834.406	23939
834.544	23992
834.682	24038
834.821	24026
834.959	24186
835.097	23939
835.235	24174
835.373	23954
835.511	24148
835.65	23939
835.788	23866
835.926	23691
836.064	23756
836.202	23760
836.34	23946
836.478	23999
836.615	23752
836.753	23843
836.891	24003
837.029	23824
837.167	23821
837.305	23798
837.443	23901
837.58	23824
837.718	23695
837.856	23779
837.993	23630
838.131	23535
838.269	23509
838.406	23733
838.544	23539
838.681	23299
838.819	23356
838.956	23113
839.094	23140
839.231	23193
839.369	23303
839.506	23516
839.643	23573
839.781	23250
839.918	23086
840.055	23079
840.193	23075
840.33	23064
840.467	23109
840.604	23121
840.742	23364
840.879	22847
841.016	23181
841.153	22927
841.29	23162
841.427	23166
841.564	23178
841.701	23052
841.838	22957
841.975	22881
842.112	23037
842.249	22881
842.385	22847
842.522	23060
842.659	22812
842.796	22782
842.933	22793
843.069	22713
843.206	22866
843.343	22850
843.479	22744
843.616	22968
843.752	22588
843.889	22653
844.025	22698
844.162	22641
844.298	22618
844.435	22645
844.571	22538
844.708	22626
844.844	22774
844.98	22752
845.117	22744
845.253	22561
845.389	22455
845.525	22459
845.661	22462
845.798	22367
845.934	22337
846.07	22223
846.206	22405
846.342	22394
846.478	22303
846.614	22120
846.75	21991
846.886	22169
847.022	22143
847.158	22070
847.294	22101
847.429	22158
847.565	22109
847.701	22280
847.837	21831
847.972	21732
848.108	21770
848.244	21865
848.379	21755
848.515	21713
848.65	21641
848.786	21766
848.921	21732
849.057	21755
849.192	21739
849.328	21610
849.463	21595
849.598	21599
849.734	21561
849.869	21515
850.004	21549
850.14	21431
850.275	21374
850.41	21374
850.545	21275
850.68	21545
850.815	21386
850.95	21344
851.085	21568
851.22	21583
851.355	21515
851.49	21332
851.625	21401
851.76	21367
851.895	21302
852.03	21359
852.165	21325
852.299	21519
852.434	21420
852.569	21435
852.703	21481
852.838	21542
852.973	21428
853.107	21595
853.242	21401
853.376	21283
853.511	21272
853.645	21195
853.78	21439
853.914	21317
854.048	21287
854.183	21241
854.317	21279
854.451	21260
854.585	21363
854.72	21218
854.854	21355
854.988	21070
855.122	21264
855.256	21157
855.39	21249
855.524	21439
855.658	21401
855.792	21150
855.926	21306
856.06	21298
856.194	21450
856.327	21260
856.461	21081
856.595	21233
856.729	21211
856.862	21458
856.996	21218
857.13	21275
857.263	21313
857.397	21313
857.53	21241
857.664	21249
857.797	21348
857.931	21447
858.064	21317
858.197	21306
858.331	21256
858.464	21287
858.597	21051
858.731	21157
858.864	21001
858.997	21150
859.13	21211
859.263	21211
859.396	21370
859.529	21233
859.662	21211
859.795	21264
859.928	21310
860.061	21382
860.194	21462
860.327	21192
860.46	21192
860.592	21435
860.725	21340
860.858	21359
860.99	21241
861.123	21188
861.256	21291
861.388	21313
861.521	22013
861.653	21127
861.786	21043
861.918	21043
862.05	21028
862.183	21096
862.315	21112
862.447	21317
862.58	21108
862.712	21001
862.844	20883
862.976	20967
863.108	21081
863.24	21245
863.372	20925
863.504	21024
863.636	20998
863.768	20872
863.9	20925
864.032	20819
864.164	20914
864.296	21074
864.428	21077
864.559	20994
864.691	21074
864.823	20979
864.954	20861
865.086	21009
865.217	20914
865.349	20769
865.48	20857
865.612	20861
865.743	20944
865.875	20929
866.006	20861
866.137	20891
866.269	20765
866.4	20765
866.531	20788
866.662	20769
866.793	20746
866.924	20857
867.055	20853
867.186	20842
867.317	20769
867.448	20674
867.579	20845
867.71	20727
867.841	20796
867.972	20781
868.103	20773
868.233	20845
868.364	20845
868.495	20864
868.625	20990
868.756	21203
868.886	20963
869.017	21047
869.147	21036
869.278	21161
869.408	21051
869.539	21104
869.669	21096
869.799	21104
869.929	21203
870.06	21074
870.19	21363
870.32	21275
870.45	21298
870.58	21287
870.71	21458
870.84	21519
870.97	21374
871.1	21416
871.23	21439
871.36	21633
871.489	21374
871.619	21663
871.749	21641
871.879	21633
872.008	21694
872.138	21583
872.267	21633
872.397	21458
872.526	21443
872.656	21450
872.785	21481
872.915	21595
873.044	21793
873.173	21679
873.303	21629
873.432	21625
873.561	21751
873.69	21747
873.819	21713
873.948	21747
874.077	21671
874.206	21591
874.335	21652
874.464	21679
874.593	21880
874.722	21884
874.851	22013
874.979	21816
875.108	22029
875.237	21876
875.365	21846
875.494	21873
875.623	21998
875.751	21873
875.88	21949
876.008	21968
876.136	22025
876.265	22226
876.393	22379
876.521	22238
876.65	22485
876.778	22379
876.906	22105
877.034	22226
877.162	22192
877.29	22173
877.418	22223
877.546	22242
877.674	22261
877.802	22185
877.93	22246
878.058	22234
878.185	22105
878.313	22226
878.441	22063
878.568	22128
878.696	22181
878.824	22230
878.951	22284
879.079	22421
879.206	22516
879.333	22348
879.461	22295
879.588	22287
879.715	22405
879.842	22569
879.97	22367
880.097	22112
880.224	22147
880.351	22032
880.478	22078
880.605	22135
880.732	22169
880.859	22162
880.986	22135
881.112	22093
881.239	21915
881.366	21800
881.493	21789
881.619	21648
881.746	21728
881.872	21705
881.999	21720
882.125	21667
882.252	21625
882.378	21530
882.505	21633
882.631	21542
882.757	21287
882.883	21428
883.01	21302
883.136	21272
883.262	21127
883.388	21218
883.514	21317
883.64	21370
883.766	21192
883.892	21093
884.018	21127
884.143	21165
884.269	21443
884.395	20979
884.52	21017
884.646	20979
884.772	20910
884.897	21001
885.023	20948
885.148	21138
885.274	21127
885.399	21089
885.524	21085
885.65	21036
885.775	20982
885.9	20979
886.025	20986
886.15	21112
886.275	20902
886.4	20785
886.525	20933
886.65	20842
886.775	20781
886.9	20929
887.025	21055
887.149	20982
887.274	20838
887.399	20640
887.523	20621
887.648	20750
887.773	20575
887.897	20674
888.021	20765
888.146	20739
888.27	20773
888.395	20705
888.519	20712
888.643	20800
888.767	20762
888.891	20598
889.015	20564
889.139	20598
889.263	20499
889.387	20655
889.511	20587
889.635	20720
889.759	20609
889.883	20617
890.006	20560
890.13	20469
890.254	20495
890.377	20503
890.501	20355
890.624	20286
890.748	20377
890.871	20142
890.995	20020
891.118	20027
891.241	20206
891.364	20161
891.488	20237
891.611	19970
891.734	20012
891.857	20142
891.98	20031
892.103	20191
892.226	20081
892.349	19978
892.471	19879
892.594	20008
892.717	20062
892.839	20008
892.962	20012
893.085	20157
893.207	20008
893.33	19890
893.452	19913
893.575	19982
893.697	19967
893.819	20218
893.941	20210
894.064	20180
894.186	19944
894.308	19887
894.43	20145
894.552	20134
894.674	20020
894.796	19902
894.918	19951
895.04	19833
895.161	20111
895.283	20100
895.405	19921
895.526	20062
895.648	19845
895.769	19921
895.891	20103
896.012	20088
896.134	20107
896.255	20008
896.376	19967
896.498	19959
896.619	20058
896.74	19936
896.861	20107
896.982	20320
897.103	20328
897.224	20320
897.345	20240
897.466	20210
897.587	20176
897.708	20351
897.828	20271
897.949	20218
898.07	20005
898.19	20138
898.311	20324
898.431	20214
898.552	20168
898.672	20233
898.792	20263
898.913	20275
899.033	20088
899.153	20005
899.273	19894
899.393	19982
899.513	20183
899.633	20031
899.753	19978
899.873	19951
899.993	20043
900.113	19936
900.232	19894
900.352	19974
900.472	19818
900.591	19731
900.711	19704
900.83	19799
900.95	19860
901.069	19776
901.189	19670
901.308	19400
901.427	19365
901.546	19331
901.665	19274
901.784	19343
901.904	19285
902.023	19091
902.141	19053
902.26	18878
902.379	18909
902.498	18795
902.617	18886
902.735	18825
902.854	18905
902.973	18768
903.091	18513
903.21	18445
903.328	18490
903.446	18460
903.565	18323
903.683	18296
903.801	18216
903.919	18395
904.038	18429
904.156	18254
904.274	18247
904.392	18068
904.51	18064
904.627	18148
904.745	18136
904.863	18083
904.981	17855
905.098	17779
905.216	17824
905.334	17783
905.451	17802
905.569	17695
905.686	17813
905.803	17809
905.921	17486
906.038	17630
906.155	17558
906.272	17398
906.389	17486
906.506	17242
906.623	17269
906.74	17307
906.857	17159
906.974	17341
907.091	17322
907.208	17368
907.324	17318
907.441	17102
907.557	17022
907.674	17067
907.79	16911
907.907	16972
908.023	17060
908.139	17033
908.256	17075
908.372	16869
908.488	16854
908.604	16866
908.72	16649
908.836	16733
908.952	16645
909.068	16729
909.184	16816
909.3	16748
909.415	16778
909.531	16752
909.647	16428
909.762	16561
909.878	16432
909.993	16485
910.108	16466
910.224	16508
910.339	16497
910.454	16261
910.57	16333
910.685	16131
910.8	16451
910.915	16371
911.03	16246
911.145	16169
911.259	15956
911.374	16112
911.489	16013
911.604	15926
911.718	15876
911.833	15888
911.947	15534
912.062	15530
912.176	15705
912.291	15873
912.405	15736
912.519	16067
912.633	15941
912.748	15819
912.862	15778
912.976	15629
913.09	15488
913.204	15603
913.318	15603
913.431	15705
913.545	15663
913.659	15698
913.772	15561
913.886	15450
914	15382
914.113	15462
914.226	15599
914.34	15473
914.453	15256
914.566	15450
914.68	15405
914.793	15249
914.906	15100
915.019	15017
915.132	14986
915.245	14982
915.358	15108
915.47	14971
915.583	15013
915.696	15055
915.809	15123
915.921	15135
916.034	14956
916.146	14998
916.259	14937
916.371	14925
916.483	14982
916.595	14838
916.708	14826
916.82	14880
916.932	14788
917.044	14883
917.156	14830
917.268	14754
917.38	14758
917.491	14560
917.603	14655
917.715	14644
917.826	14777
917.938	14651
918.049	14522
918.161	14568
918.272	14731
918.384	14777
918.495	14651
918.606	14522
918.717	14362
918.828	14499
918.939	14514
919.05	14317
919.161	14473
919.272	14115
919.383	14210
919.494	14492
919.604	14674
919.715	14423
919.826	14282
919.936	14362
920.047	14480
920.157	14370
920.267	14598
920.378	14423
920.488	14309
920.598	14594
920.708	14708
920.818	14549
920.928	14541
921.038	14621
921.148	14583
921.258	14362
921.368	14275
921.477	14180
921.587	14069
921.697	13993
921.806	14183
921.916	13989
922.025	13871
922.134	13814
922.244	13723
922.353	13795
922.462	13651
922.571	13590
922.68	13483
922.789	13445
922.898	13388
923.007	13377
923.116	13434
923.224	13415
923.333	13430
923.442	13316
923.55	13247
923.659	13289
923.767	13384
923.876	13232
923.984	13247
924.092	13080
924.201	13137
924.309	13171
924.417	13164
924.525	13046
924.633	13099
924.741	13811
924.849	12882
924.956	13088
925.064	12837
925.172	12814
925.279	12802
925.387	12852
925.494	12859
925.602	13004
925.709	12905
925.816	12757
925.924	12791
926.031	12890
926.138	12795
926.245	12848
926.352	12772
926.459	12768
926.566	12779
926.673	12711
926.779	12646
926.886	12582
926.993	12525
927.099	12426
927.206	12384
927.312	12376
927.419	12418
927.525	12395
927.631	12475
927.737	12308
927.843	12247
927.95	12140
928.056	12300
928.162	12197
928.267	12216
928.373	13004
928.479	12281
928.585	12068
928.69	12228
928.796	12239
928.901	12117
929.007	11946
929.112	12098
929.218	12022
929.323	12041
929.428	12045
929.533	12068
929.638	11843
929.743	11935
929.848	12026
929.953	11908
930.058	11882
930.163	11615
930.267	11680
930.372	11805
930.477	11649
930.581	11855
930.685	11710
930.79	11520
930.894	11535
930.998	11573
931.103	11661
931.207	11212
931.311	11212
931.415	11143
931.519	10991
931.623	10824
