Data from test_V78500241_2644.txt Node
Date: Fri Mar 25 15:28:16 CST 2022
User: usil
Spectrometer: V785-0024
Trigger mode: 0
Integration Time (sec): 4.000000E-1
Scans to average: 1
Nonlinearity correction enabled: false
Boxcar width: 0
Storing dark spectrum: false
XAxis mode: Wavelengths
Number of Pixels in Spectrum: 1024
>>>>>Begin Spectral Data<<<<<
801.071	27203
801.214	27142
801.356	27001
801.499	26845
801.641	26648
801.783	26788
801.926	26674
802.068	26758
802.211	26758
802.353	26625
802.496	26549
802.638	26434
802.78	26503
802.923	26351
803.065	26320
803.208	26362
803.35	26412
803.492	26537
803.635	26587
803.777	26518
803.919	26598
804.061	26910
804.204	26434
804.346	26545
804.488	26488
804.63	26587
804.773	26495
804.915	26579
805.057	26686
805.199	26503
805.341	26750
805.483	26724
805.626	26640
805.768	26514
805.91	26606
806.052	26609
806.194	26571
806.336	26819
806.478	26602
806.62	26613
806.762	26773
806.904	26937
807.046	27070
807.188	27062
807.33	27032
807.472	27131
807.614	27020
807.756	27036
807.898	26906
808.04	26914
808.182	26834
808.324	26830
808.465	26971
808.607	27096
808.749	27355
808.891	27291
809.033	27363
809.174	27302
809.316	27237
809.458	27272
809.6	27138
809.741	27302
809.883	27481
810.025	27420
810.166	27549
810.308	27427
810.45	27485
810.591	27401
810.733	27336
810.875	27142
811.016	27047
811.158	27237
811.299	27424
811.441	27359
811.582	27431
811.724	27439
811.865	27070
812.007	27180
812.148	27081
812.29	27272
812.431	27355
812.573	27583
812.714	27774
812.855	27838
812.997	27816
813.138	27994
813.279	27850
813.421	27732
813.562	27553
813.703	27488
813.845	27439
813.986	26990
814.127	27005
814.268	26902
814.41	26868
814.551	26918
814.692	27013
814.833	26781
814.974	26842
815.115	26800
815.256	26819
815.397	26739
815.539	26743
815.68	26571
815.821	26514
815.962	26720
816.103	26514
816.244	26484
816.385	26370
816.526	26301
816.666	26218
816.807	26111
816.948	26092
817.089	26195
817.23	26130
817.371	26161
817.512	26161
817.653	26115
817.793	26115
817.934	26134
818.075	26073
818.216	26214
818.356	26096
818.497	25993
818.638	25761
818.778	25925
818.919	25803
819.06	25974
819.2	26092
819.341	26275
819.481	26199
819.622	26256
819.762	26453
819.903	26393
820.043	26256
820.184	26248
820.324	26142
820.465	26282
820.605	26244
820.746	26214
820.886	26134
821.026	26122
821.167	26225
821.307	26218
821.447	26221
821.588	26081
821.728	26062
821.868	25681
822.008	25586
822.149	25521
822.289	25685
822.429	25240
822.569	25225
822.709	25278
822.849	25236
822.99	25107
823.13	25095
823.27	25095
823.41	24947
823.55	24707
823.69	24905
823.83	24958
823.97	24901
824.11	24802
824.25	24627
824.389	24707
824.529	24726
824.669	24783
824.809	24875
824.949	24802
825.089	24943
825.228	24776
825.368	24574
825.508	24467
825.648	24597
825.787	24738
825.927	24665
826.067	24544
826.206	24589
826.346	24654
826.485	24711
826.625	24623
826.765	24798
826.904	24627
827.044	24323
827.183	24369
827.323	24304
827.462	24323
827.601	24479
827.741	24224
827.88	24391
828.02	24167
828.159	24228
828.298	24254
828.437	24353
828.577	24232
828.716	24350
828.855	24243
828.994	24049
829.134	24034
829.273	24064
829.412	24003
829.551	23904
829.69	23939
829.829	24011
829.968	24041
830.107	24057
830.246	23950
830.385	24018
830.524	24053
830.663	23874
830.802	23729
830.941	23737
831.08	23577
831.219	23805
831.357	23771
831.496	23828
831.635	23726
831.774	23642
831.913	23429
832.051	23497
832.19	23440
832.329	23440
832.467	23318
832.606	23273
832.744	23258
832.883	23315
833.022	23220
833.16	23299
833.299	23410
833.437	23383
833.576	23433
833.714	23402
833.852	23345
833.991	23421
834.129	23501
834.267	23459
834.406	23277
834.544	23440
834.682	23303
834.821	23315
834.959	23531
835.097	23391
835.235	23417
835.373	23322
835.511	23410
835.65	23216
835.788	23208
835.926	23071
836.064	22987
836.202	23052
836.34	23280
836.478	23220
836.615	23098
836.753	23174
836.891	23284
837.029	23265
837.167	23258
837.305	23269
837.443	23083
837.58	23136
837.718	23189
837.856	23056
837.993	22995
838.131	23041
838.269	22976
838.406	22995
838.544	22820
838.681	22778
838.819	22675
838.956	22516
839.094	22443
839.231	22580
839.369	22767
839.506	22919
839.643	22679
839.781	22481
839.918	22447
840.055	22516
840.193	22538
840.33	22542
840.467	22550
840.604	22653
840.742	22755
840.879	22462
841.016	22409
841.153	22436
841.29	22653
841.427	22481
841.564	22451
841.701	22500
841.838	22455
841.975	22470
842.112	22535
842.249	22337
842.385	22299
842.522	22596
842.659	22310
842.796	22200
842.933	22303
843.069	22166
843.206	22150
843.343	22230
843.479	22257
843.616	22223
843.752	22124
843.889	22090
844.025	22124
844.162	21987
844.298	22204
844.435	22051
844.571	21934
844.708	21918
844.844	22158
844.98	22131
845.117	21994
845.253	21979
845.389	21968
845.525	21869
845.661	22002
845.798	21812
845.934	21831
846.07	21671
846.206	21774
846.342	21835
846.478	21724
846.614	21641
846.75	21416
846.886	21466
847.022	21663
847.158	21488
847.294	21622
847.429	21553
847.565	21397
847.701	21686
847.837	21241
847.972	21218
848.108	21401
848.244	21397
848.379	21081
848.515	20948
848.65	21055
848.786	21157
848.921	21058
849.057	21203
849.192	21154
849.328	21081
849.463	21100
849.598	21142
849.734	21157
849.869	20956
850.004	20861
850.14	20895
850.275	20853
850.41	20758
850.545	20845
850.68	20800
850.815	20906
850.95	20868
851.085	21123
851.22	20982
851.355	20971
851.49	20792
851.625	20834
851.76	20834
851.895	20773
852.03	20826
852.165	20937
852.299	20807
852.434	20975
852.569	20887
852.703	20990
852.838	20963
852.973	21043
853.107	20982
853.242	20929
853.376	20826
853.511	20625
853.645	20686
853.78	20800
853.914	20762
854.048	20659
854.183	20648
854.317	20720
854.451	20948
854.585	20651
854.72	20758
854.854	20663
854.988	20716
855.122	20716
855.256	20682
855.39	20594
855.524	20746
855.658	20754
855.792	20762
855.926	20773
856.06	20952
856.194	20807
856.327	20678
856.461	20743
856.595	20621
856.729	20663
856.862	20727
856.996	20617
857.13	20739
857.263	20899
857.397	20769
857.53	20674
857.664	20819
857.797	20796
857.931	20830
858.064	20765
858.197	20826
858.331	20625
858.464	20743
858.597	20571
858.731	20663
858.864	20693
858.997	20617
859.13	20724
859.263	20632
859.396	20735
859.529	20655
859.662	20693
859.795	20663
859.928	20640
860.061	20849
860.194	20937
860.327	20807
860.46	20667
860.592	20796
860.725	20739
860.858	20853
860.99	20705
861.123	20735
861.256	20492
861.388	20689
861.521	21329
861.653	20575
861.786	20377
861.918	20587
862.05	20640
862.183	20511
862.315	20746
862.447	20667
862.58	20617
862.712	20396
862.844	20427
862.976	20522
863.108	20514
863.24	20864
863.372	20396
863.504	20419
863.636	20362
863.768	20488
863.9	20450
864.032	20339
864.164	20457
864.296	20400
864.428	20533
864.559	20518
864.691	20434
864.823	20492
864.954	20362
865.086	20366
865.217	20355
865.349	20199
865.48	20389
865.612	20267
865.743	20522
865.875	20355
866.006	20263
866.137	20237
866.269	20263
866.4	20336
866.531	20290
866.662	20278
866.793	20290
866.924	20218
867.055	20218
867.186	20305
867.317	20381
867.448	20142
867.579	20153
867.71	20176
867.841	20103
867.972	20218
868.103	20157
868.233	20187
868.364	20263
868.495	20301
868.625	20438
868.756	20701
868.886	20362
869.017	20568
869.147	20667
869.278	20568
869.408	20541
869.539	20488
869.669	20560
869.799	20476
869.929	20678
870.06	20659
870.19	20826
870.32	20796
870.45	20743
870.58	20872
870.71	20948
870.84	20933
870.97	20925
871.1	20876
871.23	21100
871.36	21017
871.489	20933
871.619	20963
871.749	20921
871.879	21169
872.008	21150
872.138	21131
872.267	21085
872.397	20986
872.526	21062
872.656	20830
872.785	20921
872.915	21192
873.044	21108
873.173	21188
873.303	21112
873.432	21199
873.561	21207
873.69	21119
873.819	21112
873.948	21104
874.077	21180
874.206	21100
874.335	21138
874.464	21218
874.593	21386
874.722	21214
874.851	21317
874.979	21287
875.108	21492
875.237	21291
875.365	21313
875.494	21264
875.623	21534
875.751	21218
875.88	21397
876.008	21454
876.136	21534
876.265	21789
876.393	21918
876.521	21831
876.65	21804
876.778	21732
876.906	21686
877.034	21736
877.162	21656
877.29	21686
877.418	21759
877.546	21709
877.674	21652
877.802	21823
877.93	21774
878.058	21724
878.185	21534
878.313	21709
878.441	21713
878.568	21511
878.696	21576
878.824	21785
878.951	21713
879.079	21869
879.206	22090
879.333	21865
879.461	21793
879.588	21861
879.715	21736
879.842	22055
879.97	21675
880.097	21530
880.224	21591
880.351	21690
880.478	21507
880.605	21431
880.732	21473
880.859	21808
880.986	21591
881.112	21553
881.239	21374
881.366	21351
881.493	21169
881.619	21131
881.746	21096
881.872	21131
881.999	21184
882.125	21066
882.252	21119
882.378	21131
882.505	21176
882.631	20944
882.757	20861
882.883	20948
883.01	20815
883.136	20785
883.262	20686
883.388	20648
883.514	20815
883.64	20800
883.766	20727
883.892	20492
884.018	20621
884.143	20705
884.269	20925
884.395	20469
884.52	20480
884.646	20541
884.772	20317
884.897	20484
885.023	20423
885.148	20503
885.274	20568
885.399	20609
885.524	20564
885.65	20400
885.775	20454
885.9	20454
886.025	20480
886.15	20564
886.275	20469
886.4	20362
886.525	20438
886.65	20393
886.775	20450
886.9	20651
887.025	20609
887.149	20362
887.274	20206
887.399	20240
887.523	20259
887.648	20214
887.773	20172
887.897	20278
888.021	20355
888.146	20168
888.27	20275
888.395	20339
888.519	20240
888.643	20263
888.767	20244
888.891	20122
889.015	20100
889.139	20122
889.263	19963
889.387	20138
889.511	20294
889.635	20176
889.759	20126
889.883	20016
890.006	20050
890.13	20164
890.254	19993
890.377	19822
890.501	19742
890.624	19830
890.748	19826
890.871	19712
890.995	19635
891.118	19556
891.241	19681
891.364	19624
891.488	19879
891.611	19719
891.734	19685
891.857	19677
891.98	19556
892.103	19609
892.226	19723
892.349	19510
892.471	19480
892.594	19563
892.717	19540
892.839	19632
892.962	19556
893.085	19521
893.207	19647
893.33	19377
893.452	19400
893.575	19578
893.697	19434
893.819	19719
893.941	19807
894.064	19674
894.186	19559
894.308	19468
894.43	19624
894.552	19700
894.674	19590
894.796	19575
894.918	19510
895.04	19491
895.161	19480
895.283	19723
895.405	19559
895.526	19506
895.648	19468
895.769	19460
895.891	19586
896.012	19647
896.134	19578
896.255	19605
896.376	19491
896.498	19594
896.619	19590
896.74	19567
896.861	19499
896.982	19921
897.103	19982
897.224	19849
897.345	19845
897.466	19727
897.587	19776
897.708	19906
897.828	19807
897.949	19738
898.07	19620
898.19	19689
898.311	19955
898.431	19719
898.552	19814
898.672	19925
898.792	19909
898.913	19772
899.033	19742
899.153	19609
899.273	19460
899.393	19525
899.513	19556
899.633	19601
899.753	19487
899.873	19495
899.993	19559
900.113	19411
900.232	19632
900.352	19464
900.472	19312
900.591	19240
900.711	19400
900.83	19324
900.95	19362
901.069	19468
901.189	19293
901.308	19050
901.427	18985
901.546	18886
901.665	18882
901.784	18821
901.904	18882
902.023	18764
902.141	18544
902.26	18589
902.379	18582
902.498	18540
902.617	18376
902.735	18490
902.854	18376
902.973	18338
903.091	18125
903.21	18114
903.328	18159
903.446	17897
903.565	17908
903.683	17889
903.801	17828
903.919	17946
904.038	17920
904.156	17767
904.274	17821
904.392	17722
904.51	17676
904.627	17710
904.745	17649
904.863	17691
904.981	17501
905.098	17429
905.216	17421
905.334	17440
905.451	17379
905.569	17395
905.686	17315
905.803	17337
905.921	17143
906.038	17239
906.155	17143
906.272	17033
906.389	17052
906.506	16991
906.623	16976
906.74	16904
906.857	16744
906.974	16782
907.091	16889
907.208	16984
907.324	16923
907.441	16892
907.557	16660
907.674	16744
907.79	16462
907.907	16577
908.023	16683
908.139	16565
908.256	16584
908.372	16504
908.488	16542
908.604	16485
908.72	16272
908.836	16325
908.952	16382
909.068	16249
909.184	16481
909.3	16333
909.415	16443
909.531	16382
909.647	16093
909.762	16006
909.878	16067
909.993	16051
910.108	15907
910.224	15850
910.339	15953
910.454	15953
910.57	15903
910.685	15774
910.8	16112
910.915	16090
911.03	15907
911.145	15717
911.259	15690
911.374	15637
911.489	15625
911.604	15519
911.718	15420
911.833	15382
911.947	15302
912.062	15393
912.176	15469
912.291	15428
912.405	15477
912.519	15652
912.633	15686
912.748	15492
912.862	15428
912.976	15230
913.09	15123
913.204	15161
913.318	15317
913.431	15249
913.545	15348
913.659	15332
913.772	15131
913.886	15077
914	14941
914.113	15165
914.226	15237
914.34	15154
914.453	15047
914.566	15074
914.68	14872
914.793	14914
914.906	14659
915.019	14655
915.132	14579
915.245	14682
915.358	14701
915.47	14590
915.583	14762
915.696	14731
915.809	14769
915.921	14769
916.034	14537
916.146	14461
916.259	14579
916.371	14594
916.483	14606
916.595	14533
916.708	14492
916.82	14419
916.932	14484
917.044	14488
917.156	14476
917.268	14328
917.38	14408
917.491	14381
917.603	14385
917.715	14377
917.826	14419
917.938	14237
918.049	14221
918.161	14282
918.272	14415
918.384	14427
918.495	14256
918.606	14134
918.717	14031
918.828	14096
918.939	14180
919.05	14020
919.161	14065
919.272	13849
919.383	14031
919.494	14168
919.604	14275
919.715	14119
919.826	14012
919.936	14024
920.047	14073
920.157	14043
920.267	14286
920.378	14058
920.488	14035
920.598	14172
920.708	14377
920.818	14123
920.928	14320
921.038	14301
921.148	14324
921.258	14005
921.368	13959
921.477	13719
921.587	13772
921.697	13616
921.806	13830
921.916	13719
922.025	13575
922.134	13499
922.244	13468
922.353	13597
922.462	13365
922.571	13324
922.68	13168
922.789	13175
922.898	13126
923.007	13084
923.116	13217
923.224	13141
923.333	13065
923.442	13057
923.55	12993
923.659	12928
923.767	13034
923.876	12867
923.984	12977
924.092	12821
924.201	12852
924.309	12897
924.417	12878
924.525	12825
924.633	12859
924.741	13772
924.849	12597
924.956	12711
925.064	12525
925.172	12452
925.279	12521
925.387	12559
925.494	12688
925.602	12681
925.709	12585
925.816	12403
925.924	12506
926.031	12597
926.138	12479
926.245	12597
926.352	12365
926.459	12502
926.566	12585
926.673	12460
926.779	12323
926.886	12270
926.993	12117
927.099	12186
927.206	12057
927.312	12102
927.419	12095
927.525	12133
927.631	12152
927.737	12072
927.843	11973
927.95	11912
928.056	11958
928.162	11935
928.267	11969
928.373	12528
928.479	12125
928.585	11828
928.69	11969
928.796	11950
928.901	11935
929.007	11722
929.112	11745
929.218	11809
929.323	11760
929.428	11596
929.533	11786
929.638	11642
929.743	11589
929.848	11726
929.953	11604
930.058	11562
930.163	11364
930.267	11376
930.372	11543
930.477	11364
930.581	11596
930.685	11436
930.79	11258
930.894	11303
930.998	11140
931.103	11368
931.207	11006
931.311	10946
931.415	10831
931.519	10672
931.623	10653
