Data from test_V78500241_1001.txt Node
Date: Fri Mar 25 15:16:49 CST 2022
User: usil
Spectrometer: V785-0024
Trigger mode: 0
Integration Time (sec): 4.000000E-1
Scans to average: 1
Nonlinearity correction enabled: false
Boxcar width: 0
Storing dark spectrum: false
XAxis mode: Wavelengths
Number of Pixels in Spectrum: 1024
>>>>>Begin Spectral Data<<<<<
801.071	28432
801.214	28348
801.356	28204
801.499	28112
801.641	28055
801.783	27949
801.926	28135
802.068	27926
802.211	27907
802.353	28029
802.496	27812
802.638	27648
802.78	27671
802.923	27466
803.065	27667
803.208	27583
803.35	27545
803.492	27755
803.635	27842
803.777	27713
803.919	27793
804.061	28204
804.204	27850
804.346	27865
804.488	27831
804.63	27751
804.773	27720
804.915	27964
805.057	28082
805.199	27823
805.341	27994
805.483	27907
805.626	28002
805.768	28010
805.91	27975
806.052	28105
806.194	27945
806.336	28150
806.478	28230
806.62	28200
806.762	28211
806.904	28481
807.046	28615
807.188	28371
807.33	28470
807.472	28478
807.614	28371
807.756	28440
807.898	28363
808.04	28219
808.182	28341
808.324	28493
808.465	28249
808.607	28607
808.749	28710
808.891	28820
809.033	28862
809.174	28782
809.316	28656
809.458	28763
809.6	28713
809.741	28778
809.883	28729
810.025	28946
810.166	28976
810.308	29037
810.45	29014
810.591	28869
810.733	28816
810.875	28698
811.016	28668
811.158	28565
811.299	28908
811.441	28930
811.582	28843
811.724	28729
811.865	28748
812.007	28786
812.148	28782
812.29	28675
812.431	28923
812.573	29197
812.714	29208
812.855	29223
812.997	29345
813.138	29452
813.279	29387
813.421	29414
813.562	29223
813.703	29143
813.845	28911
813.986	28797
814.127	28580
814.268	28394
814.41	28557
814.551	28405
814.692	28637
814.833	28428
814.974	28436
815.115	28379
815.256	28386
815.397	28417
815.539	28314
815.68	28280
815.821	28150
815.962	28287
816.103	28223
816.244	28204
816.385	28025
816.526	28147
816.666	27876
816.807	27797
816.948	27937
817.089	27774
817.23	27816
817.371	27937
817.512	27778
817.653	27736
817.793	27705
817.934	27705
818.075	27755
818.216	27694
818.356	27705
818.497	27652
818.638	27458
818.778	27568
818.919	27469
819.06	27462
819.2	27660
819.341	27770
819.481	27641
819.622	27884
819.762	28017
819.903	28051
820.043	28013
820.184	27682
820.324	27762
820.465	27865
820.605	27785
820.746	27903
820.886	27732
821.026	27819
821.167	27797
821.307	27873
821.447	27789
821.588	27477
821.728	27545
821.868	27447
822.008	27199
822.149	27199
822.289	27226
822.429	26921
822.569	26811
822.709	26872
822.849	26792
822.99	26712
823.13	26708
823.27	26857
823.41	26689
823.55	26560
823.69	26568
823.83	26640
823.97	26541
824.11	26339
824.25	26457
824.389	26374
824.529	26590
824.669	26552
824.809	26579
824.949	26473
825.089	26495
825.228	26385
825.368	26332
825.508	26153
825.648	26278
825.787	26305
825.927	26286
826.067	26191
826.206	26313
826.346	26347
826.485	26362
826.625	26191
826.765	26355
826.904	26206
827.044	26157
827.183	26149
827.323	25944
827.462	26039
827.601	26081
827.741	26001
827.88	26039
828.02	26008
828.159	25963
828.298	26084
828.437	26054
828.577	26027
828.716	25986
828.855	26005
828.994	25681
829.134	25750
829.273	25712
829.412	25708
829.551	25639
829.69	25841
829.829	25769
829.968	25909
830.107	25776
830.246	25708
830.385	25693
830.524	25639
830.663	25590
830.802	25407
830.941	25365
831.08	25331
831.219	25369
831.357	25411
831.496	25544
831.635	25381
831.774	25324
831.913	25213
832.051	25061
832.19	25072
832.329	24992
832.467	25031
832.606	24985
832.744	24977
832.883	25038
833.022	25084
833.16	25008
833.299	25084
833.437	25061
833.576	25091
833.714	25042
833.852	25004
833.991	25221
834.129	25156
834.267	25297
834.406	25000
834.544	25088
834.682	25122
834.821	24943
834.959	25282
835.097	24916
835.235	25080
835.373	25050
835.511	25110
835.65	24890
835.788	24833
835.926	24791
836.064	24760
836.202	24875
836.34	24787
836.478	24894
836.615	24901
836.753	24932
836.891	25076
837.029	24973
837.167	24897
837.305	24859
837.443	24715
837.58	24677
837.718	24859
837.856	24821
837.993	24639
838.131	24798
838.269	24494
838.406	24547
838.544	24513
838.681	24338
838.819	24323
838.956	24319
839.094	24342
839.231	24197
839.369	24350
839.506	24585
839.643	24471
839.781	24053
839.918	24209
840.055	24292
840.193	24178
840.33	24053
840.467	24140
840.604	24235
840.742	24391
840.879	24038
841.016	24034
841.153	23999
841.29	24289
841.427	24174
841.564	24186
841.701	24091
841.838	24007
841.975	23973
842.112	23920
842.249	24045
842.385	23977
842.522	24041
842.659	23882
842.796	23901
842.933	23927
843.069	23904
843.206	23821
843.343	24003
843.479	23805
843.616	23817
843.752	23600
843.889	23661
844.025	23813
844.162	23661
844.298	23714
844.435	23604
844.571	23665
844.708	23665
844.844	23927
844.98	23824
845.117	23691
845.253	23680
845.389	23528
845.525	23554
845.661	23589
845.798	23318
845.934	23482
846.07	23315
846.206	23376
846.342	23455
846.478	23421
846.614	23086
846.75	23060
846.886	23109
847.022	23189
847.158	23143
847.294	23098
847.429	23117
847.565	23174
847.701	23288
847.837	22858
847.972	22694
848.108	22999
848.244	22816
848.379	22664
848.515	22729
848.65	22713
848.786	22839
848.921	22603
849.057	22866
849.192	22733
849.328	22816
849.463	22877
849.598	22683
849.734	22588
849.869	22641
850.004	22478
850.14	22561
850.275	22573
850.41	22360
850.545	22523
850.68	22493
850.815	22443
850.95	22417
851.085	22679
851.22	22573
851.355	22500
851.49	22405
851.625	22413
851.76	22497
851.895	22287
852.03	22485
852.165	22443
852.299	22519
852.434	22535
852.569	22478
852.703	22493
852.838	22538
852.973	22508
853.107	22580
853.242	22409
853.376	22409
853.511	22219
853.645	22261
853.78	22356
853.914	22287
854.048	22287
854.183	22143
854.317	22333
854.451	22493
854.585	22344
854.72	22268
854.854	22344
854.988	22310
855.122	22226
855.256	22238
855.39	22200
855.524	22371
855.658	22272
855.792	22192
855.926	22242
856.06	22322
856.194	22371
856.327	22291
856.461	22112
856.595	22333
856.729	22261
856.862	22329
856.996	22181
857.13	22310
857.263	22375
857.397	22398
857.53	22341
857.664	22329
857.797	22306
857.931	22337
858.064	22310
858.197	22371
858.331	22329
858.464	22192
858.597	22128
858.731	22246
858.864	22386
858.997	22265
859.13	22238
859.263	22386
859.396	22421
859.529	22223
859.662	22375
859.795	22268
859.928	22390
860.061	22329
860.194	22455
860.327	22261
860.46	22242
860.592	22386
860.725	22432
860.858	22409
860.99	22284
861.123	22268
861.256	22185
861.388	22333
861.521	23006
861.653	22082
861.786	22025
861.918	22128
862.05	22272
862.183	22265
862.315	22242
862.447	22196
862.58	22211
862.712	21964
862.844	21975
862.976	22078
863.108	22002
863.24	22284
863.372	21941
863.504	21934
863.636	21903
863.768	21979
863.9	22025
864.032	21949
864.164	21979
864.296	21972
864.428	22109
864.559	21972
864.691	22162
864.823	21934
864.954	21983
865.086	21903
865.217	21918
865.349	21800
865.48	21819
865.612	21838
865.743	21987
865.875	21888
866.006	21694
866.137	21884
866.269	22010
866.4	21819
866.531	21899
866.662	21717
866.793	21759
866.924	21785
867.055	21842
867.186	21911
867.317	21778
867.448	21648
867.579	21739
867.71	21720
867.841	21606
867.972	21701
868.103	21838
868.233	21671
868.364	21724
868.495	21876
868.625	22002
868.756	22093
868.886	21937
869.017	22097
869.147	22120
869.278	22219
869.408	22116
869.539	22051
869.669	22101
869.799	21937
869.929	22120
870.06	22120
870.19	22375
870.32	22352
870.45	22344
870.58	22394
870.71	22580
870.84	22470
870.97	22493
871.1	22371
871.23	22577
871.36	22580
871.489	22580
871.619	22603
871.749	22656
871.879	22611
872.008	22694
872.138	22546
872.267	22664
872.397	22360
872.526	22398
872.656	22432
872.785	22470
872.915	22599
873.044	22668
873.173	22622
873.303	22687
873.432	22725
873.561	22698
873.69	22653
873.819	22622
873.948	22752
874.077	22725
874.206	22535
874.335	22653
874.464	22736
874.593	22736
874.722	22778
874.851	22824
874.979	22759
875.108	22828
875.237	22748
875.365	22797
875.494	22786
875.623	22995
875.751	22873
875.88	22816
876.008	22991
876.136	22957
876.265	23288
876.393	23280
876.521	23303
876.65	23360
876.778	23303
876.906	23170
877.034	23121
877.162	23166
877.29	23170
877.418	23277
877.546	23170
877.674	23136
877.802	23041
877.93	23223
878.058	23067
878.185	23010
878.313	23128
878.441	23083
878.568	23037
878.696	23212
878.824	23254
878.951	23307
879.079	23395
879.206	23493
879.333	23387
879.461	23311
879.588	23166
879.715	23269
879.842	23425
879.97	23254
880.097	23006
880.224	22949
880.351	22968
880.478	22965
880.605	22965
880.732	22889
880.859	23334
880.986	22946
881.112	23113
881.239	22892
881.366	22729
881.493	22706
881.619	22668
881.746	22626
881.872	22500
881.999	22592
882.125	22466
882.252	22508
882.378	22451
882.505	22531
882.631	22421
882.757	22242
882.883	22341
883.01	22249
883.136	22078
883.262	22173
883.388	22109
883.514	22196
883.64	22306
883.766	22242
883.892	22078
884.018	22017
884.143	22185
884.269	22226
884.395	21880
884.52	21972
884.646	21926
884.772	21838
884.897	21816
885.023	21937
885.148	21934
885.274	21926
885.399	22082
885.524	21899
885.65	21800
885.775	21926
885.9	21766
886.025	21979
886.15	21945
886.275	21736
886.4	21884
886.525	21895
886.65	21793
886.775	21709
886.9	21880
887.025	22215
887.149	21937
887.274	21755
887.399	21686
887.523	21724
887.648	21553
887.773	21561
887.897	21755
888.021	21686
888.146	21656
888.27	21743
888.395	21835
888.519	21553
888.643	21713
888.767	21743
888.891	21488
889.015	21416
889.139	21515
889.263	21370
889.387	21637
889.511	21625
889.635	21515
889.759	21401
889.883	21416
890.006	21458
890.13	21469
890.254	21275
890.377	21504
890.501	21169
890.624	21119
890.748	21249
890.871	21184
890.995	21024
891.118	20956
891.241	21020
891.364	20906
891.488	21024
891.611	21039
891.734	21062
891.857	21104
891.98	21077
892.103	20975
892.226	20990
892.349	20933
892.471	20708
892.594	20864
892.717	20883
892.839	20849
892.962	20933
893.085	21058
893.207	20971
893.33	20746
893.452	20823
893.575	20986
893.697	20899
893.819	20982
893.941	21051
894.064	21001
894.186	20975
894.308	20773
894.43	20971
894.552	21089
894.674	21017
894.796	20918
894.918	20815
895.04	20914
895.161	20956
895.283	20857
895.405	20872
895.526	20956
895.648	20857
895.769	20902
895.891	20807
896.012	20941
896.134	20990
896.255	20842
896.376	20826
896.498	20971
896.619	20944
896.74	20830
896.861	20910
896.982	21062
897.103	21359
897.224	21199
897.345	21089
897.466	21150
897.587	21123
897.708	21241
897.828	21161
897.949	21112
898.07	20895
898.19	21024
898.311	21165
898.431	20853
898.552	20998
898.672	21047
898.792	21249
898.913	21214
899.033	20880
899.153	20941
899.273	20754
899.393	20785
899.513	20861
899.633	20864
899.753	20819
899.873	20781
899.993	20868
900.113	20785
900.232	20830
900.352	20765
900.472	20609
900.591	20594
900.711	20731
900.83	20526
900.95	20594
901.069	20804
901.189	20545
901.308	20244
901.427	20199
901.546	20225
901.665	20221
901.784	20088
901.904	19951
902.023	19894
902.141	19742
902.26	19658
902.379	19822
902.498	19822
902.617	19643
902.735	19658
902.854	19609
902.973	19613
903.091	19415
903.21	19407
903.328	19354
903.446	19225
903.565	19179
903.683	19160
903.801	19080
903.919	19050
904.038	19061
904.156	18844
904.274	19012
904.392	18954
904.51	18783
904.627	18825
904.745	18916
904.863	18890
904.981	18646
905.098	18597
905.216	18623
905.334	18589
905.451	18513
905.569	18429
905.686	18639
905.803	18669
905.921	18308
906.038	18414
906.155	18232
906.272	18178
906.389	18296
906.506	18045
906.623	18129
906.74	18186
906.857	18091
906.974	17984
907.091	18083
907.208	18129
907.324	18102
907.441	18022
907.557	17767
907.674	17805
907.79	17714
907.907	17767
908.023	17794
908.139	17897
908.256	17882
908.372	17596
908.488	17653
908.604	17535
908.72	17398
908.836	17611
908.952	17474
909.068	17558
909.184	17585
909.3	17421
909.415	17505
909.531	17581
909.647	17220
909.762	17292
909.878	17235
909.993	17200
910.108	17159
910.224	17170
910.339	17258
910.454	17037
910.57	16980
910.685	16869
910.8	17151
910.915	17113
911.03	16972
911.145	16755
911.259	16816
911.374	16873
911.489	16653
911.604	16717
911.718	16470
911.833	16550
911.947	16466
912.062	16344
912.176	16512
912.291	16538
912.405	16489
912.519	16687
912.633	16622
912.748	16516
912.862	16550
912.976	16333
913.09	16211
913.204	16363
913.318	16436
913.431	16481
913.545	16314
913.659	16443
913.772	16257
913.886	16169
914	16116
914.113	16173
914.226	16265
914.34	16204
914.453	16131
914.566	16105
914.68	16048
914.793	15941
914.906	15800
915.019	15812
915.132	15717
915.245	15671
915.358	15606
915.47	15679
915.583	15675
915.696	15838
915.809	15869
915.921	15895
916.034	15614
916.146	15599
916.259	15622
916.371	15652
916.483	15717
916.595	15564
916.708	15526
916.82	15496
916.932	15500
917.044	15439
917.156	15424
917.268	15317
917.38	15393
917.491	15458
917.603	15370
917.715	15435
917.826	15416
917.938	15283
918.049	15241
918.161	15367
918.272	15447
918.384	15466
918.495	15386
918.606	15165
918.717	15039
918.828	15214
918.939	15195
919.05	15074
919.161	15036
919.272	14906
919.383	14849
919.494	15097
919.604	15340
919.715	15112
919.826	15001
919.936	15093
920.047	15051
920.157	15108
920.267	15264
920.378	14967
920.488	15070
920.598	15211
920.708	15245
920.818	15192
920.928	15199
921.038	15348
921.148	15279
921.258	14899
921.368	14838
921.477	14811
921.587	14804
921.697	14674
921.806	14716
921.916	14598
922.025	14526
922.134	14366
922.244	14332
922.353	14419
922.462	14313
922.571	14210
922.68	14157
922.789	14035
922.898	14031
923.007	13951
923.116	14035
923.224	14039
923.333	14043
923.442	13944
923.55	13909
923.659	14039
923.767	13951
923.876	13795
923.984	13902
924.092	13734
924.201	13803
924.309	13803
924.417	13776
924.525	13708
924.633	13723
924.741	14636
924.849	13445
924.956	13647
925.064	13495
925.172	13430
925.279	13407
925.387	13460
925.494	13480
925.602	13594
925.709	13472
925.816	13339
925.924	13422
926.031	13369
926.138	13343
926.245	13350
926.352	13358
926.459	13403
926.566	13476
926.673	13327
926.779	13198
926.886	13179
926.993	12962
927.099	12996
927.206	12920
927.312	13012
927.419	12996
927.525	12939
927.631	12951
927.737	12871
927.843	12802
927.95	12760
928.056	12745
928.162	12764
928.267	12798
928.373	13411
928.479	12840
928.585	12631
928.69	12684
928.796	12798
928.901	12688
929.007	12532
929.112	12593
929.218	12627
929.323	12578
929.428	12494
929.533	12669
929.638	12464
929.743	12498
929.848	12532
929.953	12479
930.058	12289
930.163	12121
930.267	12228
930.372	12327
930.477	12186
930.581	12353
930.685	12186
930.79	12041
930.894	12053
930.998	11999
931.103	12148
931.207	11805
931.311	11672
931.415	11604
931.519	11467
931.623	11433
