Data from test_V78500241_2878.txt Node
Date: Fri Mar 25 15:29:54 CST 2022
User: usil
Spectrometer: V785-0024
Trigger mode: 0
Integration Time (sec): 4.000000E-1
Scans to average: 1
Nonlinearity correction enabled: false
Boxcar width: 0
Storing dark spectrum: false
XAxis mode: Wavelengths
Number of Pixels in Spectrum: 1024
>>>>>Begin Spectral Data<<<<<
801.071	27374
801.214	27249
801.356	26857
801.499	26979
801.641	26876
801.783	26777
801.926	26826
802.068	26902
802.211	26819
802.353	26575
802.496	26617
802.638	26457
802.78	26393
802.923	26396
803.065	26298
803.208	26415
803.35	26423
803.492	26533
803.635	26670
803.777	26568
803.919	26697
804.061	26929
804.204	26720
804.346	26602
804.488	26602
804.63	26621
804.773	26552
804.915	26583
805.057	26609
805.199	26659
805.341	26571
805.483	26739
805.626	26758
805.768	26678
805.91	26872
806.052	26792
806.194	26625
806.336	26826
806.478	26819
806.62	26594
806.762	26834
806.904	26914
807.046	27146
807.188	27161
807.33	27195
807.472	27112
807.614	27077
807.756	27184
807.898	27020
808.04	26891
808.182	26838
808.324	27184
808.465	27062
808.607	27340
808.749	27283
808.891	27504
809.033	27523
809.174	27325
809.316	27344
809.458	27344
809.6	27302
809.741	27359
809.883	27481
810.025	27625
810.166	27637
810.308	27526
810.45	27618
810.591	27549
810.733	27458
810.875	27374
811.016	27245
811.158	27294
811.299	27389
811.441	27549
811.582	27462
811.724	27294
811.865	27313
812.007	27298
812.148	27336
812.29	27313
812.431	27473
812.573	27633
812.714	27660
812.855	27637
812.997	27854
813.138	27975
813.279	27850
813.421	27854
813.562	27751
813.703	27622
813.845	27424
813.986	27287
814.127	27013
814.268	26944
814.41	27058
814.551	26918
814.692	27100
814.833	26872
814.974	26937
815.115	27089
815.256	26826
815.397	26914
815.539	26876
815.68	26731
815.821	26678
815.962	26716
816.103	26537
816.244	26670
816.385	26484
816.526	26396
816.666	26336
816.807	26259
816.948	26317
817.089	26347
817.23	26324
817.371	26180
817.512	26229
817.653	26183
817.793	26183
817.934	26240
818.075	26518
818.216	26225
818.356	26202
818.497	26142
818.638	26039
818.778	25894
818.919	25940
819.06	26077
819.2	26225
819.341	26164
819.481	26206
819.622	26358
819.762	26453
819.903	26503
820.043	26366
820.184	26343
820.324	26320
820.465	26446
820.605	26415
820.746	26229
820.886	26275
821.026	26336
821.167	26157
821.307	26423
821.447	26313
821.588	26130
821.728	26043
821.868	26001
822.008	25651
822.149	25651
822.289	25620
822.429	25293
822.569	25411
822.709	25320
822.849	25278
822.99	25187
823.13	25129
823.27	25324
823.41	24932
823.55	24981
823.69	24958
823.83	25050
823.97	24954
824.11	24867
824.25	24829
824.389	24817
824.529	24916
824.669	24726
824.809	24840
824.949	24798
825.089	24859
825.228	24791
825.368	24681
825.508	24722
825.648	24696
825.787	24635
825.927	24798
826.067	24745
826.206	24688
826.346	24673
826.485	24730
826.625	24715
826.765	24863
826.904	24650
827.044	24532
827.183	24498
827.323	24357
827.462	24620
827.601	24361
827.741	24441
827.88	24452
828.02	24178
828.159	24213
828.298	24422
828.437	24429
828.577	24376
828.716	24467
828.855	24262
828.994	24178
829.134	24178
829.273	24133
829.412	24038
829.551	24053
829.69	24049
829.829	24095
829.968	24186
830.107	24152
830.246	24053
830.385	23984
830.524	23912
830.663	23847
830.802	23665
830.941	23764
831.08	23771
831.219	23691
831.357	23684
831.496	24018
831.635	23611
831.774	23501
831.913	23699
832.051	23566
832.19	23452
832.329	23478
832.467	23509
832.606	23391
832.744	23299
832.883	23296
833.022	23368
833.16	23223
833.299	23334
833.437	23410
833.576	23406
833.714	23315
833.852	23455
833.991	23417
834.129	23505
834.267	23482
834.406	23383
834.544	23581
834.682	23516
834.821	23429
834.959	23531
835.097	23360
835.235	23512
835.373	23421
835.511	23402
835.65	23220
835.788	23311
835.926	23181
836.064	23064
836.202	23006
836.34	23273
836.478	23235
836.615	23220
836.753	23246
836.891	23258
837.029	23208
837.167	23216
837.305	23159
837.443	23109
837.58	23022
837.718	23189
837.856	23162
837.993	23014
838.131	23098
838.269	22908
838.406	23003
838.544	22854
838.681	22782
838.819	22679
838.956	22584
839.094	22672
839.231	22755
839.369	22812
839.506	22995
839.643	22782
839.781	22554
839.918	22443
840.055	22588
840.193	22421
840.33	22569
840.467	22523
840.604	22459
840.742	22755
840.879	22436
841.016	22409
841.153	22455
841.29	22546
841.427	22516
841.564	22542
841.701	22455
841.838	22382
841.975	22356
842.112	22344
842.249	22291
842.385	22226
842.522	22470
842.659	22310
842.796	22211
842.933	22356
843.069	22158
843.206	22185
843.343	22166
843.479	22386
843.616	22204
843.752	22116
843.889	22063
844.025	22078
844.162	21949
844.298	22143
844.435	22032
844.571	22067
844.708	22082
844.844	22200
844.98	22246
845.117	22093
845.253	21857
845.389	21918
845.525	21888
845.661	21857
845.798	21709
845.934	21869
846.07	21747
846.206	21827
846.342	21918
846.478	21857
846.614	21599
846.75	21412
846.886	21526
847.022	21568
847.158	21587
847.294	21523
847.429	21523
847.565	21542
847.701	21690
847.837	21291
847.972	21291
848.108	21302
848.244	21329
848.379	21180
848.515	21070
848.65	21062
848.786	21089
848.921	21135
849.057	21142
849.192	21119
849.328	20979
849.463	21051
849.598	21123
849.734	20952
849.869	20941
850.004	20998
850.14	20842
850.275	20811
850.41	20857
850.545	20773
850.68	20800
850.815	20876
850.95	20876
851.085	21066
851.22	20925
851.355	20990
851.49	20868
851.625	20895
851.76	20925
851.895	20830
852.03	20686
852.165	20883
852.299	20845
852.434	20887
852.569	20826
852.703	20826
852.838	20918
852.973	20975
853.107	20868
853.242	20857
853.376	20750
853.511	20552
853.645	20674
853.78	20777
853.914	20720
854.048	20602
854.183	20659
854.317	20697
854.451	20933
854.585	20552
854.72	20682
854.854	20735
854.988	20632
855.122	20651
855.256	20579
855.39	20754
855.524	20716
855.658	20678
855.792	20587
855.926	20845
856.06	20724
856.194	20781
856.327	20785
856.461	20473
856.595	20625
856.729	20773
856.862	20678
856.996	20720
857.13	20682
857.263	20807
857.397	20883
857.53	20636
857.664	20750
857.797	20807
857.931	20750
858.064	20727
858.197	20769
858.331	20670
858.464	20731
858.597	20530
858.731	20651
858.864	20640
858.997	20617
859.13	20587
859.263	20682
859.396	20838
859.529	20629
859.662	20617
859.795	20518
859.928	20712
860.061	20872
860.194	20910
860.327	20724
860.46	20708
860.592	20762
860.725	20750
860.858	20838
860.99	20727
861.123	20602
861.256	20632
861.388	20697
861.521	21393
861.653	20492
861.786	20568
861.918	20537
862.05	20480
862.183	20640
862.315	20594
862.447	20648
862.58	20556
862.712	20355
862.844	20389
862.976	20469
863.108	20431
863.24	20819
863.372	20324
863.504	20332
863.636	20393
863.768	20400
863.9	20347
864.032	20351
864.164	20438
864.296	20423
864.428	20488
864.559	20495
864.691	20450
864.823	20461
864.954	20313
865.086	20298
865.217	20351
865.349	20240
865.48	20358
865.612	20286
865.743	20415
865.875	20237
866.006	20244
866.137	20294
866.269	20221
866.4	20225
866.531	20267
866.662	20191
866.793	20252
866.924	20301
867.055	20339
867.186	20225
867.317	20054
867.448	20187
867.579	20138
867.71	20111
867.841	20301
867.972	20214
868.103	20180
868.233	20259
868.364	20263
868.495	20317
868.625	20499
868.756	20598
868.886	20324
869.017	20442
869.147	20492
869.278	20594
869.408	20495
869.539	20408
869.669	20530
869.799	20431
869.929	20583
870.06	20511
870.19	20739
870.32	20697
870.45	20815
870.58	20887
870.71	20963
870.84	21070
870.97	20880
871.1	20815
871.23	20967
871.36	21005
871.489	20868
871.619	21032
871.749	21104
871.879	21013
872.008	21093
872.138	21146
872.267	21070
872.397	20956
872.526	20952
872.656	20971
872.785	20849
872.915	21070
873.044	21161
873.173	21066
873.303	21135
873.432	21165
873.561	21127
873.69	21062
873.819	21135
873.948	21195
874.077	20975
874.206	21047
874.335	21112
874.464	21165
874.593	21321
874.722	21291
874.851	21340
874.979	21313
875.108	21310
875.237	21291
875.365	21150
875.494	21355
875.623	21504
875.751	21374
875.88	21443
876.008	21443
876.136	21534
876.265	21789
876.393	21808
876.521	21812
876.65	21857
876.778	21747
876.906	21739
877.034	21648
877.162	21667
877.29	21622
877.418	21739
877.546	21682
877.674	21610
877.802	21599
877.93	21739
878.058	21564
878.185	21572
878.313	21587
878.441	21648
878.568	21580
878.696	21572
878.824	21770
878.951	21698
879.079	21926
879.206	21895
879.333	21880
879.461	21530
879.588	21838
879.715	21880
879.842	21937
879.97	21770
880.097	21656
880.224	21507
880.351	21595
880.478	21481
880.605	21542
880.732	21454
880.859	21648
880.986	21405
881.112	21557
881.239	21367
881.366	21249
881.493	21108
881.619	21036
881.746	21123
881.872	21119
881.999	21192
882.125	21017
882.252	21032
882.378	21066
882.505	21100
882.631	20910
882.757	20826
882.883	20880
883.01	20781
883.136	20762
883.262	20651
883.388	20693
883.514	20845
883.64	20823
883.766	20769
883.892	20533
884.018	20590
884.143	20701
884.269	20792
884.395	20518
884.52	20514
884.646	20503
884.772	20366
884.897	20336
885.023	20568
885.148	20541
885.274	20644
885.399	20552
885.524	20389
885.65	20454
885.775	20454
885.9	20400
886.025	20560
886.15	20358
886.275	20271
886.4	20419
886.525	20339
886.65	20427
886.775	20442
886.9	20625
887.025	20564
887.149	20385
887.274	20191
887.399	20221
887.523	20191
887.648	20282
887.773	20145
887.897	20229
888.021	20221
888.146	20233
888.27	20358
888.395	20275
888.519	20298
888.643	20183
888.767	20301
888.891	20214
889.015	19978
889.139	20183
889.263	20058
889.387	20183
889.511	20164
889.635	20176
889.759	20005
889.883	19978
890.006	19970
890.13	20058
890.254	19932
890.377	19921
890.501	19769
890.624	19769
890.748	19856
890.871	19746
890.995	19620
891.118	19639
891.241	19586
891.364	19491
891.488	19753
891.611	19700
891.734	19647
891.857	19586
891.98	19552
892.103	19616
892.226	19521
892.349	19643
892.471	19491
892.594	19514
892.717	19559
892.839	19506
892.962	19567
893.085	19594
893.207	19521
893.33	19422
893.452	19430
893.575	19624
893.697	19578
893.819	19685
893.941	19655
894.064	19594
894.186	19460
894.308	19445
894.43	19609
894.552	19769
894.674	19628
894.796	19616
894.918	19586
895.04	19601
895.161	19715
895.283	19556
895.405	19506
895.526	19464
895.648	19559
895.769	19616
895.891	19537
896.012	19651
896.134	19537
896.255	19597
896.376	19567
896.498	19491
896.619	19525
896.74	19529
896.861	19552
896.982	19986
897.103	19913
897.224	19788
897.345	19719
897.466	19635
897.587	19761
897.708	19791
897.828	19879
897.949	19712
898.07	19582
898.19	19689
898.311	19963
898.431	19746
898.552	19723
898.672	19906
898.792	19784
898.913	19753
899.033	19670
899.153	19639
899.273	19476
899.393	19472
899.513	19651
899.633	19548
899.753	19533
899.873	19426
899.993	19537
900.113	19575
900.232	19506
900.352	19441
900.472	19392
900.591	19206
900.711	19343
900.83	19263
900.95	19388
901.069	19377
901.189	19259
901.308	19004
901.427	18886
901.546	18894
901.665	18920
901.784	18878
901.904	18840
902.023	18650
902.141	18578
902.26	18452
902.379	18639
902.498	18342
902.617	18361
902.735	18418
902.854	18399
902.973	18319
903.091	18197
903.21	18125
903.328	18106
903.446	17984
903.565	17885
903.683	17908
903.801	17805
903.919	17843
904.038	17809
904.156	17634
904.274	17737
904.392	17752
904.51	17585
904.627	17532
904.745	17805
904.863	17790
904.981	17532
905.098	17261
905.216	17284
905.334	17372
905.451	17459
905.569	17330
905.686	17398
905.803	17258
905.921	17113
906.038	17349
906.155	17174
906.272	17048
906.389	17003
906.506	16976
906.623	17022
906.74	16862
906.857	16782
906.974	16824
907.091	16968
907.208	16995
907.324	16904
907.441	16797
907.557	16679
907.674	16542
907.79	16538
907.907	16615
908.023	16618
908.139	16694
908.256	16550
908.372	16443
908.488	16474
908.604	16348
908.72	16314
908.836	16348
908.952	16276
909.068	16371
909.184	16341
909.3	16257
909.415	16443
909.531	16386
909.647	16109
909.762	16055
909.878	15975
909.993	16093
910.108	15915
910.224	16006
910.339	15953
910.454	15903
910.57	15873
910.685	15800
910.8	16010
910.915	16082
911.03	15991
911.145	15736
911.259	15641
911.374	15694
911.489	15618
911.604	15511
911.718	15397
911.833	15408
911.947	15336
912.062	15275
912.176	15397
912.291	15469
912.405	15412
912.519	15618
912.633	15542
912.748	15420
912.862	15431
912.976	15249
913.09	15188
913.204	15199
913.318	15233
913.431	15310
913.545	15310
913.659	15256
913.772	15119
913.886	15116
914	15077
914.113	15013
914.226	15165
914.34	15066
914.453	14963
914.566	15051
914.68	14937
914.793	14925
914.906	14712
915.019	14686
915.132	14545
915.245	14571
915.358	14625
915.47	14667
915.583	14678
915.696	14598
915.809	14811
915.921	14815
916.034	14640
916.146	14583
916.259	14590
916.371	14678
916.483	14541
916.595	14571
916.708	14492
916.82	14469
916.932	14495
917.044	14461
917.156	14465
917.268	14301
917.38	14324
917.491	14252
917.603	14362
917.715	14457
917.826	14488
917.938	14237
918.049	14202
918.161	14290
918.272	14473
918.384	14408
918.495	14336
918.606	14134
918.717	14107
918.828	14092
918.939	14084
919.05	14050
919.161	14031
919.272	13967
919.383	14035
919.494	14100
919.604	14320
919.715	14134
919.826	13978
919.936	14073
920.047	14081
920.157	14073
920.267	14271
920.378	14027
920.488	14065
920.598	14180
920.708	14240
920.818	14233
920.928	14134
921.038	14305
921.148	14343
921.258	14077
921.368	13970
921.477	13830
921.587	13776
921.697	13597
921.806	13883
921.916	13647
922.025	13499
922.134	13460
922.244	13426
922.353	13559
922.462	13381
922.571	13244
922.68	13015
922.789	13129
922.898	13069
923.007	13076
923.116	13141
923.224	13031
923.333	13038
923.442	12954
923.55	12966
923.659	13012
923.767	13038
923.876	12916
923.984	12996
924.092	12867
924.201	13034
924.309	12833
924.417	12916
924.525	12806
924.633	12882
924.741	13822
924.849	12563
924.956	12760
925.064	12475
925.172	12570
925.279	12604
925.387	12593
925.494	12517
925.602	12719
925.709	12585
925.816	12467
925.924	12410
926.031	12658
926.138	12490
926.245	12547
926.352	12369
926.459	12532
926.566	12525
926.673	12388
926.779	12361
926.886	12388
926.993	12216
927.099	12209
927.206	12015
927.312	12167
927.419	12197
927.525	12091
927.631	12129
927.737	12091
927.843	12045
927.95	11832
928.056	11916
928.162	12072
928.267	11942
928.373	12612
928.479	12041
928.585	11790
928.69	11920
928.796	11927
928.901	11832
929.007	11737
929.112	11737
929.218	11798
929.323	11691
929.428	11756
929.533	11809
929.638	11703
929.743	11638
929.848	11699
929.953	11657
930.058	11528
930.163	11315
930.267	11341
930.372	11577
930.477	11330
930.581	11581
930.685	11444
930.79	11258
930.894	11337
930.998	11292
931.103	11379
931.207	11041
931.311	10984
931.415	10885
931.519	10733
931.623	10714
