Data from test_V78500241_736.txt Node
Date: Fri Mar 25 15:14:59 CST 2022
User: usil
Spectrometer: V785-0024
Trigger mode: 0
Integration Time (sec): 4.000000E-1
Scans to average: 1
Nonlinearity correction enabled: false
Boxcar width: 0
Storing dark spectrum: false
XAxis mode: Wavelengths
Number of Pixels in Spectrum: 1024
>>>>>Begin Spectral Data<<<<<
801.071	27945
801.214	27701
801.356	27519
801.499	27466
801.641	27450
801.783	27427
801.926	27424
802.068	27420
802.211	27169
802.353	27199
802.496	27119
802.638	26986
802.78	27119
802.923	27036
803.065	27005
803.208	27066
803.35	27154
803.492	27135
803.635	27203
803.777	27146
803.919	27203
804.061	27496
804.204	27237
804.346	27195
804.488	26986
804.63	27146
804.773	27070
804.915	27302
805.057	27283
805.199	27184
805.341	27287
805.483	27340
805.626	27348
805.768	27127
805.91	27298
806.052	27306
806.194	27340
806.336	27530
806.478	27386
806.62	27260
806.762	27427
806.904	27622
807.046	27964
807.188	27690
807.33	27644
807.472	27888
807.614	27781
807.756	27690
807.898	27523
808.04	27603
808.182	27595
808.324	27682
808.465	27686
808.607	27778
808.749	28086
808.891	28086
809.033	28101
809.174	28109
809.316	27926
809.458	28059
809.6	28013
809.741	28131
809.883	28029
810.025	28265
810.166	28295
810.308	28261
810.45	28120
810.591	28147
810.733	27968
810.875	27884
811.016	27903
811.158	27930
811.299	27953
811.441	28074
811.582	28032
811.724	28017
811.865	27972
812.007	28051
812.148	27888
812.29	27998
812.431	28112
812.573	28394
812.714	28466
812.855	28508
812.997	28694
813.138	28717
813.279	28740
813.421	28691
813.562	28462
813.703	28303
813.845	28158
813.986	28013
814.127	27816
814.268	27774
814.41	27667
814.551	27701
814.692	27633
814.833	27526
814.974	27850
815.115	27755
815.256	27564
815.397	27614
815.539	27507
815.68	27523
815.821	27500
815.962	27477
816.103	27671
816.244	27249
816.385	27325
816.526	27211
816.666	26998
816.807	26929
816.948	27176
817.089	27127
817.23	26990
817.371	26921
817.512	26895
817.653	26986
817.793	27020
817.934	26876
818.075	27150
818.216	26948
818.356	26853
818.497	26914
818.638	26743
818.778	26754
818.919	26727
819.06	26910
819.2	26754
819.341	27013
819.481	26963
819.622	27066
819.762	27382
819.903	27055
820.043	27249
820.184	27047
820.324	27214
820.465	27135
820.605	27173
820.746	27009
820.886	26937
821.026	27032
821.167	26895
821.307	27222
821.447	26914
821.588	26933
821.728	26807
821.868	26541
822.008	26434
822.149	26511
822.289	26389
822.429	26168
822.569	26046
822.709	26008
822.849	26024
822.99	25989
823.13	25921
823.27	25830
823.41	25689
823.55	25647
823.69	25715
823.83	25791
823.97	25613
824.11	25632
824.25	25597
824.389	25506
824.529	25738
824.669	25609
824.809	25666
824.949	25753
825.089	25750
825.228	25685
825.368	25537
825.508	25422
825.648	25365
825.787	25487
825.927	25533
826.067	25415
826.206	25426
826.346	25571
826.485	25567
826.625	25419
826.765	25635
826.904	25586
827.044	25289
827.183	25213
827.323	25141
827.462	25251
827.601	25194
827.741	25122
827.88	25190
828.02	25129
828.159	25270
828.298	25190
828.437	25263
828.577	25187
828.716	25301
828.855	25004
828.994	24913
829.134	24882
829.273	25034
829.412	24859
829.551	24791
829.69	24932
829.829	25004
829.968	24977
830.107	25183
830.246	24935
830.385	24806
830.524	24673
830.663	24650
830.802	24692
830.941	24555
831.08	24460
831.219	24486
831.357	24521
831.496	24772
831.635	24566
831.774	24395
831.913	24369
832.051	24239
832.19	24247
832.329	24262
832.467	24178
832.606	24136
832.744	24133
832.883	24194
833.022	24102
833.16	24213
833.299	24144
833.437	24095
833.576	24308
833.714	24277
833.852	24369
833.991	24403
834.129	24330
834.267	24323
834.406	24323
834.544	24285
834.682	24235
834.821	24216
834.959	24395
835.097	24110
835.235	24289
835.373	24216
835.511	24247
835.65	24152
835.788	24159
835.926	23775
836.064	23832
836.202	23832
836.34	24083
836.478	24186
836.615	24015
836.753	24034
836.891	24129
837.029	24079
837.167	24041
837.305	23889
837.443	23988
837.58	23889
837.718	23977
837.856	23996
837.993	23695
838.131	23802
838.269	23699
838.406	23885
838.544	23634
838.681	23596
838.819	23520
838.956	23318
839.094	23387
839.231	23353
839.369	23543
839.506	23710
839.643	23646
839.781	23379
839.918	23200
840.055	23307
840.193	23414
840.33	23254
840.467	23341
840.604	23258
840.742	23455
840.879	23048
841.016	23337
841.153	23151
841.29	23448
841.427	23132
841.564	23277
841.701	23269
841.838	23132
841.975	23246
842.112	23151
842.249	23147
842.385	23003
842.522	23250
842.659	23071
842.796	22972
842.933	23003
843.069	22965
843.206	22965
843.343	23018
843.479	23071
843.616	23060
843.752	22930
843.889	22847
844.025	22908
844.162	22626
844.298	22797
844.435	22763
844.571	22755
844.708	22968
844.844	22953
844.98	22915
845.117	22984
845.253	22721
845.389	22664
845.525	22691
845.661	22664
845.798	22618
845.934	22573
846.07	22519
846.206	22615
846.342	22630
846.478	22584
846.614	22341
846.75	22150
846.886	22249
847.022	22306
847.158	22310
847.294	22306
847.429	22295
847.565	22265
847.701	22542
847.837	21960
847.972	21998
848.108	22105
848.244	22063
848.379	22044
848.515	21884
848.65	21846
848.786	21915
848.921	21941
849.057	21895
849.192	21888
849.328	21926
849.463	21907
849.598	21823
849.734	21781
849.869	21641
850.004	21637
850.14	21728
850.275	21599
850.41	21564
850.545	21660
850.68	21580
850.815	21606
850.95	21641
851.085	21755
851.22	21732
851.355	21545
851.49	21610
851.625	21614
851.76	21660
851.895	21576
852.03	21500
852.165	21648
852.299	21637
852.434	21679
852.569	21622
852.703	21671
852.838	21686
852.973	21785
853.107	21789
853.242	21549
853.376	21450
853.511	21374
853.645	21424
853.78	21561
853.914	21416
854.048	21405
854.183	21538
854.317	21447
854.451	21686
854.585	21538
854.72	21412
854.854	21355
854.988	21344
855.122	21447
855.256	21294
855.39	21424
855.524	21564
855.658	21431
855.792	21416
855.926	21553
856.06	21568
856.194	21564
856.327	21317
856.461	21420
856.595	21447
856.729	21332
856.862	21439
856.996	21500
857.13	21538
857.263	21389
857.397	21568
857.53	21515
857.664	21488
857.797	21534
857.931	21606
858.064	21386
858.197	21633
858.331	21424
858.464	21386
858.597	21325
858.731	21317
858.864	21466
858.997	21389
859.13	21378
859.263	21530
859.396	21542
859.529	21329
859.662	21370
859.795	21420
859.928	21424
860.061	21492
860.194	21625
860.327	21393
860.46	21424
860.592	21667
860.725	21534
860.858	21618
860.99	21485
861.123	21420
861.256	21401
861.388	21458
861.521	22192
861.653	21203
861.786	21245
861.918	21310
862.05	21241
862.183	21211
862.315	21329
862.447	21458
862.58	21344
862.712	21169
862.844	21230
862.976	21207
863.108	21332
863.24	21450
863.372	21077
863.504	21112
863.636	21184
863.768	21256
863.9	21188
864.032	21028
864.164	21176
864.296	21135
864.428	21363
864.559	21180
864.691	21207
864.823	21264
864.954	21188
865.086	21093
865.217	20979
865.349	20914
865.48	21085
865.612	21055
865.743	21207
865.875	21112
866.006	20975
866.137	21074
866.269	21074
866.4	20998
866.531	21036
866.662	20979
866.793	20998
866.924	20857
867.055	20910
867.186	20944
867.317	20971
867.448	20952
867.579	20918
867.71	20941
867.841	20906
867.972	20971
868.103	20986
868.233	21028
868.364	20952
868.495	21001
868.625	21237
868.756	21393
868.886	21089
869.017	21161
869.147	21332
869.278	21287
869.408	21230
869.539	21165
869.669	21363
869.799	21237
869.929	21424
870.06	21359
870.19	21534
870.32	21469
870.45	21633
870.58	21603
870.71	21785
870.84	21808
870.97	21618
871.1	21587
871.23	21755
871.36	21880
871.489	21690
871.619	21694
871.749	21720
871.879	21854
872.008	21941
872.138	21774
872.267	21800
872.397	21724
872.526	21580
872.656	21675
872.785	21660
872.915	21793
873.044	21991
873.173	21907
873.303	21850
873.432	21949
873.561	21804
873.69	21850
873.819	21846
873.948	21850
874.077	21778
874.206	21736
874.335	21785
874.464	22025
874.593	22082
874.722	21880
874.851	22048
874.979	21991
875.108	22067
875.237	22105
875.365	21895
875.494	22002
875.623	22090
875.751	22074
875.88	22040
876.008	22230
876.136	22265
876.265	22470
876.393	22508
876.521	22603
876.65	22440
876.778	22337
876.906	22341
877.034	22246
877.162	22363
877.29	22310
877.418	22424
877.546	22459
877.674	22284
877.802	22554
877.93	22318
878.058	22341
878.185	22131
878.313	22371
878.441	22367
878.568	22173
878.696	22379
878.824	22367
878.951	22500
879.079	22611
879.206	22744
879.333	22504
879.461	22542
879.588	22557
879.715	22634
879.842	22729
879.97	22424
880.097	22230
880.224	22249
880.351	22207
880.478	22200
880.605	22261
880.732	22120
880.859	22459
880.986	22261
881.112	22154
881.239	22147
881.366	21930
881.493	21922
881.619	21751
881.746	21812
881.872	21861
881.999	21816
882.125	21701
882.252	21778
882.378	21747
882.505	21846
882.631	21736
882.757	21542
882.883	21622
883.01	21606
883.136	21458
883.262	21359
883.388	21294
883.514	21538
883.64	21591
883.766	21431
883.892	21351
884.018	21230
884.143	21241
884.269	21458
884.395	21230
884.52	21142
884.646	21142
884.772	21157
884.897	21013
885.023	21058
885.148	21268
885.274	21310
885.399	21218
885.524	21093
885.65	21169
885.775	21119
885.9	21055
886.025	21154
886.15	21355
886.275	21116
886.4	21085
886.525	21093
886.65	21039
886.775	21036
886.9	21116
887.025	21367
887.149	21032
887.274	20948
887.399	20842
887.523	20944
887.648	20792
887.773	20762
887.897	20933
888.021	20952
888.146	20910
888.27	21070
888.395	21142
888.519	20876
888.643	20986
888.767	20929
888.891	20807
889.015	20758
889.139	20758
889.263	20705
889.387	20788
889.511	20853
889.635	20807
889.759	20617
889.883	20590
890.006	20686
890.13	20823
890.254	20651
890.377	20621
890.501	20446
890.624	20404
890.748	20514
890.871	20431
890.995	20221
891.118	20202
891.241	20240
891.364	20221
891.488	20423
891.611	20313
891.734	20370
891.857	20320
891.98	20187
892.103	20320
892.226	20336
892.349	20286
892.471	20111
892.594	20172
892.717	20263
892.839	20081
892.962	20084
893.085	20294
893.207	20168
893.33	20077
893.452	20107
893.575	20172
893.697	20046
893.819	20199
893.941	20396
894.064	20282
894.186	20096
894.308	20145
894.43	20229
894.552	20282
894.674	20202
894.796	20088
894.918	20126
895.04	20142
895.161	20187
895.283	20122
895.405	20058
895.526	20126
895.648	20142
895.769	20263
895.891	20320
896.012	20275
896.134	20237
896.255	20195
896.376	20115
896.498	20206
896.619	20088
896.74	20138
896.861	20240
896.982	20518
897.103	20625
897.224	20351
897.345	20278
897.466	20252
897.587	20362
897.708	20537
897.828	20389
897.949	20286
898.07	20161
898.19	20309
898.311	20374
898.431	20286
898.552	20408
898.672	20412
898.792	20415
898.913	20530
899.033	20214
899.153	20221
899.273	19986
899.393	20107
899.513	20225
899.633	20054
899.753	20138
899.873	20039
899.993	20176
900.113	20092
900.232	20073
900.352	20062
900.472	19955
900.591	19894
900.711	19947
900.83	19864
900.95	20012
901.069	19902
901.189	19780
901.308	19578
901.427	19422
901.546	19533
901.665	19419
901.784	19445
901.904	19274
902.023	19289
902.141	19080
902.26	19103
902.379	19179
902.498	18985
902.617	18947
902.735	18947
902.854	19137
902.973	18897
903.091	18753
903.21	18700
903.328	18719
903.446	18639
903.565	18483
903.683	18483
903.801	18426
903.919	18483
904.038	18315
904.156	18277
904.274	18285
904.392	18186
904.51	18167
904.627	18300
904.745	18277
904.863	18273
904.981	18038
905.098	17863
905.216	17954
905.334	17885
905.451	18026
905.569	17866
905.686	17863
905.803	17847
905.921	17680
906.038	17726
906.155	17672
906.272	17653
906.389	17630
906.506	17429
906.623	17509
906.74	17486
906.857	17467
906.974	17356
907.091	17482
907.208	17532
907.324	17315
907.441	17322
907.557	17128
907.674	17189
907.79	17041
907.907	17033
908.023	17204
908.139	17178
908.256	17136
908.372	16949
908.488	17090
908.604	16889
908.72	16885
908.836	16816
908.952	16824
909.068	16866
909.184	16980
909.3	16816
909.415	16938
909.531	16858
909.647	16641
909.762	16512
909.878	16596
909.993	16645
910.108	16611
910.224	16535
910.339	16641
910.454	16504
910.57	16390
910.685	16375
910.8	16588
910.915	16546
911.03	16504
911.145	16344
911.259	16276
911.374	16078
911.489	16067
911.604	16040
911.718	15880
911.833	15960
911.947	15808
912.062	15816
912.176	15915
912.291	15838
912.405	15953
912.519	16032
912.633	16082
912.748	15945
912.862	15903
912.976	15637
913.09	15587
913.204	15713
913.318	15819
913.431	15857
913.545	15949
913.659	15899
913.772	15679
913.886	15641
914	15519
914.113	15564
914.226	15614
914.34	15759
914.453	15500
914.566	15515
914.68	15458
914.793	15268
914.906	15237
915.019	15077
915.132	15081
915.245	15108
915.358	15100
915.47	15176
915.583	15165
915.696	15203
915.809	15279
915.921	15287
916.034	15127
916.146	15066
916.259	15001
916.371	15077
916.483	15161
916.595	15081
916.708	15017
916.82	15001
916.932	14921
917.044	14891
917.156	14838
917.268	14804
917.38	14750
917.491	14830
917.603	14750
917.715	14731
917.826	14963
917.938	14632
918.049	14613
918.161	14777
918.272	14998
918.384	14864
918.495	14708
918.606	14590
918.717	14560
918.828	14606
918.939	14526
919.05	14438
919.161	14606
919.272	14396
919.383	14454
919.494	14575
919.604	14739
919.715	14511
919.826	14495
919.936	14541
920.047	14552
920.157	14568
920.267	14670
920.378	14514
920.488	14556
920.598	14651
920.708	14819
920.818	14686
920.928	14705
921.038	14777
921.148	14686
921.258	14492
921.368	14434
921.477	14320
921.587	14252
921.697	14111
921.806	14290
921.916	14058
922.025	13917
922.134	13940
922.244	13921
922.353	13913
922.462	13742
922.571	13712
922.68	13643
922.789	13590
922.898	13556
923.007	13495
923.116	13655
923.224	13476
923.333	13502
923.442	13419
923.55	13384
923.659	13346
923.767	13449
923.876	13244
923.984	13449
924.092	13244
924.201	13297
924.309	13297
924.417	13228
924.525	13217
924.633	13232
924.741	13879
924.849	13072
924.956	13190
925.064	13034
925.172	12928
925.279	13038
925.387	13046
925.494	13012
925.602	13027
925.709	12958
925.816	12894
925.924	12901
926.031	12954
926.138	12947
926.245	12947
926.352	12913
926.459	13008
926.566	12947
926.673	12806
926.779	12779
926.886	12703
926.993	12502
927.099	12601
927.206	12460
927.312	12471
927.419	12528
927.525	12525
927.631	12540
927.737	12315
927.843	12410
927.95	12190
928.056	12330
928.162	12353
928.267	12365
928.373	12920
928.479	12441
928.585	12129
928.69	12228
928.796	12281
928.901	12213
929.007	12072
929.112	12155
929.218	12148
929.323	12110
929.428	12053
929.533	12133
929.638	12022
929.743	12038
929.848	12079
929.953	12049
930.058	11916
930.163	11767
930.267	11748
930.372	11904
930.477	11703
930.581	11893
930.685	11851
930.79	11695
930.894	11600
930.998	11657
931.103	11741
931.207	11322
931.311	11231
931.415	11170
931.519	11048
931.623	10957
