Data from test_V78500241_1922.txt Node
Date: Fri Mar 25 15:23:14 CST 2022
User: usil
Spectrometer: V785-0024
Trigger mode: 0
Integration Time (sec): 4.000000E-1
Scans to average: 1
Nonlinearity correction enabled: false
Boxcar width: 0
Storing dark spectrum: false
XAxis mode: Wavelengths
Number of Pixels in Spectrum: 1024
>>>>>Begin Spectral Data<<<<<
801.071	27698
801.214	27709
801.356	27553
801.499	27336
801.641	27146
801.783	27336
801.926	27211
802.068	27214
802.211	27119
802.353	27306
802.496	27169
802.638	26929
802.78	26891
802.923	26876
803.065	26857
803.208	26826
803.35	26979
803.492	27135
803.635	27108
803.777	26861
803.919	27161
804.061	27367
804.204	27100
804.346	26986
804.488	27009
804.63	27089
804.773	26918
804.915	27180
805.057	27176
805.199	27051
805.341	27146
805.483	27268
805.626	27329
805.768	27077
805.91	27138
806.052	27283
806.194	27180
806.336	27481
806.478	27427
806.62	27180
806.762	27393
806.904	27462
807.046	27656
807.188	27698
807.33	27625
807.472	27663
807.614	27515
807.756	27686
807.898	27477
808.04	27340
808.182	27447
808.324	27447
808.465	27599
808.607	27595
808.749	27705
808.891	27956
809.033	28074
809.174	27907
809.316	27857
809.458	27705
809.6	27835
809.741	28032
809.883	28006
810.025	28238
810.166	28116
810.308	28112
810.45	28074
810.591	28032
810.733	27888
810.875	27797
811.016	27743
811.158	27679
811.299	27789
811.441	28131
811.582	27869
811.724	27888
811.865	27816
812.007	27819
812.148	27827
812.29	27926
812.431	27949
812.573	28242
812.714	28215
812.855	28318
812.997	28497
813.138	28656
813.279	28409
813.421	28538
813.562	28287
813.703	28226
813.845	28002
813.986	27770
814.127	27583
814.268	27614
814.41	27641
814.551	27496
814.692	27447
814.833	27614
814.974	27443
815.115	27618
815.256	27564
815.397	27542
815.539	27557
815.68	27230
815.821	27214
815.962	27424
816.103	27313
816.244	27165
816.385	27146
816.526	27070
816.666	26944
816.807	26727
816.948	26800
817.089	26842
817.23	26842
817.371	26872
817.512	26743
817.653	26785
817.793	26682
817.934	26830
818.075	26750
818.216	26921
818.356	26781
818.497	26686
818.638	26583
818.778	26518
818.919	26575
819.06	26621
819.2	26636
819.341	26750
819.481	26960
819.622	26944
819.762	27131
819.903	27154
820.043	26963
820.184	26994
820.324	26948
820.465	26979
820.605	26929
820.746	26902
820.886	26845
821.026	26758
821.167	26819
821.307	26940
821.447	26925
821.588	26754
821.728	26575
821.868	26473
822.008	26294
822.149	26336
822.289	26267
822.429	26126
822.569	26195
822.709	25966
822.849	25822
822.99	25803
823.13	25811
823.27	25712
823.41	25609
823.55	25575
823.69	25586
823.83	25476
823.97	25559
824.11	25483
824.25	25514
824.389	25460
824.529	25548
824.669	25476
824.809	25499
824.949	25445
825.089	25472
825.228	25510
825.368	25339
825.508	25331
825.648	25335
825.787	25392
825.927	25339
826.067	25373
826.206	25400
826.346	25392
826.485	25343
826.625	25232
826.765	25354
826.904	25255
827.044	24951
827.183	24996
827.323	25099
827.462	25152
827.601	25099
827.741	24954
827.88	25080
828.02	24867
828.159	24970
828.298	25019
828.437	24992
828.577	24935
828.716	25244
828.855	24901
828.994	24703
829.134	24806
829.273	24821
829.412	24738
829.551	24760
829.69	24798
829.829	24764
829.968	24798
830.107	24909
830.246	24760
830.385	24631
830.524	24612
830.663	24574
830.802	24399
830.941	24388
831.08	24281
831.219	24521
831.357	24452
831.496	24631
831.635	24273
831.774	24350
831.913	24152
832.051	24140
832.19	24144
832.329	24190
832.467	23980
832.606	24121
832.744	24068
832.883	24038
833.022	24003
833.16	24015
833.299	24018
833.437	24098
833.576	24182
833.714	24102
833.852	24114
833.991	24224
834.129	24220
834.267	24201
834.406	24167
834.544	24167
834.682	24083
834.821	24136
834.959	24186
835.097	23999
835.235	24106
835.373	24136
835.511	24049
835.65	23977
835.788	23961
835.926	23771
836.064	23695
836.202	23851
836.34	23931
836.478	24068
836.615	23965
836.753	23836
836.891	24034
837.029	23897
837.167	23950
837.305	23908
837.443	23714
837.58	23870
837.718	23843
837.856	23847
837.993	23790
838.131	23752
838.269	23748
838.406	23821
838.544	23596
838.681	23490
838.819	23356
838.956	23277
839.094	23231
839.231	23242
839.369	23452
839.506	23665
839.643	23585
839.781	23242
839.918	23170
840.055	23132
840.193	23246
840.33	23048
840.467	23223
840.604	23185
840.742	23368
840.879	22999
841.016	23113
841.153	23071
841.29	23216
841.427	23220
841.564	23235
841.701	23212
841.838	23147
841.975	23128
842.112	23029
842.249	22961
842.385	22930
842.522	23189
842.659	23014
842.796	22847
842.933	22953
843.069	22828
843.206	22862
843.343	22938
843.479	22896
843.616	22927
843.752	22771
843.889	22782
844.025	22831
844.162	22618
844.298	22748
844.435	22535
844.571	22668
844.708	22733
844.844	22911
844.98	22809
845.117	22748
845.253	22767
845.389	22557
845.525	22474
845.661	22618
845.798	22500
845.934	22428
846.07	22398
846.206	22603
846.342	22542
846.478	22466
846.614	22234
846.75	22158
846.886	22207
847.022	22341
847.158	22249
847.294	22257
847.429	22257
847.565	22109
847.701	22462
847.837	21808
847.972	21915
848.108	22036
848.244	21895
848.379	21720
848.515	21854
848.65	21679
848.786	21846
848.921	21838
849.057	21930
849.192	21926
849.328	21770
849.463	21732
849.598	21660
849.734	21633
849.869	21682
850.004	21587
850.14	21599
850.275	21599
850.41	21553
850.545	21629
850.68	21443
850.815	21534
850.95	21580
851.085	21724
851.22	21694
851.355	21557
851.49	21439
851.625	21564
851.76	21428
851.895	21420
852.03	21420
852.165	21576
852.299	21485
852.434	21660
852.569	21485
852.703	21591
852.838	21545
852.973	21720
853.107	21682
853.242	21473
853.376	21401
853.511	21180
853.645	21291
853.78	21401
853.914	21424
854.048	21332
854.183	21405
854.317	21313
854.451	21572
854.585	21264
854.72	21428
854.854	21321
854.988	21313
855.122	21329
855.256	21165
855.39	21275
855.524	21310
855.658	21363
855.792	21389
855.926	21291
856.06	21412
856.194	21469
856.327	21279
856.461	21245
856.595	21306
856.729	21367
856.862	21450
856.996	21348
857.13	21420
857.263	21462
857.397	21393
857.53	21348
857.664	21332
857.797	21443
857.931	21462
858.064	21382
858.197	21431
858.331	21321
858.464	21310
858.597	21279
858.731	21283
858.864	21192
858.997	21401
859.13	21321
859.263	21351
859.396	21424
859.529	21302
859.662	21420
859.795	21317
859.928	21466
860.061	21405
860.194	21580
860.327	21397
860.46	21302
860.592	21386
860.725	21492
860.858	21454
860.99	21275
861.123	21325
861.256	21294
861.388	21336
861.521	22002
861.653	21287
861.786	21146
861.918	21214
862.05	21104
862.183	21237
862.315	21443
862.447	21344
862.58	21298
862.712	20948
862.844	20990
862.976	21173
863.108	21047
863.24	21614
863.372	21058
863.504	21100
863.636	21058
863.768	21138
863.9	21055
864.032	21020
864.164	20971
864.296	21165
864.428	21211
864.559	21150
864.691	21123
864.823	20979
864.954	20948
865.086	20998
865.217	20864
865.349	20994
865.48	20933
865.612	20994
865.743	20998
865.875	20952
866.006	20899
866.137	20941
866.269	20899
866.4	20994
866.531	20941
866.662	20853
866.793	20918
866.924	20929
867.055	20921
867.186	20876
867.317	20906
867.448	20773
867.579	20792
867.71	20876
867.841	20845
867.972	20845
868.103	20895
868.233	20872
868.364	20895
868.495	20967
868.625	21195
868.756	21218
868.886	21032
869.017	21039
869.147	21157
869.278	21157
869.408	21154
869.539	21047
869.669	21070
869.799	21279
869.929	21195
870.06	21157
870.19	21374
870.32	21374
870.45	21370
870.58	21405
870.71	21663
870.84	21576
870.97	21538
871.1	21564
871.23	21698
871.36	21747
871.489	21625
871.619	21618
871.749	21732
871.879	21747
872.008	21797
872.138	21743
872.267	21705
872.397	21713
872.526	21599
872.656	21618
872.785	21641
872.915	21705
873.044	21759
873.173	21739
873.303	21778
873.432	21888
873.561	21770
873.69	21804
873.819	21701
873.948	21751
874.077	21694
874.206	21747
874.335	21667
874.464	21827
874.593	22070
874.722	21975
874.851	21937
874.979	21918
875.108	22036
875.237	22059
875.365	21854
875.494	21945
875.623	21960
875.751	21861
875.88	22025
876.008	22101
876.136	22135
876.265	22325
876.393	22470
876.521	22421
876.65	22443
876.778	22409
876.906	22348
877.034	22398
877.162	22341
877.29	22280
877.418	22344
877.546	22325
877.674	22234
877.802	22333
877.93	22344
878.058	22329
878.185	22147
878.313	22284
878.441	22428
878.568	22116
878.696	22230
878.824	22295
878.951	22295
879.079	22459
879.206	22645
879.333	22523
879.461	22424
879.588	22424
879.715	22516
879.842	22637
879.97	22352
880.097	22097
880.224	22097
880.351	22120
880.478	22109
880.605	22059
880.732	22215
880.859	22295
880.986	22139
881.112	22143
881.239	22025
881.366	21812
881.493	21831
881.619	21759
881.746	21785
881.872	21660
881.999	21580
882.125	21644
882.252	21747
882.378	21618
882.505	21804
882.631	21682
882.757	21370
882.883	21466
883.01	21507
883.136	21397
883.262	21237
883.388	21344
883.514	21382
883.64	21378
883.766	21424
883.892	21203
884.018	21233
884.143	21389
884.269	21488
884.395	21135
884.52	21081
884.646	21062
884.772	21089
884.897	20853
885.023	21028
885.148	21077
885.274	21104
885.399	21146
885.524	21024
885.65	21104
885.775	21104
885.9	21005
886.025	21218
886.15	21100
886.275	21089
886.4	20986
886.525	20998
886.65	20906
886.775	20986
886.9	21085
887.025	21374
887.149	21055
887.274	20921
887.399	20785
887.523	20823
887.648	20807
887.773	20804
887.897	20895
888.021	20830
888.146	20682
888.27	20804
888.395	20914
888.519	20823
888.643	20842
888.767	20902
888.891	20697
889.015	20632
889.139	20648
889.263	20537
889.387	20689
889.511	20838
889.635	20720
889.759	20629
889.883	20629
890.006	20526
890.13	20727
890.254	20590
890.377	20594
890.501	20343
890.624	20370
890.748	20465
890.871	20343
890.995	20157
891.118	20221
891.241	20282
891.364	20237
891.488	20248
891.611	20199
891.734	20180
891.857	20370
891.98	20103
892.103	20256
892.226	20180
892.349	20161
892.471	20039
892.594	20069
892.717	20092
892.839	20107
892.962	20103
893.085	20199
893.207	20062
893.33	19944
893.452	20073
893.575	20195
893.697	20103
893.819	20172
893.941	20244
894.064	20221
894.186	20069
894.308	19944
894.43	20126
894.552	20183
894.674	20210
894.796	20054
894.918	20046
895.04	20024
895.161	20183
895.283	20012
895.405	20016
895.526	20119
895.648	19974
895.769	20043
895.891	20172
896.012	20096
896.134	20195
896.255	20130
896.376	20012
896.498	20058
896.619	20103
896.74	20065
896.861	20157
896.982	20461
897.103	20537
897.224	20336
897.345	20355
897.466	20240
897.587	20317
897.708	20294
897.828	20374
897.949	20240
898.07	20214
898.19	20183
898.311	20358
898.431	20195
898.552	20282
898.672	20278
898.792	20396
898.913	20324
899.033	20199
899.153	20069
899.273	20031
899.393	20073
899.513	20069
899.633	20035
899.753	20084
899.873	20012
899.993	20016
900.113	20008
900.232	20001
900.352	20027
900.472	19811
900.591	19879
900.711	19849
900.83	19708
900.95	19822
901.069	20039
901.189	19666
901.308	19514
901.427	19358
901.546	19400
901.665	19365
901.784	19476
901.904	19190
902.023	19103
902.141	19027
902.26	18939
902.379	19069
902.498	18825
902.617	18935
902.735	18943
902.854	18779
902.973	18783
903.091	18627
903.21	18566
903.328	18532
903.446	18559
903.565	18353
903.683	18429
903.801	18270
903.919	18258
904.038	18315
904.156	18178
904.274	18289
904.392	18102
904.51	18102
904.627	18102
904.745	18266
904.863	18201
904.981	17893
905.098	17859
905.216	17908
905.334	17973
905.451	17817
905.569	17756
905.686	17821
905.803	17779
905.921	17665
906.038	17805
906.155	17729
906.272	17520
906.389	17532
906.506	17444
906.623	17345
906.74	17425
906.857	17200
906.974	17307
907.091	17429
907.208	17463
907.324	17383
907.441	17364
907.557	17064
907.674	17147
907.79	17109
907.907	17102
908.023	16995
908.139	17193
908.256	17067
908.372	16995
908.488	16987
908.604	16881
908.72	16771
908.836	16752
908.952	16801
909.068	16805
909.184	17003
909.3	16862
909.415	16835
909.531	16771
909.647	16615
909.762	16516
909.878	16565
909.993	16573
910.108	16382
910.224	16527
910.339	16466
910.454	16402
910.57	16314
910.685	16230
910.8	16478
910.915	16489
911.03	16314
911.145	16150
911.259	16162
911.374	16093
911.489	16013
911.604	15994
911.718	15884
911.833	15930
911.947	15713
912.062	15682
912.176	15831
912.291	15755
912.405	15873
912.519	16010
912.633	15960
912.748	15850
912.862	15846
912.976	15720
913.09	15629
913.204	15652
913.318	15682
913.431	15751
913.545	15743
913.659	15709
913.772	15682
913.886	15496
914	15511
914.113	15492
914.226	15538
914.34	15641
914.453	15336
914.566	15526
914.68	15454
914.793	15378
914.906	15119
915.019	15112
915.132	15116
915.245	15032
915.358	15150
915.47	15062
915.583	15028
915.696	15131
915.809	15211
915.921	15226
916.034	14990
916.146	15009
916.259	14929
916.371	15150
916.483	15020
916.595	14925
916.708	14880
916.82	14800
916.932	14937
917.044	14883
917.156	14838
917.268	14678
917.38	14853
917.491	14644
917.603	14830
917.715	14868
917.826	14864
917.938	14667
918.049	14659
918.161	14731
918.272	14906
918.384	14739
918.495	14750
918.606	14575
918.717	14446
918.828	14427
918.939	14533
919.05	14446
919.161	14499
919.272	14351
919.383	14377
919.494	14484
919.604	14610
919.715	14457
919.826	14339
919.936	14362
920.047	14655
920.157	14438
920.267	14629
920.378	14507
920.488	14450
920.598	14564
920.708	14796
920.818	14583
920.928	14625
921.038	14678
921.148	14682
921.258	14408
921.368	14339
921.477	14290
921.587	14153
921.697	14054
921.806	14298
921.916	14073
922.025	13887
922.134	13807
922.244	13814
922.353	13890
922.462	13719
922.571	13575
922.68	13468
922.789	13476
922.898	13518
923.007	13480
923.116	13499
923.224	13464
923.333	13540
923.442	13301
923.55	13293
923.659	13335
923.767	13293
923.876	13304
923.984	13308
924.092	13152
924.201	13266
924.309	13206
924.417	13137
924.525	13164
924.633	13168
924.741	13986
924.849	12954
924.956	13080
925.064	12958
925.172	12856
925.279	12920
925.387	12890
925.494	12875
925.602	13023
925.709	12924
925.816	12859
925.924	12810
926.031	13000
926.138	12897
926.245	12882
926.352	12814
926.459	12932
926.566	12886
926.673	12825
926.779	12684
926.886	12726
926.993	12555
927.099	12464
927.206	12407
927.312	12475
927.419	12509
927.525	12426
927.631	12467
927.737	12338
927.843	12285
927.95	12262
928.056	12311
928.162	12342
928.267	12273
928.373	12795
928.479	12433
928.585	12159
928.69	12148
928.796	12323
928.901	12171
929.007	11912
929.112	12140
929.218	12167
929.323	12011
929.428	12076
929.533	12136
929.638	12003
929.743	11980
929.848	12026
929.953	11969
930.058	11775
930.163	11703
930.267	11710
930.372	11851
930.477	11680
930.581	11863
930.685	11642
930.79	11558
930.894	11554
930.998	11653
931.103	11798
931.207	11402
931.311	11235
931.415	11128
931.519	11075
931.623	10927
