Data from test_V78500241_942.txt Node
Date: Fri Mar 25 15:16:25 CST 2022
User: usil
Spectrometer: V785-0024
Trigger mode: 0
Integration Time (sec): 4.000000E-1
Scans to average: 1
Nonlinearity correction enabled: false
Boxcar width: 0
Storing dark spectrum: false
XAxis mode: Wavelengths
Number of Pixels in Spectrum: 1024
>>>>>Begin Spectral Data<<<<<
801.071	27846
801.214	27606
801.356	27427
801.499	27405
801.641	27283
801.783	27268
801.926	27332
802.068	27199
802.211	27199
802.353	27028
802.496	26994
802.638	27081
802.78	27020
802.923	26929
803.065	26838
803.208	26830
803.35	27047
803.492	27089
803.635	27093
803.777	27001
803.919	26982
804.061	27401
804.204	27199
804.346	27127
804.488	27043
804.63	27176
804.773	27066
804.915	27275
805.057	27176
805.199	27154
805.341	27386
805.483	27226
805.626	27378
805.768	27058
805.91	27192
806.052	27291
806.194	27230
806.336	27462
806.478	27329
806.62	27245
806.762	27462
806.904	27500
807.046	27682
807.188	27747
807.33	27553
807.472	27614
807.614	27595
807.756	27580
807.898	27538
808.04	27530
808.182	27515
808.324	27469
808.465	27561
808.607	27660
808.749	27892
808.891	27979
809.033	28017
809.174	27949
809.316	27907
809.458	28032
809.6	27857
809.741	28040
809.883	28086
810.025	28135
810.166	28181
810.308	28147
810.45	28185
810.591	28055
810.733	27918
810.875	27934
811.016	27861
811.158	27800
811.299	28032
811.441	27998
811.582	28010
811.724	27743
811.865	27846
812.007	27937
812.148	27812
812.29	27914
812.431	28070
812.573	28337
812.714	28287
812.855	28306
812.997	28607
813.138	28664
813.279	28481
813.421	28451
813.562	28432
813.703	28185
813.845	28048
813.986	27903
814.127	27682
814.268	27511
814.41	27641
814.551	27568
814.692	27618
814.833	27572
814.974	27625
815.115	27530
815.256	27405
815.397	27492
815.539	27496
815.68	27389
815.821	27264
815.962	27298
816.103	27306
816.244	27279
816.385	27127
816.526	27176
816.666	27005
816.807	26861
816.948	26906
817.089	27058
817.23	26845
817.371	26940
817.512	26986
817.653	26868
817.793	26838
817.934	27123
818.075	27062
818.216	26998
818.356	26982
818.497	26830
818.638	26552
818.778	26526
818.919	26629
819.06	26701
819.2	26861
819.341	26804
819.481	26796
819.622	27055
819.762	27230
819.903	27192
820.043	27321
820.184	27020
820.324	27005
820.465	26967
820.605	27074
820.746	26982
820.886	26823
821.026	26823
821.167	26758
821.307	27009
821.447	26849
821.588	26781
821.728	26625
821.868	26560
822.008	26396
822.149	26400
822.289	26218
822.429	25959
822.569	26084
822.709	25959
822.849	25864
822.99	25902
823.13	25898
823.27	25932
823.41	25807
823.55	25715
823.69	25685
823.83	25700
823.97	25674
824.11	25392
824.25	25525
824.389	25552
824.529	25537
824.669	25529
824.809	25609
824.949	25666
825.089	25662
825.228	25559
825.368	25422
825.508	25331
825.648	25518
825.787	25419
825.927	25438
826.067	25183
826.206	25388
826.346	25487
826.485	25499
826.625	25327
826.765	25476
826.904	25521
827.044	25126
827.183	25129
827.323	25088
827.462	25232
827.601	25122
827.741	25050
827.88	25095
828.02	25076
828.159	25160
828.298	25171
828.437	25133
828.577	24977
828.716	25171
828.855	25023
828.994	24844
829.134	24833
829.273	24928
829.412	24783
829.551	24791
829.69	24802
829.829	24829
829.968	24992
830.107	24947
830.246	24696
830.385	24757
830.524	24730
830.663	24585
830.802	24570
830.941	24418
831.08	24334
831.219	24513
831.357	24547
831.496	24627
831.635	24315
831.774	24330
831.913	24380
832.051	24258
832.19	24289
832.329	24251
832.467	24133
832.606	24022
832.744	24011
832.883	24083
833.022	24171
833.16	24163
833.299	24182
833.437	24136
833.576	24254
833.714	24163
833.852	24159
833.991	24243
834.129	24270
834.267	24209
834.406	24194
834.544	24232
834.682	24197
834.821	24247
834.959	24232
835.097	24186
835.235	24136
835.373	24060
835.511	24045
835.65	23958
835.788	24026
835.926	23893
836.064	23840
836.202	23824
836.34	23878
836.478	24026
836.615	24034
836.753	23992
836.891	24095
837.029	24026
837.167	23961
837.305	23958
837.443	23942
837.58	23836
837.718	23840
837.856	23855
837.993	23813
838.131	23923
838.269	23661
838.406	23832
838.544	23547
838.681	23505
838.819	23414
838.956	23208
839.094	23246
839.231	23353
839.369	23395
839.506	23684
839.643	23668
839.781	23258
839.918	23265
840.055	23356
840.193	23368
840.33	23273
840.467	23212
840.604	23326
840.742	23353
840.879	23178
841.016	23239
841.153	23170
841.29	23273
841.427	23307
841.564	23178
841.701	23105
841.838	23296
841.975	23121
842.112	23151
842.249	23041
842.385	22961
842.522	23174
842.659	22972
842.796	23010
842.933	22923
843.069	22892
843.206	23022
843.343	23037
843.479	22908
843.616	22915
843.752	22793
843.889	22767
844.025	22927
844.162	22820
844.298	22934
844.435	22805
844.571	22881
844.708	22786
844.844	22923
844.98	22923
845.117	22869
845.253	22729
845.389	22687
845.525	22630
845.661	22527
845.798	22523
845.934	22531
846.07	22512
846.206	22504
846.342	22516
846.478	22344
846.614	22314
846.75	22181
846.886	22181
847.022	22394
847.158	22318
847.294	22188
847.429	22318
847.565	22109
847.701	22546
847.837	21869
847.972	21808
848.108	21953
848.244	22070
848.379	21953
848.515	21850
848.65	21861
848.786	21793
848.921	21827
849.057	21895
849.192	21903
849.328	21869
849.463	21922
849.598	21873
849.734	21682
849.869	21793
850.004	21644
850.14	21743
850.275	21629
850.41	21561
850.545	21488
850.68	21553
850.815	21622
850.95	21549
851.085	21759
851.22	21679
851.355	21523
851.49	21633
851.625	21523
851.76	21553
851.895	21469
852.03	21439
852.165	21652
852.299	21629
852.434	21576
852.569	21610
852.703	21553
852.838	21774
852.973	21785
853.107	21656
853.242	21515
853.376	21454
853.511	21321
853.645	21408
853.78	21549
853.914	21408
854.048	21435
854.183	21363
854.317	21431
854.451	21561
854.585	21378
854.72	21511
854.854	21477
854.988	21382
855.122	21374
855.256	21279
855.39	21287
855.524	21511
855.658	21515
855.792	21420
855.926	21363
856.06	21420
856.194	21500
856.327	21443
856.461	21431
856.595	21336
856.729	21393
856.862	21530
856.996	21401
857.13	21435
857.263	21557
857.397	21519
857.53	21351
857.664	21443
857.797	21542
857.931	21481
858.064	21405
858.197	21519
858.331	21447
858.464	21382
858.597	21386
858.731	21515
858.864	21260
858.997	21241
859.13	21431
859.263	21393
859.396	21389
859.529	21492
859.662	21466
859.795	21389
859.928	21340
860.061	21477
860.194	21648
860.327	21462
860.46	21355
860.592	21504
860.725	21625
860.858	21549
860.99	21378
861.123	21294
861.256	21386
861.388	21386
861.521	22036
861.653	21367
861.786	21154
861.918	21188
862.05	21340
862.183	21382
862.315	21317
862.447	21302
862.58	21348
862.712	21146
862.844	21081
862.976	21127
863.108	21157
863.24	21633
863.372	21199
863.504	21062
863.636	21169
863.768	21176
863.9	21135
864.032	21028
864.164	21058
864.296	21142
864.428	21287
864.559	21252
864.691	21146
864.823	21214
864.954	21138
865.086	21013
865.217	21074
865.349	20925
865.48	21036
865.612	21047
865.743	21123
865.875	21020
866.006	21055
866.137	21066
866.269	20925
866.4	20994
866.531	21055
866.662	20979
866.793	20868
866.924	21017
867.055	21020
867.186	20899
867.317	20910
867.448	20880
867.579	20891
867.71	20857
867.841	20811
867.972	20914
868.103	20975
868.233	20788
868.364	20998
868.495	21024
868.625	21203
868.756	21252
868.886	21066
869.017	21138
869.147	21317
869.278	21317
869.408	21211
869.539	21207
869.669	21176
869.799	21279
869.929	21252
870.06	21405
870.19	21428
870.32	21542
870.45	21542
870.58	21583
870.71	21698
870.84	21701
870.97	21462
871.1	21557
871.23	21732
871.36	21698
871.489	21778
871.619	21701
871.749	21747
871.879	21869
872.008	21884
872.138	21781
872.267	21774
872.397	21523
872.526	21694
872.656	21606
872.785	21618
872.915	21755
873.044	21918
873.173	21762
873.303	21861
873.432	21835
873.561	21884
873.69	21903
873.819	21739
873.948	21884
874.077	21873
874.206	21747
874.335	21804
874.464	21888
874.593	22017
874.722	21903
874.851	22154
874.979	22124
875.108	22032
875.237	21975
875.365	21937
875.494	21922
875.623	22063
875.751	22006
875.88	22090
876.008	22147
876.136	22154
876.265	22451
876.393	22421
876.521	22519
876.65	22489
876.778	22329
876.906	22424
877.034	22424
877.162	22398
877.29	22291
877.418	22329
877.546	22459
877.674	22352
877.802	22280
877.93	22333
878.058	22196
878.185	22272
878.313	22409
878.441	22447
878.568	22272
878.696	22261
878.824	22440
878.951	22409
879.079	22550
879.206	22668
879.333	22615
879.461	22325
879.588	22440
879.715	22554
879.842	22653
879.97	22470
880.097	22211
880.224	22162
880.351	22200
880.478	22154
880.605	22219
880.732	22040
880.859	22447
880.986	22230
881.112	22192
881.239	22013
881.366	21975
881.493	21937
881.619	21736
881.746	21743
881.872	21808
881.999	21641
882.125	21705
882.252	21838
882.378	21656
882.505	21842
882.631	21694
882.757	21469
882.883	21545
883.01	21447
883.136	21428
883.262	21397
883.388	21272
883.514	21492
883.64	21557
883.766	21477
883.892	21306
884.018	21184
884.143	21344
884.269	21496
884.395	21108
884.52	21077
884.646	21100
884.772	21085
884.897	21070
885.023	21131
885.148	21123
885.274	21264
885.399	21176
885.524	21131
885.65	21203
885.775	21081
885.9	21036
886.025	21203
886.15	21077
886.275	21062
886.4	20994
886.525	20979
886.65	21028
886.775	21005
886.9	21169
887.025	21275
887.149	21081
887.274	20944
887.399	20937
887.523	20918
887.648	20807
887.773	20796
887.897	21017
888.021	20823
888.146	20872
888.27	20910
888.395	20899
888.519	20902
888.643	20948
888.767	20902
888.891	20712
889.015	20697
889.139	20765
889.263	20705
889.387	20826
889.511	20883
889.635	20925
889.759	20693
889.883	20648
890.006	20670
890.13	20750
890.254	20632
890.377	20560
890.501	20419
890.624	20347
890.748	20438
890.871	20263
890.995	20309
891.118	20119
891.241	20225
891.364	20282
891.488	20389
891.611	20259
891.734	20313
891.857	20298
891.98	20256
892.103	20298
892.226	20191
892.349	20172
892.471	20100
892.594	20142
892.717	20142
892.839	20100
892.962	20164
893.085	20119
893.207	20202
893.33	20008
893.452	19997
893.575	20214
893.697	20069
893.819	20301
893.941	20381
894.064	20301
894.186	20142
894.308	20107
894.43	20149
894.552	20408
894.674	20081
894.796	20100
894.918	20122
895.04	20073
895.161	20153
895.283	20195
895.405	20050
895.526	20103
895.648	20115
895.769	20115
895.891	20100
896.012	20275
896.134	20248
896.255	20103
896.376	20058
896.498	20218
896.619	20157
896.74	20218
896.861	20221
896.982	20389
897.103	20674
897.224	20438
897.345	20210
897.466	20427
897.587	20313
897.708	20461
897.828	20343
897.949	20298
898.07	20168
898.19	20320
898.311	20427
898.431	20313
898.552	20374
898.672	20438
898.792	20404
898.913	20396
899.033	20240
899.153	20202
899.273	20062
899.393	20122
899.513	20092
899.633	20020
899.753	20176
899.873	20027
899.993	20107
900.113	19963
900.232	20088
900.352	19989
900.472	19852
900.591	19967
900.711	19951
900.83	19909
900.95	19940
901.069	19989
901.189	19795
901.308	19518
901.427	19464
901.546	19514
901.665	19468
901.784	19544
901.904	19354
902.023	19285
902.141	19069
902.26	18958
902.379	19133
902.498	19019
902.617	18985
902.735	18973
902.854	18966
902.973	18913
903.091	18688
903.21	18749
903.328	18639
903.446	18627
903.565	18483
903.683	18502
903.801	18251
903.919	18410
904.038	18334
904.156	18270
904.274	18346
904.392	18152
904.51	18209
904.627	18114
904.745	18258
904.863	18239
904.981	18015
905.098	17901
905.216	17786
905.334	17984
905.451	17889
905.569	17851
905.686	17882
905.803	17920
905.921	17684
906.038	17790
906.155	17707
906.272	17543
906.389	17596
906.506	17471
906.623	17459
906.74	17341
906.857	17391
906.974	17330
907.091	17463
907.208	17581
907.324	17353
907.441	17345
907.557	17223
907.674	17181
907.79	17121
907.907	17216
908.023	17105
908.139	17117
908.256	17109
908.372	17079
908.488	17083
908.604	16927
908.72	16900
908.836	16854
908.952	16809
909.068	16885
909.184	17006
909.3	16965
909.415	16835
909.531	16816
909.647	16672
909.762	16497
909.878	16588
909.993	16683
910.108	16649
910.224	16554
910.339	16649
910.454	16440
910.57	16291
910.685	16280
910.8	16538
910.915	16481
911.03	16432
911.145	16329
911.259	16173
911.374	16139
911.489	16128
911.604	16055
911.718	15941
911.833	15975
911.947	15770
912.062	15770
912.176	15831
912.291	15823
912.405	15838
912.519	16093
912.633	16067
912.748	15945
912.862	15846
912.976	15682
913.09	15587
913.204	15701
913.318	15808
913.431	15827
913.545	15781
913.659	15838
913.772	15739
913.886	15587
914	15500
914.113	15564
914.226	15701
914.34	15564
914.453	15450
914.566	15526
914.68	15500
914.793	15313
914.906	15081
915.019	15207
915.132	15051
915.245	15214
915.358	15131
915.47	15150
915.583	15089
915.696	15108
915.809	15252
915.921	15294
916.034	15142
916.146	15055
916.259	14963
916.371	15154
916.483	15001
916.595	15001
916.708	14956
916.82	15055
916.932	14910
917.044	14918
917.156	14899
917.268	14804
917.38	14861
917.491	14735
917.603	14682
917.715	14864
917.826	14952
917.938	14720
918.049	14678
918.161	14762
918.272	14796
918.384	14880
918.495	14686
918.606	14617
918.717	14469
918.828	14594
918.939	14686
919.05	14484
919.161	14537
919.272	14404
919.383	14400
919.494	14648
919.604	14743
919.715	14503
919.826	14423
919.936	14347
920.047	14560
920.157	14495
920.267	14663
920.378	14610
920.488	14537
920.598	14663
920.708	14724
920.818	14613
920.928	14693
921.038	14849
921.148	14777
921.258	14537
921.368	14336
921.477	14221
921.587	14244
921.697	14069
921.806	14225
921.916	14119
922.025	13944
922.134	13902
922.244	13788
922.353	13871
922.462	13750
922.571	13662
922.68	13620
922.789	13514
922.898	13472
923.007	13537
923.116	13533
923.224	13464
923.333	13521
923.442	13407
923.55	13202
923.659	13407
923.767	13339
923.876	13312
923.984	13362
924.092	13183
924.201	13274
924.309	13251
924.417	13259
924.525	13175
924.633	13263
924.741	14153
924.849	12951
924.956	13114
925.064	12954
925.172	12875
925.279	12890
925.387	12920
925.494	12947
925.602	13050
925.709	13072
925.816	12875
925.924	12920
926.031	12996
926.138	12852
926.245	13023
926.352	12829
926.459	12935
926.566	12993
926.673	12821
926.779	12700
926.886	12673
926.993	12502
927.099	12544
927.206	12418
927.312	12506
927.419	12559
927.525	12460
927.631	12479
927.737	12380
927.843	12403
927.95	12243
928.056	12323
928.162	12327
928.267	12346
928.373	12996
928.479	12429
928.585	12064
928.69	12304
928.796	12243
928.901	12224
929.007	11980
929.112	12258
929.218	12129
929.323	12117
929.428	12125
929.533	12266
929.638	11946
929.743	11988
929.848	12106
929.953	11901
930.058	11992
930.163	11688
930.267	11745
930.372	11916
930.477	11710
930.581	11931
930.685	11821
930.79	11661
930.894	11676
930.998	11570
931.103	11688
931.207	11433
931.311	11326
931.415	11250
931.519	11060
931.623	10965
