Data from test_V78500241_2392.txt Node
Date: Fri Mar 25 15:26:30 CST 2022
User: usil
Spectrometer: V785-0024
Trigger mode: 0
Integration Time (sec): 4.000000E-1
Scans to average: 1
Nonlinearity correction enabled: false
Boxcar width: 0
Storing dark spectrum: false
XAxis mode: Wavelengths
Number of Pixels in Spectrum: 1024
>>>>>Begin Spectral Data<<<<<
801.071	27005
801.214	27032
801.356	26880
801.499	26902
801.641	26689
801.783	26514
801.926	26727
802.068	26796
802.211	26644
802.353	26549
802.496	26328
802.638	26328
802.78	26396
802.923	26248
803.065	26324
803.208	26195
803.35	26473
803.492	26408
803.635	26530
803.777	26377
803.919	26457
804.061	26750
804.204	26564
804.346	26377
804.488	26503
804.63	26446
804.773	26298
804.915	26431
805.057	26727
805.199	26366
805.341	26473
805.483	26644
805.626	26453
805.768	26453
805.91	26697
806.052	26552
806.194	26480
806.336	26629
806.478	26511
806.62	26583
806.762	26648
806.904	26921
807.046	27051
807.188	26956
807.33	26937
807.472	27119
807.614	26823
807.756	26902
807.898	26754
808.04	26800
808.182	26613
808.324	26853
808.465	26754
808.607	26971
808.749	27264
808.891	27195
809.033	27230
809.174	27203
809.316	27135
809.458	27062
809.6	27222
809.741	27180
809.883	27241
810.025	27389
810.166	27412
810.308	27382
810.45	27431
810.591	27367
810.733	27142
810.875	27077
811.016	27039
811.158	27074
811.299	27226
811.441	27161
811.582	27218
811.724	27150
811.865	26956
812.007	26986
812.148	27108
812.29	27157
812.431	27291
812.573	27401
812.714	27496
812.855	27656
812.997	27774
813.138	27835
813.279	27781
813.421	27682
813.562	27538
813.703	27332
813.845	27363
813.986	27043
814.127	27013
814.268	26956
814.41	26868
814.551	26754
814.692	26960
814.833	26807
814.974	26785
815.115	26785
815.256	26670
815.397	26583
815.539	26678
815.68	26613
815.821	26503
815.962	26568
816.103	26655
816.244	26393
816.385	26381
816.526	26298
816.666	26271
816.807	25970
816.948	26176
817.089	26221
817.23	26149
817.371	26103
817.512	25966
817.653	26001
817.793	26077
817.934	26058
818.075	26149
818.216	26103
818.356	25997
818.497	26180
818.638	25784
818.778	25791
818.919	25856
819.06	25928
819.2	25963
819.341	25959
819.481	26050
819.622	26172
819.762	26332
819.903	26370
820.043	26149
820.184	26081
820.324	26062
820.465	26221
820.605	26058
820.746	26176
820.886	26058
821.026	26092
821.167	26107
821.307	26191
821.447	26073
821.588	25970
821.728	25811
821.868	25628
822.008	25578
822.149	25601
822.289	25651
822.429	25343
822.569	25202
822.709	25251
822.849	25065
822.99	24958
823.13	24928
823.27	24962
823.41	24837
823.55	24711
823.69	24909
823.83	24875
823.97	24722
824.11	24532
824.25	24547
824.389	24665
824.529	24688
824.669	24582
824.809	24722
824.949	24757
825.089	24726
825.228	24760
825.368	24498
825.508	24494
825.648	24475
825.787	24528
825.927	24612
826.067	24486
826.206	24505
826.346	24559
826.485	24570
826.625	24437
826.765	24665
826.904	24563
827.044	24342
827.183	24353
827.323	24152
827.462	24388
827.601	24273
827.741	24197
827.88	24148
828.02	24087
828.159	24087
828.298	24129
828.437	24330
828.577	24030
828.716	24213
828.855	24167
828.994	23946
829.134	23908
829.273	23874
829.412	23893
829.551	23840
829.69	23882
829.829	23946
829.968	24041
830.107	24049
830.246	23843
830.385	23836
830.524	23764
830.663	23737
830.802	23615
830.941	23482
831.08	23551
831.219	23604
831.357	23653
831.496	23920
831.635	23600
831.774	23562
831.913	23497
832.051	23258
832.19	23364
832.329	23269
832.467	23288
832.606	23220
832.744	23086
832.883	23208
833.022	23132
833.16	23189
833.299	23197
833.437	23318
833.576	23326
833.714	23284
833.852	23421
833.991	23242
834.129	23311
834.267	23326
834.406	23223
834.544	23299
834.682	23303
834.821	23269
834.959	23425
835.097	23356
835.235	23246
835.373	23296
835.511	23250
835.65	23102
835.788	23162
835.926	23083
836.064	22923
836.202	22976
836.34	23136
836.478	23189
836.615	22995
836.753	23086
836.891	23231
837.029	23197
837.167	23105
837.305	22995
837.443	23010
837.58	22908
837.718	22999
837.856	22980
837.993	22896
838.131	22949
838.269	22721
838.406	22896
838.544	22820
838.681	22584
838.819	22588
838.956	22466
839.094	22455
839.231	22443
839.369	22561
839.506	22892
839.643	22740
839.781	22413
839.918	22306
840.055	22455
840.193	22337
840.33	22356
840.467	22363
840.604	22352
840.742	22588
840.879	22337
841.016	22181
841.153	22211
841.29	22546
841.427	22371
841.564	22451
841.701	22333
841.838	22356
841.975	22318
842.112	22185
842.249	22067
842.385	22074
842.522	22291
842.659	22109
842.796	22097
842.933	22223
843.069	22070
843.206	21975
843.343	22299
843.479	22116
843.616	22162
843.752	21869
843.889	21960
844.025	21953
844.162	21819
844.298	22051
844.435	21918
844.571	21869
844.708	21983
844.844	22173
844.98	21998
845.117	22040
845.253	21804
845.389	21766
845.525	21766
845.661	21793
845.798	21599
845.934	21755
846.07	21660
846.206	21755
846.342	21804
846.478	21515
846.614	21488
846.75	21416
846.886	21374
847.022	21397
847.158	21401
847.294	21443
847.429	21401
847.565	21416
847.701	21591
847.837	21188
847.972	21047
848.108	21192
848.244	21138
848.379	20933
848.515	21081
848.65	20960
848.786	21017
848.921	20925
849.057	21051
849.192	21032
849.328	20929
849.463	20948
849.598	21051
849.734	20823
849.869	20910
850.004	20819
850.14	20785
850.275	20735
850.41	20602
850.545	20720
850.68	20750
850.815	20739
850.95	20815
851.085	20910
851.22	20739
851.355	20887
851.49	20705
851.625	20769
851.76	20720
851.895	20659
852.03	20731
852.165	20785
852.299	20815
852.434	20887
852.569	20853
852.703	20686
852.838	20872
852.973	20864
853.107	20838
853.242	20701
853.376	20602
853.511	20488
853.645	20450
853.78	20697
853.914	20651
854.048	20522
854.183	20629
854.317	20625
854.451	20792
854.585	20507
854.72	20564
854.854	20564
854.988	20492
855.122	20564
855.256	20434
855.39	20473
855.524	20602
855.658	20613
855.792	20571
855.926	20609
856.06	20621
856.194	20716
856.327	20590
856.461	20556
856.595	20480
856.729	20488
856.862	20636
856.996	20518
857.13	20594
857.263	20678
857.397	20686
857.53	20602
857.664	20629
857.797	20629
857.931	20636
858.064	20701
858.197	20598
858.331	20473
858.464	20689
858.597	20465
858.731	20575
858.864	20571
858.997	20568
859.13	20640
859.263	20526
859.396	20663
859.529	20587
859.662	20568
859.795	20530
859.928	20644
860.061	20758
860.194	20842
860.327	20598
860.46	20629
860.592	20636
860.725	20667
860.858	20788
860.99	20708
861.123	20499
861.256	20522
861.388	20473
861.521	21135
861.653	20499
861.786	20374
861.918	20347
862.05	20495
862.183	20537
862.315	20511
862.447	20511
862.58	20533
862.712	20267
862.844	20263
862.976	20351
863.108	20271
863.24	20811
863.372	20256
863.504	20336
863.636	20317
863.768	20347
863.9	20301
864.032	20343
864.164	20263
864.296	20328
864.428	20275
864.559	20305
864.691	20347
864.823	20427
864.954	20320
865.086	20263
865.217	20244
865.349	20100
865.48	20256
865.612	20164
865.743	20324
865.875	20149
866.006	20069
866.137	20385
866.269	20122
866.4	20176
866.531	20176
866.662	20130
866.793	20164
866.924	20199
867.055	20084
867.186	20138
867.317	20096
867.448	20027
867.579	20122
867.71	20043
867.841	20107
867.972	20050
868.103	20161
868.233	20180
868.364	20176
868.495	20202
868.625	20385
868.756	20495
868.886	20347
869.017	20317
869.147	20545
869.278	20438
869.408	20294
869.539	20374
869.669	20438
869.799	20514
869.929	20613
870.06	20526
870.19	20724
870.32	20575
870.45	20743
870.58	20845
870.71	20895
870.84	20921
870.97	20682
871.1	20724
871.23	21009
871.36	20982
871.489	20891
871.619	20910
871.749	20937
871.879	21017
872.008	21051
872.138	20914
872.267	21032
872.397	20804
872.526	20895
872.656	20887
872.785	20785
872.915	21081
873.044	21173
873.173	21017
873.303	20960
873.432	21135
873.561	21157
873.69	21032
873.819	20998
873.948	21169
874.077	20876
874.206	21070
874.335	20979
874.464	20998
874.593	21161
874.722	21233
874.851	21233
874.979	21241
875.108	21226
875.237	21116
875.365	21135
875.494	21142
875.623	21287
875.751	21199
875.88	21294
876.008	21275
876.136	21488
876.265	21759
876.393	21739
876.521	21614
876.65	21778
876.778	21724
876.906	21507
877.034	21641
877.162	21694
877.29	21424
877.418	21610
877.546	21599
877.674	21519
877.802	21485
877.93	21576
878.058	21583
878.185	21462
878.313	21591
878.441	21580
878.568	21447
878.696	21576
878.824	21599
878.951	21641
879.079	21739
879.206	21854
879.333	21819
879.461	21599
879.588	21774
879.715	21797
879.842	21895
879.97	21644
880.097	21348
880.224	21386
880.351	21458
880.478	21405
880.605	21332
880.732	21329
880.859	21648
880.986	21515
881.112	21310
881.239	21188
881.366	21169
881.493	21188
881.619	20963
881.746	20994
881.872	21077
881.999	20899
882.125	20948
882.252	20956
882.378	20929
882.505	21108
882.631	20819
882.757	20758
882.883	20674
883.01	20667
883.136	20670
883.262	20564
883.388	20564
883.514	20670
883.64	20655
883.766	20613
883.892	20480
884.018	20530
884.143	20712
884.269	20754
884.395	20434
884.52	20362
884.646	20385
884.772	20358
884.897	20252
885.023	20400
885.148	20492
885.274	20415
885.399	20484
885.524	20328
885.65	20389
885.775	20419
885.9	20355
886.025	20560
886.15	20343
886.275	20408
886.4	20332
886.525	20206
886.65	20225
886.775	20282
886.9	20522
887.025	20594
887.149	20412
887.274	20187
887.399	20157
887.523	20153
887.648	20088
887.773	19989
887.897	20252
888.021	20263
888.146	20092
888.27	20180
888.395	20282
888.519	20161
888.643	20088
888.767	20145
888.891	20069
889.015	19947
889.139	20077
889.263	19970
889.387	20119
889.511	20157
889.635	20012
889.759	19947
889.883	19909
890.006	19902
890.13	20035
890.254	19860
890.377	19925
890.501	19670
890.624	19700
890.748	19681
890.871	19571
890.995	19578
891.118	19457
891.241	19544
891.364	19510
891.488	19647
891.611	19544
891.734	19586
891.857	19670
891.98	19537
892.103	19670
892.226	19567
892.349	19438
892.471	19396
892.594	19407
892.717	19563
892.839	19358
892.962	19548
893.085	19609
893.207	19487
893.33	19358
893.452	19396
893.575	19537
893.697	19548
893.819	19518
893.941	19681
894.064	19495
894.186	19434
894.308	19422
894.43	19537
894.552	19590
894.674	19472
894.796	19392
894.918	19365
895.04	19430
895.161	19514
895.283	19491
895.405	19331
895.526	19537
895.648	19525
895.769	19529
895.891	19544
896.012	19616
896.134	19468
896.255	19499
896.376	19453
896.498	19514
896.619	19594
896.74	19396
896.861	19510
896.982	19871
897.103	20035
897.224	19731
897.345	19845
897.466	19696
897.587	19772
897.708	19906
897.828	19693
897.949	19674
898.07	19582
898.19	19670
898.311	19738
898.431	19693
898.552	19681
898.672	19822
898.792	19860
898.913	19696
899.033	19670
899.153	19628
899.273	19358
899.393	19491
899.513	19499
899.633	19487
899.753	19518
899.873	19441
899.993	19514
900.113	19324
900.232	19388
900.352	19468
900.472	19308
900.591	19327
900.711	19297
900.83	19217
900.95	19392
901.069	19369
901.189	19156
901.308	18932
901.427	18837
901.546	18894
901.665	18943
901.784	18852
901.904	18661
902.023	18631
902.141	18441
902.26	18353
902.379	18566
902.498	18513
902.617	18357
902.735	18506
902.854	18304
902.973	18258
903.091	18102
903.21	18068
903.328	18064
903.446	17988
903.565	17885
903.683	18007
903.801	17794
903.919	17805
904.038	17752
904.156	17756
904.274	17707
904.392	17638
904.51	17474
904.627	17611
904.745	17600
904.863	17627
904.981	17414
905.098	17246
905.216	17345
905.334	17376
905.451	17387
905.569	17288
905.686	17391
905.803	17315
905.921	17140
906.038	17208
906.155	17037
906.272	16991
906.389	17018
906.506	16946
906.623	16790
906.74	16793
906.857	16748
906.974	16820
907.091	16801
907.208	16869
907.324	16835
907.441	16694
907.557	16634
907.674	16535
907.79	16508
907.907	16573
908.023	16527
908.139	16660
908.256	16558
908.372	16360
908.488	16512
908.604	16352
908.72	16341
908.836	16371
908.952	16226
909.068	16390
909.184	16447
909.3	16299
909.415	16322
909.531	16421
909.647	16105
909.762	16029
909.878	16032
909.993	16032
910.108	15930
910.224	16002
910.339	15983
910.454	15884
910.57	15987
910.685	15671
910.8	16063
910.915	15975
911.03	15884
911.145	15591
911.259	15572
911.374	15656
911.489	15564
911.604	15515
911.718	15363
911.833	15389
911.947	15294
912.062	15237
912.176	15382
912.291	15348
912.405	15268
912.519	15538
912.633	15507
912.748	15492
912.862	15336
912.976	15123
913.09	15245
913.204	15192
913.318	15222
913.431	15192
913.545	15245
913.659	15252
913.772	15260
913.886	15058
914	14986
914.113	15051
914.226	15199
914.34	15097
914.453	14914
914.566	14994
914.68	14849
914.793	14823
914.906	14705
915.019	14716
915.132	14667
915.245	14560
915.358	14689
915.47	14724
915.583	14598
915.696	14682
915.809	14670
915.921	14731
916.034	14590
916.146	14552
916.259	14492
916.371	14655
916.483	14511
916.595	14415
916.708	14431
916.82	14465
916.932	14495
917.044	14484
917.156	14328
917.268	14214
917.38	14248
917.491	14347
917.603	14233
917.715	14320
917.826	14347
917.938	14233
918.049	14142
918.161	14343
918.272	14366
918.384	14374
918.495	14214
918.606	14107
918.717	13970
918.828	14069
918.939	14119
919.05	13932
919.161	14008
919.272	13849
919.383	13845
919.494	14164
919.604	14275
919.715	13970
919.826	13902
919.936	14084
920.047	14111
920.157	14031
920.267	14225
920.378	14016
920.488	13951
920.598	14221
920.708	14347
920.818	14199
920.928	14161
921.038	14370
921.148	14343
921.258	13982
921.368	13947
921.477	13811
921.587	13780
921.697	13609
921.806	13887
921.916	13628
922.025	13483
922.134	13430
922.244	13327
922.353	13392
922.462	13293
922.571	13293
922.68	13160
922.789	13034
922.898	13152
923.007	12989
923.116	13053
923.224	13053
923.333	13034
923.442	12920
923.55	12947
923.659	12901
923.767	13004
923.876	12939
923.984	12943
924.092	12791
924.201	12814
924.309	12776
924.417	12905
924.525	12745
924.633	12798
924.741	13719
924.849	12486
924.956	12722
925.064	12563
925.172	12467
925.279	12464
925.387	12528
925.494	12547
925.602	12760
925.709	12498
925.816	12369
925.924	12517
926.031	12566
926.138	12422
926.245	12532
926.352	12346
926.459	12597
926.566	12540
926.673	12342
926.779	12300
926.886	12254
926.993	12159
927.099	12072
927.206	12038
927.312	12102
927.419	12167
927.525	11988
927.631	12098
927.737	11980
927.843	11946
927.95	11805
928.056	11893
928.162	11973
928.267	12003
928.373	12593
928.479	12011
928.585	11714
928.69	11832
928.796	11893
928.901	11771
929.007	11710
929.112	11779
929.218	11790
929.323	11653
929.428	11623
929.533	11843
929.638	11539
929.743	11493
929.848	11657
929.953	11520
930.058	11459
930.163	11322
930.267	11421
930.372	11478
930.477	11307
930.581	11486
930.685	11398
930.79	11315
930.894	11181
930.998	11162
931.103	11368
931.207	11109
931.311	10991
931.415	10831
931.519	10626
931.623	10649
