Data from test_V78500241_430.txt Node
Date: Fri Mar 25 15:12:51 CST 2022
User: usil
Spectrometer: V785-0024
Trigger mode: 0
Integration Time (sec): 4.000000E-1
Scans to average: 1
Nonlinearity correction enabled: false
Boxcar width: 0
Storing dark spectrum: false
XAxis mode: Wavelengths
Number of Pixels in Spectrum: 1024
>>>>>Begin Spectral Data<<<<<
801.071	27199
801.214	27055
801.356	26800
801.499	26788
801.641	26838
801.783	26682
801.926	26872
802.068	26617
802.211	26560
802.353	26518
802.496	26423
802.638	26476
802.78	26290
802.923	26347
803.065	26256
803.208	26324
803.35	26263
803.492	26461
803.635	26530
803.777	26442
803.919	26587
804.061	26781
804.204	26503
804.346	26240
804.488	26484
804.63	26480
804.773	26343
804.915	26549
805.057	26556
805.199	26324
805.341	26663
805.483	26503
805.626	26526
805.768	26469
805.91	26571
806.052	26518
806.194	26366
806.336	26674
806.478	26667
806.62	26659
806.762	26705
806.904	26887
807.046	27051
807.188	27032
807.33	27051
807.472	27127
807.614	26937
807.756	26937
807.898	26914
808.04	26815
808.182	26743
808.324	26705
808.465	26864
808.607	26982
808.749	27222
808.891	27359
809.033	27389
809.174	27272
809.316	27135
809.458	27154
809.6	27066
809.741	27279
809.883	27302
810.025	27469
810.166	27580
810.308	27469
810.45	27500
810.591	27321
810.733	27207
810.875	27233
811.016	27142
811.158	27104
811.299	27207
811.441	27492
811.582	27367
811.724	27161
811.865	27112
812.007	27127
812.148	27184
812.29	27180
812.431	27279
812.573	27393
812.714	27637
812.855	27888
812.997	27694
813.138	27857
813.279	27892
813.421	27724
813.562	27545
813.703	27435
813.845	27325
813.986	27180
814.127	26990
814.268	26777
814.41	26826
814.551	26746
814.692	26750
814.833	26743
814.974	27001
815.115	26773
815.256	26727
815.397	26602
815.539	26678
815.68	26632
815.821	26571
815.962	26632
816.103	26598
816.244	26465
816.385	26374
816.526	26355
816.666	26271
816.807	26225
816.948	26168
817.089	26183
817.23	26195
817.371	26157
817.512	26176
817.653	26206
817.793	26024
817.934	26115
818.075	26183
818.216	26199
818.356	26107
818.497	25974
818.638	25803
818.778	25814
818.919	25883
819.06	25830
819.2	26043
819.341	25966
819.481	26012
819.622	26320
819.762	26503
819.903	26412
820.043	26221
820.184	26259
820.324	26252
820.465	26305
820.605	26290
820.746	26237
820.886	25970
821.026	26210
821.167	26126
821.307	26218
821.447	26005
821.588	26065
821.728	25921
821.868	25769
822.008	25552
822.149	25624
822.289	25537
822.429	25400
822.569	25206
822.709	25312
822.849	25042
822.99	25160
823.13	25008
823.27	24943
823.41	24852
823.55	24798
823.69	24951
823.83	24966
823.97	24749
824.11	24654
824.25	24700
824.389	24734
824.529	24760
824.669	24772
824.809	24783
824.949	24764
825.089	24768
825.228	24703
825.368	24627
825.508	24536
825.648	24574
825.787	24631
825.927	24726
826.067	24642
826.206	24555
826.346	24517
826.485	24684
826.625	24578
826.765	24593
826.904	24715
827.044	24346
827.183	24422
827.323	24239
827.462	24266
827.601	24277
827.741	24289
827.88	24334
828.02	24235
828.159	24228
828.298	24201
828.437	24327
828.577	24334
828.716	24380
828.855	24171
828.994	24144
829.134	24049
829.273	24117
829.412	24049
829.551	24015
829.69	23984
829.829	23984
829.968	24140
830.107	23939
830.246	24072
830.385	23893
830.524	23954
830.663	23733
830.802	23764
830.941	23562
831.08	23570
831.219	23756
831.357	23570
831.496	23878
831.635	23543
831.774	23619
831.913	23604
832.051	23444
832.19	23478
832.329	23467
832.467	23376
832.606	23364
832.744	23368
832.883	23337
833.022	23334
833.16	23307
833.299	23258
833.437	23360
833.576	23478
833.714	23387
833.852	23581
833.991	23410
834.129	23600
834.267	23410
834.406	23520
834.544	23353
834.682	23395
834.821	23284
834.959	23463
835.097	23356
835.235	23444
835.373	23440
835.511	23311
835.65	23140
835.788	23345
835.926	23029
836.064	23083
836.202	22904
836.34	23231
836.478	23406
836.615	23231
836.753	23212
836.891	23284
837.029	23124
837.167	23178
837.305	23204
837.443	23143
837.58	23079
837.718	23147
837.856	23128
837.993	23098
838.131	23052
838.269	22957
838.406	22812
838.544	22885
838.681	22725
838.819	22740
838.956	22599
839.094	22550
839.231	22588
839.369	22664
839.506	23006
839.643	22763
839.781	22516
839.918	22622
840.055	22504
840.193	22615
840.33	22508
840.467	22542
840.604	22607
840.742	22672
840.879	22348
841.016	22500
841.153	22409
841.29	22694
841.427	22459
841.564	22508
841.701	22451
841.838	22504
841.975	22341
842.112	22493
842.249	22276
842.385	22268
842.522	22500
842.659	22424
842.796	22371
842.933	22356
843.069	22143
843.206	22105
843.343	22280
843.479	22276
843.616	22200
843.752	22139
843.889	21994
844.025	22234
844.162	22040
844.298	22105
844.435	22063
844.571	21907
844.708	21949
844.844	22101
844.98	22150
845.117	22154
845.253	21895
845.389	21892
845.525	21918
845.661	21781
845.798	21766
845.934	21873
846.07	21648
846.206	21819
846.342	21804
846.478	21720
846.614	21595
846.75	21272
846.886	21492
847.022	21568
847.158	21500
847.294	21504
847.429	21545
847.565	21332
847.701	21778
847.837	21268
847.972	21256
848.108	21462
848.244	21370
848.379	21142
848.515	21096
848.65	21192
848.786	21119
848.921	21264
849.057	21070
849.192	21150
849.328	21150
849.463	21047
849.598	21093
849.734	21036
849.869	20979
850.004	20895
850.14	20872
850.275	20895
850.41	20735
850.545	20762
850.68	20864
850.815	20796
850.95	20769
851.085	20994
851.22	20834
851.355	20952
851.49	20842
851.625	20857
851.76	20788
851.895	20712
852.03	20796
852.165	20785
852.299	20918
852.434	21055
852.569	20830
852.703	20792
852.838	20944
852.973	20982
853.107	20982
853.242	20792
853.376	20602
853.511	20522
853.645	20697
853.78	20826
853.914	20678
854.048	20682
854.183	20697
854.317	20667
854.451	20769
854.585	20727
854.72	20632
854.854	20701
854.988	20609
855.122	20686
855.256	20484
855.39	20606
855.524	20777
855.658	20796
855.792	20613
855.926	20678
856.06	20693
856.194	20720
856.327	20644
856.461	20674
856.595	20549
856.729	20629
856.862	20670
856.996	20739
857.13	20724
857.263	20891
857.397	20788
857.53	20708
857.664	20777
857.797	20697
857.931	20781
858.064	20765
858.197	20792
858.331	20724
858.464	20762
858.597	20579
858.731	20564
858.864	20663
858.997	20625
859.13	20773
859.263	20705
859.396	20792
859.529	20670
859.662	20735
859.795	20644
859.928	20632
860.061	20838
860.194	20861
860.327	20724
860.46	20785
860.592	20876
860.725	20868
860.858	20731
860.99	20686
861.123	20564
861.256	20625
861.388	20762
861.521	21386
861.653	20511
861.786	20507
861.918	20545
862.05	20499
862.183	20651
862.315	20640
862.447	20651
862.58	20522
862.712	20389
862.844	20320
862.976	20511
863.108	20419
863.24	20845
863.372	20339
863.504	20374
863.636	20492
863.768	20511
863.9	20442
864.032	20343
864.164	20343
864.296	20526
864.428	20522
864.559	20507
864.691	20522
864.823	20454
864.954	20434
865.086	20305
865.217	20339
865.349	20259
865.48	20343
865.612	20358
865.743	20457
865.875	20358
866.006	20252
866.137	20324
866.269	20240
866.4	20275
866.531	20233
866.662	20305
866.793	20153
866.924	20389
867.055	20187
867.186	20290
867.317	20252
867.448	20180
867.579	20180
867.71	20202
867.841	20244
867.972	20267
868.103	20168
868.233	20244
868.364	20214
868.495	20229
868.625	20552
868.756	20556
868.886	20355
869.017	20434
869.147	20537
869.278	20712
869.408	20480
869.539	20480
869.669	20648
869.799	20499
869.929	20617
870.06	20473
870.19	20769
870.32	20762
870.45	20921
870.58	20819
870.71	20948
870.84	21074
870.97	20872
871.1	20891
871.23	21032
871.36	21127
871.489	21032
871.619	20948
871.749	21001
871.879	21096
872.008	21150
872.138	21089
872.267	21169
872.397	20883
872.526	20811
872.656	20925
872.785	20887
872.915	21096
873.044	21180
873.173	21150
873.303	21165
873.432	21066
873.561	21268
873.69	21154
873.819	20960
873.948	21157
874.077	21013
874.206	21123
874.335	21230
874.464	21264
874.593	21302
874.722	21298
874.851	21313
874.979	21500
875.108	21405
875.237	21192
875.365	21294
875.494	21310
875.623	21420
875.751	21306
875.88	21332
876.008	21507
876.136	21325
876.265	21797
876.393	21903
876.521	21930
876.65	21899
876.778	21759
876.906	21747
877.034	21770
877.162	21724
877.29	21717
877.418	21713
877.546	21606
877.674	21679
877.802	21648
877.93	21709
878.058	21637
878.185	21633
878.313	21496
878.441	21743
878.568	21408
878.696	21633
878.824	21766
878.951	21705
879.079	21854
879.206	21964
879.333	21880
879.461	21819
879.588	21857
879.715	21888
879.842	21953
879.97	21880
880.097	21542
880.224	21439
880.351	21587
880.478	21523
880.605	21473
880.732	21523
880.859	21743
880.986	21485
881.112	21614
881.239	21359
881.366	21302
881.493	21093
881.619	21051
881.746	21188
881.872	21146
881.999	21123
882.125	21066
882.252	21100
882.378	21032
882.505	21154
882.631	20895
882.757	20834
882.883	20925
883.01	20800
883.136	20716
883.262	20670
883.388	20625
883.514	20800
883.64	20933
883.766	20788
883.892	20579
884.018	20587
884.143	20606
884.269	20895
884.395	20514
884.52	20454
884.646	20476
884.772	20442
884.897	20389
885.023	20454
885.148	20541
885.274	20670
885.399	20522
885.524	20454
885.65	20488
885.775	20465
885.9	20450
886.025	20590
886.15	20473
886.275	20415
886.4	20454
886.525	20511
886.65	20427
886.775	20263
886.9	20556
887.025	20659
887.149	20339
887.274	20298
887.399	20271
887.523	20225
887.648	20168
887.773	20043
887.897	20381
888.021	20267
888.146	20138
888.27	20355
888.395	20347
888.519	20282
888.643	20282
888.767	20233
888.891	20149
889.015	20092
889.139	20191
889.263	20096
889.387	20153
889.511	20275
889.635	20126
889.759	20035
889.883	19951
890.006	20103
890.13	20229
890.254	19997
890.377	19978
890.501	19883
890.624	19803
890.748	19974
890.871	19693
890.995	19613
891.118	19540
891.241	19495
891.364	19571
891.488	19734
891.611	19647
891.734	19639
891.857	19666
891.98	19651
892.103	19715
892.226	19613
892.349	19533
892.471	19518
892.594	19449
892.717	19468
892.839	19552
892.962	19495
893.085	19495
893.207	19620
893.33	19324
893.452	19441
893.575	19689
893.697	19533
893.819	19814
893.941	19757
894.064	19689
894.186	19571
894.308	19422
894.43	19662
894.552	19670
894.674	19620
894.796	19499
894.918	19559
895.04	19445
895.161	19628
895.283	19510
895.405	19476
895.526	19609
895.648	19525
895.769	19510
895.891	19544
896.012	19559
896.134	19605
896.255	19613
896.376	19502
896.498	19605
896.619	19632
896.74	19537
896.861	19658
896.982	19727
897.103	20024
897.224	19814
897.345	19784
897.466	19655
897.587	19696
897.708	19883
897.828	19803
897.949	19776
898.07	19674
898.19	19613
898.311	19898
898.431	19674
898.552	19757
898.672	19841
898.792	19784
898.913	19879
899.033	19677
899.153	19609
899.273	19369
899.393	19597
899.513	19540
899.633	19491
899.753	19521
899.873	19411
899.993	19499
900.113	19441
900.232	19548
900.352	19464
900.472	19460
900.591	19312
900.711	19407
900.83	19308
900.95	19388
901.069	19343
901.189	19084
901.308	18814
901.427	18863
901.546	18909
901.665	18951
901.784	18966
901.904	18726
902.023	18711
902.141	18532
902.26	18498
902.379	18422
902.498	18422
902.617	18426
902.735	18502
902.854	18407
902.973	18338
903.091	18140
903.21	18041
903.328	18060
903.446	18034
903.565	17847
903.683	17927
903.801	17760
903.919	17836
904.038	17908
904.156	17592
904.274	17771
904.392	17528
904.51	17668
904.627	17714
904.745	17809
904.863	17733
904.981	17528
905.098	17299
905.216	17280
905.334	17402
905.451	17398
905.569	17372
905.686	17383
905.803	17436
905.921	17140
906.038	17273
906.155	17151
906.272	17136
906.389	17121
906.506	16885
906.623	16987
906.74	16972
906.857	16691
906.974	16831
907.091	16927
907.208	17060
907.324	16999
907.441	16786
907.557	16561
907.674	16691
907.79	16618
907.907	16577
908.023	16649
908.139	16668
908.256	16561
908.372	16668
908.488	16500
908.604	16394
908.72	16223
908.836	16268
908.952	16367
909.068	16257
909.184	16360
909.3	16314
909.415	16257
909.531	16268
909.647	16082
909.762	15991
909.878	16166
909.993	16071
910.108	16051
910.224	15949
910.339	16055
910.454	15991
910.57	15873
910.685	15797
910.8	16029
910.915	16044
911.03	15865
911.145	15720
911.259	15698
911.374	15686
911.489	15515
911.604	15561
911.718	15443
911.833	15408
911.947	15294
912.062	15214
912.176	15359
912.291	15397
912.405	15268
912.519	15496
912.633	15584
912.748	15428
912.862	15310
912.976	15306
913.09	15131
913.204	15138
913.318	15233
913.431	15294
913.545	15313
913.659	15374
913.772	15184
913.886	15017
914	15116
914.113	15066
914.226	15100
914.34	15138
914.453	14925
914.566	15055
914.68	14895
914.793	14845
914.906	14758
915.019	14693
915.132	14594
915.245	14640
915.358	14739
915.47	14659
915.583	14667
915.696	14670
915.809	14724
915.921	14773
916.034	14549
916.146	14560
916.259	14530
916.371	14701
916.483	14488
916.595	14385
916.708	14568
916.82	14560
916.932	14377
917.044	14484
917.156	14294
917.268	14259
917.38	14389
917.491	14374
917.603	14263
917.715	14362
917.826	14351
917.938	14259
918.049	14164
918.161	14252
918.272	14503
918.384	14427
918.495	14320
918.606	14092
918.717	14031
918.828	14142
918.939	14218
919.05	14020
919.161	14046
919.272	13894
919.383	13993
919.494	14161
919.604	14275
919.715	14084
919.826	13890
919.936	14073
920.047	14168
920.157	14130
920.267	14278
920.378	14069
920.488	14020
920.598	14225
920.708	14385
920.818	14240
920.928	14195
921.038	14317
921.148	14381
921.258	13925
921.368	13887
921.477	13811
921.587	13860
921.697	13715
921.806	13856
921.916	13727
922.025	13472
922.134	13476
922.244	13419
922.353	13445
922.462	13320
922.571	13331
922.68	13198
922.789	13168
922.898	13118
923.007	13076
923.116	13137
923.224	13065
923.333	13046
923.442	13012
923.55	12859
923.659	12973
923.767	13019
923.876	12928
923.984	12939
924.092	12829
924.201	12894
924.309	12829
924.417	12852
924.525	12901
924.633	12764
924.741	13803
924.849	12631
924.956	12662
925.064	12631
925.172	12540
925.279	12528
925.387	12623
925.494	12536
925.602	12627
925.709	12578
925.816	12426
925.924	12471
926.031	12547
926.138	12582
926.245	12601
926.352	12445
926.459	12563
926.566	12665
926.673	12460
926.779	12315
926.886	12281
926.993	12152
927.099	12114
927.206	12098
927.312	12026
927.419	12220
927.525	12125
927.631	12167
927.737	12007
927.843	11999
927.95	11836
928.056	11942
928.162	11950
928.267	12007
928.373	12608
928.479	11965
928.585	11916
928.69	11927
928.796	11980
928.901	11893
929.007	11775
929.112	11813
929.218	11733
929.323	11703
929.428	11718
929.533	11798
929.638	11638
929.743	11676
929.848	11718
929.953	11657
930.058	11581
930.163	11463
930.267	11383
930.372	11570
930.477	11280
930.581	11558
930.685	11436
930.79	11299
930.894	11273
930.998	11223
931.103	11486
931.207	10953
931.311	10961
931.415	10877
931.519	10759
931.623	10683
