Data from test_V78500241_792.txt Node
Date: Fri Mar 25 15:15:22 CST 2022
User: usil
Spectrometer: V785-0024
Trigger mode: 0
Integration Time (sec): 4.000000E-1
Scans to average: 1
Nonlinearity correction enabled: false
Boxcar width: 0
Storing dark spectrum: false
XAxis mode: Wavelengths
Number of Pixels in Spectrum: 1024
>>>>>Begin Spectral Data<<<<<
801.071	28265
801.214	28131
801.356	28086
801.499	28154
801.641	27736
801.783	27865
801.926	27907
802.068	27922
802.211	27679
802.353	27690
802.496	27591
802.638	27473
802.78	27473
802.923	27389
803.065	27462
803.208	27591
803.35	27431
803.492	27549
803.635	27679
803.777	27587
803.919	27652
804.061	27953
804.204	27854
804.346	27724
804.488	27629
804.63	27610
804.773	27526
804.915	27850
805.057	27949
805.199	27671
805.341	27884
805.483	27941
805.626	27899
805.768	27846
805.91	27876
806.052	27835
806.194	27774
806.336	28109
806.478	27911
806.62	27884
806.762	28074
806.904	28246
807.046	28428
807.188	28306
807.33	28249
807.472	28291
807.614	28344
807.756	28242
807.898	28173
808.04	28063
808.182	28055
808.324	28223
808.465	28265
808.607	28379
808.749	28550
808.891	28573
809.033	28748
809.174	28626
809.316	28561
809.458	28588
809.6	28485
809.741	28565
809.883	28675
810.025	28725
810.166	28946
810.308	28873
810.45	28721
810.591	28778
810.733	28596
810.875	28504
811.016	28432
811.158	28409
811.299	28740
811.441	28729
811.582	28607
811.724	28504
811.865	28550
812.007	28626
812.148	28615
812.29	28519
812.431	28778
812.573	28915
812.714	28923
812.855	29086
812.997	29197
813.138	29486
813.279	29193
813.421	29151
813.562	29014
813.703	28923
813.845	28774
813.986	28470
814.127	28417
814.268	28188
814.41	28230
814.551	28295
814.692	28352
814.833	28226
814.974	28185
815.115	28367
815.256	27991
815.397	28143
815.539	28074
815.68	28139
815.821	27979
815.962	28010
816.103	28105
816.244	28013
816.385	27899
816.526	27751
816.666	27679
816.807	27561
816.948	27690
817.089	27701
817.23	27675
817.371	27500
817.512	27572
817.653	27511
817.793	27511
817.934	27606
818.075	27614
818.216	27682
818.356	27477
818.497	27564
818.638	27310
818.778	27294
818.919	27408
819.06	27363
819.2	27336
819.341	27477
819.481	27561
819.622	27743
819.762	27918
819.903	27838
820.043	27831
820.184	27583
820.324	27793
820.465	27751
820.605	27652
820.746	27633
820.886	27568
821.026	27610
821.167	27507
821.307	27747
821.447	27606
821.588	27534
821.728	27355
821.868	27226
822.008	27104
822.149	27077
822.289	27017
822.429	26895
822.569	26705
822.709	26735
822.849	26545
822.99	26484
823.13	26465
823.27	26469
823.41	26324
823.55	26290
823.69	26419
823.83	26336
823.97	26305
824.11	26278
824.25	26149
824.389	26305
824.529	26237
824.669	26191
824.809	26317
824.949	26282
825.089	26317
825.228	26275
825.368	26016
825.508	26016
825.648	26096
825.787	26119
825.927	26115
826.067	26031
826.206	26065
826.346	26126
826.485	26065
826.625	26176
826.765	26214
826.904	26016
827.044	25936
827.183	25765
827.323	25719
827.462	25852
827.601	25856
827.741	25780
827.88	25868
828.02	25586
828.159	25715
828.298	25936
828.437	25852
828.577	25753
828.716	25788
828.855	25681
828.994	25552
829.134	25556
829.273	25525
829.412	25483
829.551	25483
829.69	25476
829.829	25506
829.968	25495
830.107	25548
830.246	25453
830.385	25407
830.524	25422
830.663	25202
830.802	25198
830.941	25118
831.08	24996
831.219	25251
831.357	25156
831.496	25289
831.635	25019
831.774	25042
831.913	24996
832.051	24989
832.19	24947
832.329	24905
832.467	24878
832.606	24776
832.744	24692
832.883	24760
833.022	24814
833.16	24810
833.299	24859
833.437	24776
833.576	24867
833.714	24958
833.852	24901
833.991	24924
834.129	24901
834.267	25046
834.406	24764
834.544	24985
834.682	24817
834.821	24844
834.959	25000
835.097	24779
835.235	24859
835.373	24943
835.511	24837
835.65	24692
835.788	24711
835.926	24559
836.064	24563
836.202	24437
836.34	24734
836.478	24745
836.615	24483
836.753	24779
836.891	24745
837.029	24547
837.167	24703
837.305	24608
837.443	24441
837.58	24578
837.718	24570
837.856	24509
837.993	24479
838.131	24433
838.269	24479
838.406	24456
838.544	24365
838.681	24155
838.819	24182
838.956	23923
839.094	23973
839.231	23954
839.369	24041
839.506	24251
839.643	24216
839.781	23977
839.918	23817
840.055	23999
840.193	23897
840.33	23843
840.467	23817
840.604	23950
840.742	24155
840.879	23581
841.016	23847
841.153	23745
841.29	23912
841.427	23923
841.564	23885
841.701	23794
841.838	23805
841.975	23836
842.112	23779
842.249	23687
842.385	23554
842.522	23786
842.659	23783
842.796	23558
842.933	23657
843.069	23630
843.206	23623
843.343	23524
843.479	23551
843.616	23600
843.752	23368
843.889	23459
844.025	23661
844.162	23372
844.298	23490
844.435	23372
844.571	23452
844.708	23444
844.844	23520
844.98	23509
845.117	23482
845.253	23433
845.389	23178
845.525	23299
845.661	23174
845.798	23128
845.934	23235
846.07	23010
846.206	23090
846.342	23220
846.478	23098
846.614	22854
846.75	22637
846.886	22869
847.022	22869
847.158	22949
847.294	22885
847.429	22900
847.565	22793
847.701	23128
847.837	22634
847.972	22607
848.108	22679
848.244	22588
848.379	22375
848.515	22409
848.65	22447
848.786	22478
848.921	22432
849.057	22592
849.192	22493
849.328	22436
849.463	22363
849.598	22443
849.734	22265
849.869	22306
850.004	22135
850.14	22070
850.275	22295
850.41	22135
850.545	22192
850.68	22204
850.815	22181
850.95	22234
851.085	22375
851.22	22276
851.355	22299
851.49	22185
851.625	22181
851.76	22112
851.895	22044
852.03	22044
852.165	22215
852.299	22284
852.434	22382
852.569	22223
852.703	22306
852.838	22226
852.973	22428
853.107	22421
853.242	22063
853.376	22109
853.511	22013
853.645	22032
853.78	22074
853.914	22055
854.048	21934
854.183	21926
854.317	22067
854.451	22158
854.585	22029
854.72	22082
854.854	22090
854.988	21911
855.122	21983
855.256	21899
855.39	22067
855.524	22044
855.658	21998
855.792	22082
855.926	22086
856.06	22074
856.194	22169
856.327	21941
856.461	21899
856.595	21979
856.729	21873
856.862	22105
856.996	21949
857.13	22059
857.263	22204
857.397	22093
857.53	22086
857.664	22044
857.797	22143
857.931	22143
858.064	22086
858.197	22055
858.331	22181
858.464	21987
858.597	21895
858.731	21956
858.864	21972
858.997	21895
859.13	22032
859.263	22013
859.396	22044
859.529	21854
859.662	21994
859.795	21949
859.928	22051
860.061	22185
860.194	22276
860.327	21975
860.46	22120
860.592	22063
860.725	22143
860.858	22185
860.99	22097
861.123	21975
861.256	22029
861.388	22036
861.521	22698
861.653	21827
861.786	21819
861.918	21888
862.05	21831
862.183	21987
862.315	22063
862.447	21994
862.58	21941
862.712	21713
862.844	21770
862.976	21743
863.108	21831
863.24	22295
863.372	21599
863.504	21819
863.636	21720
863.768	21713
863.9	21648
864.032	21648
864.164	21656
864.296	21736
864.428	21865
864.559	21816
864.691	21838
864.823	21774
864.954	21694
865.086	21694
865.217	21675
865.349	21583
865.48	21583
865.612	21751
865.743	21835
865.875	21587
866.006	21526
866.137	21572
866.269	21644
866.4	21488
866.531	21534
866.662	21492
866.793	21561
866.924	21435
867.055	21447
867.186	21583
867.317	21515
867.448	21386
867.579	21530
867.71	21370
867.841	21428
867.972	21603
868.103	21488
868.233	21568
868.364	21667
868.495	21603
868.625	21728
868.756	21857
868.886	21850
869.017	21930
869.147	21739
869.278	21926
869.408	21835
869.539	21766
869.669	21827
869.799	21724
869.929	21861
870.06	21991
870.19	22044
870.32	21960
870.45	22128
870.58	22192
870.71	22238
870.84	22204
870.97	22105
871.1	22158
871.23	22459
871.36	22409
871.489	22177
871.619	22272
871.749	22379
871.879	22360
872.008	22379
872.138	22379
872.267	22329
872.397	22272
872.526	22215
872.656	22211
872.785	22223
872.915	22371
873.044	22341
873.173	22310
873.303	22531
873.432	22402
873.561	22394
873.69	22451
873.819	22394
873.948	22417
874.077	22436
874.206	22394
874.335	22398
874.464	22455
874.593	22687
874.722	22596
874.851	22615
874.979	22656
875.108	22778
875.237	22565
875.365	22379
875.494	22596
875.623	22607
875.751	22637
875.88	22485
876.008	22698
876.136	22797
876.265	22972
876.393	23056
876.521	23022
876.65	23060
876.778	22869
876.906	23022
877.034	22919
877.162	22927
877.29	22927
877.418	22976
877.546	23014
877.674	22923
877.802	22752
877.93	22896
878.058	22889
878.185	22938
878.313	22927
878.441	23094
878.568	22774
878.696	22740
878.824	22953
878.951	22965
879.079	23189
879.206	23299
879.333	23090
879.461	22972
879.588	22953
879.715	23124
879.842	23162
879.97	23052
880.097	22831
880.224	22744
880.351	22820
880.478	22858
880.605	22683
880.732	22767
880.859	22771
880.986	22729
881.112	22755
881.239	22573
881.366	22417
881.493	22386
881.619	22352
881.746	22375
881.872	22276
881.999	22314
882.125	22310
882.252	22333
882.378	22333
882.505	22363
882.631	22181
882.757	22067
882.883	22067
883.01	22067
883.136	21979
883.262	21964
883.388	21895
883.514	21998
883.64	21960
883.766	21911
883.892	21846
884.018	21854
884.143	21892
884.269	21915
884.395	21690
884.52	21614
884.646	21679
884.772	21572
884.897	21538
885.023	21644
885.148	21751
885.274	21690
885.399	21766
885.524	21808
885.65	21572
885.775	21656
885.9	21568
886.025	21778
886.15	21652
886.275	21542
886.4	21583
886.525	21652
886.65	21523
886.775	21458
886.9	21770
887.025	21865
887.149	21633
887.274	21412
887.399	21439
887.523	21488
887.648	21408
887.773	21294
887.897	21351
888.021	21450
888.146	21321
888.27	21526
888.395	21519
888.519	21462
888.643	21340
888.767	21473
888.891	21351
889.015	21222
889.139	21458
889.263	21138
889.387	21260
889.511	21408
889.635	21363
889.759	21165
889.883	21272
890.006	21230
890.13	21184
890.254	21058
890.377	21058
890.501	20910
890.624	20937
890.748	21066
890.871	20838
890.995	20872
891.118	20762
891.241	20849
891.364	20765
891.488	20906
891.611	20640
891.734	20670
891.857	20823
891.98	20678
892.103	20815
892.226	20712
892.349	20735
892.471	20571
892.594	20796
892.717	20659
892.839	20575
892.962	20686
893.085	20697
893.207	20621
893.33	20651
893.452	20450
893.575	20800
893.697	20712
893.819	20701
893.941	20804
894.064	20765
894.186	20632
894.308	20537
894.43	20769
894.552	20701
894.674	20617
894.796	20564
894.918	20533
895.04	20617
895.161	20731
895.283	20651
895.405	20587
895.526	20640
895.648	20590
895.769	20708
895.891	20636
896.012	20682
896.134	20609
896.255	20640
896.376	20621
896.498	20667
896.619	20750
896.74	20579
896.861	20636
896.982	20883
897.103	21176
897.224	20807
897.345	20853
897.466	20746
897.587	20937
897.708	20914
897.828	20800
897.949	20785
898.07	20663
898.19	20724
898.311	20902
898.431	20800
898.552	20933
898.672	20811
898.792	20891
898.913	20781
899.033	20712
899.153	20651
899.273	20549
899.393	20541
899.513	20583
899.633	20598
899.753	20427
899.873	20400
899.993	20659
900.113	20518
900.232	20495
900.352	20549
900.472	20473
900.591	20400
900.711	20412
900.83	20313
900.95	20377
901.069	20495
901.189	20343
901.308	20020
901.427	20077
901.546	19932
901.665	19970
901.784	20058
901.904	19742
902.023	19742
902.141	19540
902.26	19499
902.379	19609
902.498	19521
902.617	19464
902.735	19426
902.854	19438
902.973	19540
903.091	19198
903.21	19019
903.328	19072
903.446	19008
903.565	19057
903.683	18993
903.801	18779
903.919	18783
904.038	18863
904.156	18688
904.274	18620
904.392	18627
904.51	18601
904.627	18719
904.745	18661
904.863	18665
904.981	18475
905.098	18304
905.216	18391
905.334	18365
905.451	18365
905.569	18296
905.686	18464
905.803	18262
905.921	18030
906.038	18228
906.155	18144
906.272	18019
906.389	18060
906.506	18022
906.623	17904
906.74	17786
906.857	17722
906.974	17798
907.091	17859
907.208	18053
907.324	17931
907.441	17802
907.557	17646
907.674	17581
907.79	17608
907.907	17501
908.023	17543
908.139	17535
908.256	17570
908.372	17349
908.488	17463
908.604	17273
908.72	17277
908.836	17315
908.952	17288
909.068	17345
909.184	17368
909.3	17261
909.415	17299
909.531	17349
909.647	17045
909.762	16976
909.878	17090
909.993	17022
910.108	16953
910.224	16953
910.339	17033
910.454	16831
910.57	16744
910.685	16687
910.8	16957
910.915	16911
911.03	16721
911.145	16679
911.259	16710
911.374	16596
911.489	16527
911.604	16417
911.718	16325
911.833	16348
911.947	16192
912.062	16158
912.176	16390
912.291	16314
912.405	16333
912.519	16535
912.633	16569
912.748	16333
912.862	16322
912.976	16090
913.09	16044
913.204	16017
913.318	16101
913.431	16249
913.545	16268
913.659	16303
913.772	16044
913.886	15941
914	15850
914.113	16006
914.226	16067
914.34	16017
914.453	15785
914.566	16078
914.68	15865
914.793	15785
914.906	15690
915.019	15530
915.132	15466
915.245	15439
915.358	15534
915.47	15500
915.583	15473
915.696	15545
915.809	15614
915.921	15690
916.034	15435
916.146	15458
916.259	15325
916.371	15466
916.483	15397
916.595	15336
916.708	15348
916.82	15336
916.932	15260
917.044	15268
917.156	15298
917.268	15169
917.38	15192
917.491	15169
917.603	15192
917.715	15222
917.826	15260
917.938	15135
918.049	14986
918.161	15097
918.272	15207
918.384	15260
918.495	15112
918.606	14998
918.717	14815
918.828	14952
918.939	14906
919.05	14838
919.161	14830
919.272	14659
919.383	14743
919.494	14880
919.604	15154
919.715	14838
919.826	14804
919.936	14826
920.047	14982
920.157	14918
920.267	15207
920.378	14842
920.488	14724
920.598	14990
920.708	15112
920.818	14982
920.928	15055
921.038	15154
921.148	15058
921.258	14819
921.368	14769
921.477	14621
921.587	14667
921.697	14427
921.806	14632
921.916	14400
922.025	14305
922.134	14290
922.244	14100
922.353	14278
922.462	14153
922.571	14035
922.68	13841
922.789	13970
922.898	13928
923.007	13833
923.116	13989
923.224	13890
923.333	13833
923.442	13704
923.55	13696
923.659	13772
923.767	13776
923.876	13605
923.984	13704
924.092	13662
924.201	13677
924.309	13586
924.417	13594
924.525	13567
924.633	13544
924.741	14294
924.849	13312
924.956	13464
925.064	13297
925.172	13187
925.279	13225
925.387	13297
925.494	13240
925.602	13343
925.709	13266
925.816	13145
925.924	13232
926.031	13327
926.138	13206
926.245	13266
926.352	13114
926.459	13217
926.566	13259
926.673	13076
926.779	13023
926.886	13023
926.993	12935
927.099	12833
927.206	12795
927.312	12795
927.419	12829
927.525	12829
927.631	12837
927.737	12692
927.843	12616
927.95	12566
928.056	12616
928.162	12635
928.267	12715
928.373	13247
928.479	12684
928.585	12460
928.69	12627
928.796	12566
928.901	12441
929.007	12232
929.112	12471
929.218	12479
929.323	12376
929.428	12258
929.533	12418
929.638	12251
929.743	12334
929.848	12353
929.953	12327
930.058	12182
930.163	12057
930.267	12053
930.372	12148
930.477	11988
930.581	12175
930.685	12026
930.79	11866
930.894	11984
930.998	11874
931.103	12049
931.207	11726
931.311	11585
931.415	11589
931.519	11307
931.623	11273
