Data from test_V78500241_2585.txt Node
Date: Fri Mar 25 15:27:51 CST 2022
User: usil
Spectrometer: V785-0024
Trigger mode: 0
Integration Time (sec): 4.000000E-1
Scans to average: 1
Nonlinearity correction enabled: false
Boxcar width: 0
Storing dark spectrum: false
XAxis mode: Wavelengths
Number of Pixels in Spectrum: 1024
>>>>>Begin Spectral Data<<<<<
801.071	27066
801.214	27085
801.356	26769
801.499	26765
801.641	26785
801.783	26697
801.926	26655
802.068	26651
802.211	26473
802.353	26396
802.496	26366
802.638	26256
802.78	26324
802.923	26168
803.065	25993
803.208	26115
803.35	26195
803.492	26389
803.635	26347
803.777	26286
803.919	26587
804.061	26796
804.204	26640
804.346	26389
804.488	26415
804.63	26408
804.773	26320
804.915	26518
805.057	26609
805.199	26374
805.341	26412
805.483	26659
805.626	26503
805.768	26419
805.91	26606
806.052	26587
806.194	26393
806.336	26716
806.478	26617
806.62	26537
806.762	26758
806.904	26765
807.046	26975
807.188	26933
807.33	26971
807.472	26960
807.614	26838
807.756	26887
807.898	26834
808.04	26621
808.182	26754
808.324	26727
808.465	26838
808.607	27024
808.749	27047
808.891	27279
809.033	27291
809.174	27169
809.316	27066
809.458	27119
809.6	27024
809.741	27104
809.883	27291
810.025	27382
810.166	27496
810.308	27329
810.45	27325
810.591	27317
810.733	27043
810.875	27252
811.016	27135
811.158	26956
811.299	27203
811.441	27412
811.582	27306
811.724	27112
811.865	27077
812.007	27036
812.148	26933
812.29	27131
812.431	27237
812.573	27355
812.714	27507
812.855	27583
812.997	27660
813.138	27911
813.279	27770
813.421	27625
813.562	27450
813.703	27351
813.845	27260
813.986	27051
814.127	27028
814.268	26758
814.41	26792
814.551	26765
814.692	26648
814.833	26773
814.974	26697
815.115	26746
815.256	26674
815.397	26678
815.539	26613
815.68	26590
815.821	26530
815.962	26598
816.103	26457
816.244	26438
816.385	26191
816.526	26233
816.666	26259
816.807	26001
816.948	26069
817.089	26073
817.23	26077
817.371	26122
817.512	26172
817.653	25955
817.793	25909
817.934	26161
818.075	25944
818.216	26035
818.356	26043
818.497	25852
818.638	25731
818.778	25734
818.919	25772
819.06	25906
819.2	25791
819.341	26046
819.481	26077
819.622	26168
819.762	26339
819.903	26351
820.043	26221
820.184	26229
820.324	25989
820.465	26161
820.605	26240
820.746	26062
820.886	26008
821.026	26050
821.167	25970
821.307	26134
821.447	25947
821.588	25822
821.728	25723
821.868	25750
822.008	25624
822.149	25544
822.289	25449
822.429	25209
822.569	25183
822.709	25141
822.849	25095
822.99	25069
823.13	24947
823.27	24966
823.41	24882
823.55	24757
823.69	24795
823.83	24840
823.97	24798
824.11	24570
824.25	24593
824.389	24570
824.529	24837
824.669	24715
824.809	24692
824.949	24814
825.089	24760
825.228	24635
825.368	24460
825.508	24551
825.648	24551
825.787	24517
825.927	24555
826.067	24448
826.206	24448
826.346	24509
826.485	24566
826.625	24525
826.765	24722
826.904	24566
827.044	24418
827.183	24357
827.323	24350
827.462	24323
827.601	24266
827.741	24213
827.88	24243
828.02	24224
828.159	24262
828.298	24178
828.437	24319
828.577	24114
828.716	24323
828.855	24209
828.994	24015
829.134	23961
829.273	23958
829.412	24015
829.551	23897
829.69	23912
829.829	23927
829.968	24007
830.107	24087
830.246	24057
830.385	23897
830.524	23756
830.663	23893
830.802	23691
830.941	23600
831.08	23440
831.219	23707
831.357	23672
831.496	23676
831.635	23547
831.774	23570
831.913	23402
832.051	23395
832.19	23356
832.329	23608
832.467	23330
832.606	23311
832.744	23258
832.883	23273
833.022	23200
833.16	23311
833.299	23250
833.437	23322
833.576	23299
833.714	23242
833.852	23391
833.991	23406
834.129	23307
834.267	23353
834.406	23288
834.544	23471
834.682	23376
834.821	23444
834.959	23539
835.097	23311
835.235	23334
835.373	23273
835.511	23277
835.65	23284
835.788	23239
835.926	23121
836.064	23041
836.202	23140
836.34	23189
836.478	23326
836.615	23067
836.753	23193
836.891	23288
837.029	23181
837.167	23102
837.305	23064
837.443	23094
837.58	22946
837.718	23090
837.856	23086
837.993	22961
838.131	23044
838.269	22942
838.406	23014
838.544	22915
838.681	22721
838.819	22653
838.956	22561
839.094	22554
839.231	22519
839.369	22820
839.506	22953
839.643	22656
839.781	22421
839.918	22451
840.055	22603
840.193	22542
840.33	22497
840.467	22516
840.604	22512
840.742	22713
840.879	22436
841.016	22535
841.153	22333
841.29	22561
841.427	22508
841.564	22557
841.701	22470
841.838	22390
841.975	22344
842.112	22356
842.249	22356
842.385	22261
842.522	22352
842.659	22447
842.796	22158
842.933	22131
843.069	22188
843.206	22093
843.343	22303
843.479	22169
843.616	22185
843.752	21949
843.889	22021
844.025	22211
844.162	21941
844.298	22173
844.435	22116
844.571	21930
844.708	22036
844.844	22173
844.98	22101
845.117	22162
845.253	21861
845.389	21937
845.525	21960
845.661	21842
845.798	21812
845.934	21899
846.07	21667
846.206	21690
846.342	21755
846.478	21682
846.614	21637
846.75	21485
846.886	21416
847.022	21492
847.158	21439
847.294	21466
847.429	21454
847.565	21542
847.701	21667
847.837	21233
847.972	21230
848.108	21359
848.244	21256
848.379	21024
848.515	21093
848.65	21047
848.786	21001
848.921	21089
849.057	20994
849.192	21138
849.328	21085
849.463	21135
849.598	20982
849.734	20986
849.869	20937
850.004	20819
850.14	20781
850.275	20906
850.41	20716
850.545	20762
850.68	20777
850.815	20857
850.95	20746
851.085	20944
851.22	21085
851.355	20842
851.49	20838
851.625	20849
851.76	20868
851.895	20765
852.03	20670
852.165	20845
852.299	20857
852.434	20975
852.569	20861
852.703	20739
852.838	20861
852.973	20948
853.107	20872
853.242	20735
853.376	20708
853.511	20503
853.645	20648
853.78	20838
853.914	20746
854.048	20594
854.183	20632
854.317	20781
854.451	20830
854.585	20629
854.72	20663
854.854	20804
854.988	20587
855.122	20686
855.256	20473
855.39	20651
855.524	20826
855.658	20739
855.792	20617
855.926	20746
856.06	20720
856.194	20724
856.327	20651
856.461	20564
856.595	20492
856.729	20583
856.862	20815
856.996	20682
857.13	20845
857.263	20663
857.397	20781
857.53	20693
857.664	20815
857.797	20712
857.931	20705
858.064	20701
858.197	20857
858.331	20727
858.464	20727
858.597	20545
858.731	20689
858.864	20590
858.997	20663
859.13	20720
859.263	20621
859.396	20735
859.529	20667
859.662	20590
859.795	20613
859.928	20712
860.061	20750
860.194	20842
860.327	20667
860.46	20686
860.592	20686
860.725	20891
860.858	20735
860.99	20765
861.123	20598
861.256	20545
861.388	20571
861.521	21401
861.653	20511
861.786	20499
861.918	20537
862.05	20526
862.183	20575
862.315	20518
862.447	20743
862.58	20442
862.712	20339
862.844	20347
862.976	20511
863.108	20427
863.24	20883
863.372	20294
863.504	20393
863.636	20385
863.768	20442
863.9	20370
864.032	20366
864.164	20454
864.296	20336
864.428	20431
864.559	20415
864.691	20412
864.823	20473
864.954	20275
865.086	20358
865.217	20237
865.349	20218
865.48	20309
865.612	20142
865.743	20488
865.875	20271
866.006	20240
866.137	20298
866.269	20248
866.4	20244
866.531	20339
866.662	20221
866.793	20248
866.924	20199
867.055	20126
867.186	20263
867.317	20103
867.448	20202
867.579	20252
867.71	20176
867.841	20149
867.972	20199
868.103	20122
868.233	20161
868.364	20267
868.495	20259
868.625	20427
868.756	20590
868.886	20461
869.017	20415
869.147	20556
869.278	20533
869.408	20442
869.539	20427
869.669	20568
869.799	20484
869.929	20587
870.06	20549
870.19	20788
870.32	20663
870.45	20811
870.58	20826
870.71	20849
870.84	20902
870.97	20796
871.1	20891
871.23	21017
871.36	21020
871.489	20887
871.619	20990
871.749	21043
871.879	21085
872.008	21043
872.138	21039
872.267	21302
872.397	20929
872.526	20929
872.656	20921
872.785	20899
872.915	21173
873.044	21154
873.173	20960
873.303	21058
873.432	21112
873.561	21146
873.69	21055
873.819	21176
873.948	21188
874.077	21093
874.206	20979
874.335	21066
874.464	21184
874.593	21351
874.722	21310
874.851	21355
874.979	21431
875.108	21439
875.237	21329
875.365	21157
875.494	21252
875.623	21504
875.751	21370
875.88	21340
876.008	21515
876.136	21545
876.265	21793
876.393	21857
876.521	21781
876.65	21797
876.778	21686
876.906	21713
877.034	21595
877.162	21717
877.29	21561
877.418	21599
877.546	21686
877.674	21625
877.802	21709
877.93	21728
878.058	21587
878.185	21545
878.313	21553
878.441	21622
878.568	21553
878.696	21629
878.824	21709
878.951	21766
879.079	21854
879.206	21987
879.333	21804
879.461	21823
879.588	21785
879.715	21743
879.842	22021
879.97	21778
880.097	21443
880.224	21511
880.351	21443
880.478	21587
880.605	21382
880.732	21431
880.859	21793
880.986	21507
881.112	21587
881.239	21412
881.366	21287
881.493	21081
881.619	21051
881.746	21005
881.872	21108
881.999	21176
882.125	20975
882.252	20998
882.378	21135
882.505	21127
882.631	20944
882.757	20872
882.883	20834
883.01	20743
883.136	20815
883.262	20545
883.388	20549
883.514	20769
883.64	20849
883.766	20743
883.892	20632
884.018	20583
884.143	20754
884.269	20788
884.395	20537
884.52	20385
884.646	20514
884.772	20412
884.897	20351
885.023	20507
885.148	20541
885.274	20450
885.399	20533
885.524	20533
885.65	20442
885.775	20450
885.9	20522
886.025	20518
886.15	20526
886.275	20301
886.4	20400
886.525	20389
886.65	20415
886.775	20309
886.9	20602
887.025	20712
887.149	20446
887.274	20263
887.399	20282
887.523	20240
887.648	20176
887.773	20168
887.897	20278
888.021	20199
888.146	20252
888.27	20210
888.395	20358
888.519	20244
888.643	20259
888.767	20282
888.891	20210
889.015	19959
889.139	20058
889.263	20020
889.387	20237
889.511	20229
889.635	20130
889.759	20005
889.883	19902
890.006	20054
890.13	20164
890.254	19860
890.377	19917
890.501	19856
890.624	19761
890.748	19906
890.871	19628
890.995	19658
891.118	19533
891.241	19655
891.364	19613
891.488	19719
891.611	19620
891.734	19609
891.857	19632
891.98	19681
892.103	19670
892.226	19548
892.349	19575
892.471	19274
892.594	19567
892.717	19605
892.839	19540
892.962	19578
893.085	19635
893.207	19578
893.33	19434
893.452	19388
893.575	19590
893.697	19472
893.819	19791
893.941	19670
894.064	19731
894.186	19563
894.308	19403
894.43	19537
894.552	19689
894.674	19635
894.796	19407
894.918	19476
895.04	19445
895.161	19582
895.283	19575
895.405	19514
895.526	19502
895.648	19521
895.769	19571
895.891	19510
896.012	19544
896.134	19628
896.255	19518
896.376	19464
896.498	19624
896.619	19582
896.74	19430
896.861	19590
896.982	19837
897.103	20054
897.224	19807
897.345	19822
897.466	19655
897.587	19590
897.708	19856
897.828	19734
897.949	19708
898.07	19559
898.19	19639
898.311	19837
898.431	19731
898.552	19772
898.672	19822
898.792	19712
898.913	19700
899.033	19582
899.153	19540
899.273	19396
899.393	19468
899.513	19506
899.633	19483
899.753	19438
899.873	19289
899.993	19548
900.113	19449
900.232	19411
900.352	19358
900.472	19381
900.591	19400
900.711	19266
900.83	19259
900.95	19373
901.069	19244
901.189	19164
901.308	18939
901.427	18859
901.546	18848
901.665	18719
901.784	18954
901.904	18779
902.023	18665
902.141	18547
902.26	18273
902.379	18494
902.498	18403
902.617	18395
902.735	18410
902.854	18410
902.973	18270
903.091	18148
903.21	18140
903.328	18015
903.446	18034
903.565	17901
903.683	17988
903.801	17665
903.919	17832
904.038	17866
904.156	17703
904.274	17695
904.392	17707
904.51	17695
904.627	17634
904.745	17707
904.863	17691
904.981	17547
905.098	17433
905.216	17414
905.334	17330
905.451	17318
905.569	17356
905.686	17376
905.803	17372
905.921	17200
906.038	17258
906.155	17147
906.272	17075
906.389	17006
906.506	16995
906.623	16987
906.74	16843
906.857	16774
906.974	16900
907.091	16919
907.208	17025
907.324	16850
907.441	16740
907.557	16653
907.674	16607
907.79	16550
907.907	16443
908.023	16592
908.139	16542
908.256	16542
908.372	16546
908.488	16615
908.604	16455
908.72	16287
908.836	16421
908.952	16337
909.068	16409
909.184	16417
909.3	16238
909.415	16356
909.531	16322
909.647	16177
909.762	16082
909.878	16120
909.993	16112
910.108	16029
910.224	15994
910.339	15960
910.454	15945
910.57	15892
910.685	15857
910.8	16067
910.915	15922
911.03	15892
911.145	15739
911.259	15614
911.374	15736
911.489	15580
911.604	15469
911.718	15386
911.833	15401
911.947	15344
912.062	15351
912.176	15507
912.291	15511
912.405	15511
912.519	15660
912.633	15660
912.748	15473
912.862	15393
912.976	15237
913.09	15077
913.204	15230
913.318	15264
913.431	15340
913.545	15176
913.659	15321
913.772	15161
913.886	15119
914	15097
914.113	15226
914.226	15192
914.34	15085
914.453	14914
914.566	15104
914.68	14971
914.793	14948
914.906	14693
915.019	14735
915.132	14587
915.245	14602
915.358	14762
915.47	14621
915.583	14610
915.696	14727
915.809	14708
915.921	14815
916.034	14640
916.146	14610
916.259	14629
916.371	14667
916.483	14632
916.595	14503
916.708	14587
916.82	14564
916.932	14461
917.044	14446
917.156	14400
917.268	14366
917.38	14343
917.491	14237
917.603	14377
917.715	14503
917.826	14423
917.938	14389
918.049	14145
918.161	14332
918.272	14404
918.384	14377
918.495	14225
918.606	14111
918.717	14016
918.828	14107
918.939	14153
919.05	14031
919.161	14126
919.272	13894
919.383	13925
919.494	14172
919.604	14183
919.715	14130
919.826	14016
919.936	14077
920.047	14202
920.157	14084
920.267	14142
920.378	14111
920.488	14020
920.598	14218
920.708	14328
920.818	14180
920.928	14256
921.038	14328
921.148	14301
921.258	14012
921.368	13978
921.477	13791
921.587	13833
921.697	13670
921.806	13776
921.916	13609
922.025	13552
922.134	13453
922.244	13453
922.353	13495
922.462	13312
922.571	13388
922.68	13217
922.789	13194
922.898	13145
923.007	13099
923.116	13126
923.224	13137
923.333	13065
923.442	13050
923.55	12943
923.659	13004
923.767	13099
923.876	12886
923.984	12951
924.092	12760
924.201	12897
924.309	12871
924.417	12856
924.525	12791
924.633	12798
924.741	13708
924.849	12677
924.956	12711
925.064	12597
925.172	12585
925.279	12551
925.387	12715
925.494	12559
925.602	12692
925.709	12665
925.816	12547
925.924	12566
926.031	12566
926.138	12585
926.245	12525
926.352	12464
926.459	12612
926.566	12547
926.673	12426
926.779	12338
926.886	12403
926.993	12129
927.099	12038
927.206	12091
927.312	12098
927.419	12194
927.525	12186
927.631	12117
927.737	12083
927.843	11965
927.95	11999
928.056	11935
928.162	12083
928.267	12011
928.373	12452
928.479	12053
928.585	11707
928.69	11851
928.796	12034
928.901	11824
929.007	11646
929.112	11832
929.218	11832
929.323	11729
929.428	11718
929.533	11745
929.638	11646
929.743	11661
929.848	11722
929.953	11627
930.058	11558
930.163	11410
930.267	11356
930.372	11551
930.477	11372
930.581	11535
930.685	11474
930.79	11341
930.894	11337
930.998	11277
931.103	11444
931.207	11052
931.311	10961
931.415	10858
931.519	10706
931.623	10759
