Data from test_V78500241_673.txt Node
Date: Fri Mar 25 15:14:32 CST 2022
User: usil
Spectrometer: V785-0024
Trigger mode: 0
Integration Time (sec): 4.000000E-1
Scans to average: 1
Nonlinearity correction enabled: false
Boxcar width: 0
Storing dark spectrum: false
XAxis mode: Wavelengths
Number of Pixels in Spectrum: 1024
>>>>>Begin Spectral Data<<<<<
801.071	28040
801.214	27903
801.356	27785
801.499	27644
801.641	27530
801.783	27431
801.926	27686
802.068	27538
802.211	27450
802.353	27458
802.496	27260
802.638	27214
802.78	27260
802.923	27150
803.065	27256
803.208	27100
803.35	27199
803.492	27466
803.635	27389
803.777	27306
803.919	27336
804.061	27701
804.204	27435
804.346	27424
804.488	27397
804.63	27507
804.773	27367
804.915	27435
805.057	27389
805.199	27344
805.341	27408
805.483	27507
805.626	27374
805.768	27382
805.91	27317
806.052	27629
806.194	27492
806.336	27720
806.478	27507
806.62	27595
806.762	27663
806.904	27953
807.046	28112
807.188	28006
807.33	27937
807.472	27991
807.614	27854
807.756	27953
807.898	27892
808.04	27842
808.182	27876
808.324	27781
808.465	27914
808.607	28025
808.749	28204
808.891	28188
809.033	28363
809.174	28276
809.316	28280
809.458	28158
809.6	28234
809.741	28371
809.883	28394
810.025	28512
810.166	28535
810.308	28478
810.45	28573
810.591	28584
810.733	28230
810.875	28196
811.016	28185
811.158	28090
811.299	28284
811.441	28360
811.582	28303
811.724	28246
811.865	28116
812.007	28223
812.148	28143
812.29	28322
812.431	28451
812.573	28607
812.714	28668
812.855	28881
812.997	28923
813.138	28999
813.279	28927
813.421	28771
813.562	28713
813.703	28710
813.845	28565
813.986	28215
814.127	28055
814.268	27838
814.41	27861
814.551	27934
814.692	28048
814.833	27945
814.974	27789
815.115	28051
815.256	27679
815.397	27918
815.539	27770
815.68	27835
815.821	27762
815.962	27823
816.103	27751
816.244	27591
816.385	27587
816.526	27500
816.666	27363
816.807	27245
816.948	27230
817.089	27279
817.23	27230
817.371	27180
817.512	27241
817.653	27066
817.793	27173
817.934	27176
818.075	27226
818.216	27138
818.356	27173
818.497	27222
818.638	26975
818.778	27039
818.919	26948
819.06	26986
819.2	27211
819.341	27146
819.481	27310
819.622	27321
819.762	27545
819.903	27466
820.043	27454
820.184	27431
820.324	27329
820.465	27469
820.605	27359
820.746	27256
820.886	27169
821.026	27260
821.167	27291
821.307	27359
821.447	27363
821.588	27055
821.728	27024
821.868	26891
822.008	26651
822.149	26648
822.289	26921
822.429	26431
822.569	26317
822.709	26366
822.849	26142
822.99	26233
823.13	26153
823.27	26176
823.41	26035
823.55	25856
823.69	25974
823.83	26005
823.97	25989
824.11	25742
824.25	25776
824.389	25883
824.529	25970
824.669	25715
824.809	25959
824.949	25845
825.089	25951
825.228	25955
825.368	25696
825.508	25738
825.648	25799
825.787	25670
825.927	25746
826.067	25750
826.206	25685
826.346	25750
826.485	25525
826.625	25681
826.765	25757
826.904	25864
827.044	25529
827.183	25445
827.323	25495
827.462	25365
827.601	25396
827.741	25632
827.88	25369
828.02	25194
828.159	25381
828.298	25441
828.437	25434
828.577	25369
828.716	25438
828.855	25415
828.994	25274
829.134	25114
829.273	25209
829.412	25107
829.551	25095
829.69	25194
829.829	25046
829.968	25213
830.107	25152
830.246	25042
830.385	25088
830.524	24932
830.663	24886
830.802	24810
830.941	24673
831.08	24863
831.219	24783
831.357	24741
831.496	25008
831.635	24738
831.774	24650
831.913	24627
832.051	24479
832.19	24574
832.329	24578
832.467	24517
832.606	24422
832.744	24414
832.883	24338
833.022	24346
833.16	24464
833.299	24433
833.437	24433
833.576	24467
833.714	24502
833.852	24528
833.991	24502
834.129	24631
834.267	24574
834.406	24509
834.544	24509
834.682	24471
834.821	24502
834.959	24753
835.097	24384
835.235	24433
835.373	24483
835.511	24528
835.65	24334
835.788	24338
835.926	24114
836.064	24178
836.202	24152
836.34	24395
836.478	24384
836.615	24384
836.753	24380
836.891	24422
837.029	24372
837.167	24209
837.305	24247
837.443	24308
837.58	24186
837.718	24197
837.856	24228
837.993	24072
838.131	24197
838.269	24140
838.406	24167
838.544	23988
838.681	23657
838.819	23809
838.956	23592
839.094	23566
839.231	23562
839.369	23851
839.506	24045
839.643	23893
839.781	23695
839.918	23573
840.055	23543
840.193	23509
840.33	23615
840.467	23528
840.604	23611
840.742	23733
840.879	23322
841.016	23486
841.153	23429
841.29	23581
841.427	23486
841.564	23615
841.701	23642
841.838	23345
841.975	23402
842.112	23330
842.249	23296
842.385	23277
842.522	23474
842.659	23364
842.796	23170
842.933	23280
843.069	23337
843.206	23311
843.343	23440
843.479	23303
843.616	23353
843.752	23121
843.889	22911
844.025	23269
844.162	23086
844.298	23056
844.435	23128
844.571	22930
844.708	23052
844.844	23261
844.98	23280
845.117	23075
845.253	23025
845.389	22949
845.525	22984
845.661	22911
845.798	22725
845.934	22816
846.07	22847
846.206	22771
846.342	22938
846.478	22645
846.614	22577
846.75	22637
846.886	22512
847.022	22557
847.158	22675
847.294	22531
847.429	22573
847.565	22500
847.701	22706
847.837	22173
847.972	22272
848.108	22329
848.244	22367
848.379	22162
848.515	22173
848.65	22063
848.786	22070
848.921	22078
849.057	22169
849.192	22097
849.328	22078
849.463	22143
849.598	21968
849.734	22036
849.869	21907
850.004	21964
850.14	21911
850.275	21880
850.41	21781
850.545	21808
850.68	21770
850.815	21808
850.95	21975
851.085	22093
851.22	21991
851.355	21911
851.49	21854
851.625	21717
851.76	21827
851.895	21789
852.03	21713
852.165	21785
852.299	21854
852.434	21983
852.569	21781
852.703	21937
852.838	21994
852.973	21937
853.107	21892
853.242	21743
853.376	21682
853.511	21625
853.645	21781
853.78	21755
853.914	21785
854.048	21618
854.183	21686
854.317	21732
854.451	21884
854.585	21625
854.72	21755
854.854	21770
854.988	21644
855.122	21679
855.256	21587
855.39	21644
855.524	21648
855.658	21812
855.792	21793
855.926	21686
856.06	21766
856.194	21751
856.327	21682
856.461	21595
856.595	21724
856.729	21663
856.862	21819
856.996	21759
857.13	21724
857.263	21800
857.397	21641
857.53	21682
857.664	21751
857.797	21751
857.931	21816
858.064	21652
858.197	21850
858.331	21766
858.464	21530
858.597	21507
858.731	21652
858.864	21595
858.997	21641
859.13	21797
859.263	21625
859.396	21759
859.529	21751
859.662	21591
859.795	21580
859.928	21717
860.061	21819
860.194	21827
860.327	21770
860.46	21675
860.592	21812
860.725	21861
860.858	21865
860.99	21637
861.123	21568
861.256	21500
861.388	21682
861.521	22363
861.653	21603
861.786	21557
861.918	21507
862.05	21572
862.183	21610
862.315	21682
862.447	21587
862.58	21488
862.712	21447
862.844	21336
862.976	21488
863.108	21408
863.24	21930
863.372	21241
863.504	21344
863.636	21462
863.768	21561
863.9	21378
864.032	21249
864.164	21268
864.296	21424
864.428	21462
864.559	21462
864.691	21450
864.823	21393
864.954	21260
865.086	21317
865.217	21146
865.349	21203
865.48	21279
865.612	21283
865.743	21287
865.875	21294
866.006	21165
866.137	21336
866.269	21275
866.4	21252
866.531	21226
866.662	21302
866.793	21294
866.924	21237
867.055	21211
867.186	21237
867.317	21268
867.448	21237
867.579	21165
867.71	21070
867.841	20982
867.972	21226
868.103	21161
868.233	21180
868.364	21233
868.495	21332
868.625	21431
868.756	21466
868.886	21447
869.017	21466
869.147	21618
869.278	21538
869.408	21496
869.539	21530
869.669	21466
869.799	21545
869.929	21572
870.06	21679
870.19	21781
870.32	21663
870.45	21857
870.58	21770
870.71	21945
870.84	22002
870.97	21987
871.1	21842
871.23	21975
871.36	22021
871.489	21907
871.619	22036
871.749	22097
871.879	22070
872.008	22143
872.138	22036
872.267	22074
872.397	21960
872.526	21876
872.656	21956
872.785	21869
872.915	21934
873.044	22090
873.173	22097
873.303	22124
873.432	21987
873.561	22070
873.69	22067
873.819	21979
873.948	22166
874.077	22105
874.206	21937
874.335	22059
874.464	22078
874.593	22215
874.722	22188
874.851	22417
874.979	22306
875.108	22405
875.237	22177
875.365	22097
875.494	22337
875.623	22409
875.751	22287
875.88	22173
876.008	22394
876.136	22519
876.265	22641
876.393	22713
876.521	22877
876.65	22744
876.778	22675
876.906	22580
877.034	22580
877.162	22675
877.29	22474
877.418	22573
877.546	22778
877.674	22641
877.802	22717
877.93	22615
878.058	22656
878.185	22546
878.313	22584
878.441	22698
878.568	22428
878.696	22607
878.824	22683
878.951	22694
879.079	22820
879.206	22980
879.333	22782
879.461	22569
879.588	22733
879.715	22877
879.842	23010
879.97	22733
880.097	22447
880.224	22436
880.351	22504
880.478	22386
880.605	22436
880.732	22390
880.859	22702
880.986	22478
881.112	22485
881.239	22303
881.366	22181
881.493	22147
881.619	21945
881.746	22124
881.872	22010
881.999	21983
882.125	22013
882.252	22128
882.378	21991
882.505	22044
882.631	21949
882.757	21762
882.883	21835
883.01	21751
883.136	21652
883.262	21576
883.388	21595
883.514	21812
883.64	21861
883.766	21458
883.892	21477
884.018	21515
884.143	21671
884.269	21694
884.395	21473
884.52	21268
884.646	21336
884.772	21195
884.897	21302
885.023	21408
885.148	21511
885.274	21386
885.399	21428
885.524	21481
885.65	21401
885.775	21389
885.9	21325
886.025	21549
886.15	21511
886.275	21249
886.4	21313
886.525	21393
886.65	21279
886.775	21230
886.9	21488
887.025	21458
887.149	21252
887.274	21119
887.399	21173
887.523	21093
887.648	21131
887.773	21028
887.897	21245
888.021	21013
888.146	20948
888.27	21203
888.395	21294
888.519	21138
888.643	21024
888.767	21241
888.891	21013
889.015	20967
889.139	20891
889.263	21051
889.387	20872
889.511	21051
889.635	21036
889.759	20853
889.883	20921
890.006	20906
890.13	20937
890.254	20857
890.377	20796
890.501	20678
890.624	20556
890.748	20568
890.871	20556
890.995	20484
891.118	20412
891.241	20480
891.364	20545
891.488	20651
891.611	20518
891.734	20438
891.857	20488
891.98	20522
892.103	20473
892.226	20393
892.349	20438
892.471	20309
892.594	20381
892.717	20499
892.839	20488
892.962	20313
893.085	20362
893.207	20488
893.33	20157
893.452	20313
893.575	20309
893.697	20275
893.819	20568
893.941	20590
894.064	20503
894.186	20389
894.308	20271
894.43	20522
894.552	20598
894.674	20503
894.796	20240
894.918	20476
895.04	20332
895.161	20278
895.283	20374
895.405	20362
895.526	20377
895.648	20434
895.769	20393
895.891	20278
896.012	20385
896.134	20473
896.255	20385
896.376	20267
896.498	20343
896.619	20370
896.74	20336
896.861	20393
896.982	20507
897.103	20819
897.224	20693
897.345	20541
897.466	20480
897.587	20575
897.708	20629
897.828	20590
897.949	20552
898.07	20518
898.19	20530
898.311	20754
898.431	20571
898.552	20473
898.672	20594
898.792	20556
898.913	20629
899.033	20332
899.153	20339
899.273	20347
899.393	20400
899.513	20347
899.633	20195
899.753	20259
899.873	20244
899.993	20172
900.113	20237
900.232	20301
900.352	20168
900.472	20134
900.591	20096
900.711	20073
900.83	20069
900.95	20115
901.069	20062
901.189	19986
901.308	19753
901.427	19624
901.546	19715
901.665	19689
901.784	19693
901.904	19674
902.023	19476
902.141	19228
902.26	19183
902.379	19289
902.498	19156
902.617	19145
902.735	19289
902.854	19198
902.973	19141
903.091	18886
903.21	18875
903.328	18802
903.446	18848
903.565	18760
903.683	18692
903.801	18509
903.919	18639
904.038	18650
904.156	18460
904.274	18486
904.392	18418
904.51	18460
904.627	18315
904.745	18445
904.863	18448
904.981	18266
905.098	18098
905.216	18106
905.334	18178
905.451	18060
905.569	18060
905.686	18121
905.803	18053
905.921	17889
906.038	17992
906.155	17885
906.272	17767
906.389	17832
906.506	17714
906.623	17699
906.74	17646
906.857	17592
906.974	17608
907.091	17653
907.208	17745
907.324	17608
907.441	17505
907.557	17376
907.674	17269
907.79	17280
907.907	17425
908.023	17421
908.139	17277
908.256	17193
908.372	17204
908.488	17235
908.604	17098
908.72	17155
908.836	17083
908.952	17041
909.068	17060
909.184	17159
909.3	17003
909.415	17136
909.531	17003
909.647	16812
909.762	16767
909.878	16675
909.993	16774
910.108	16717
910.224	16740
910.339	16729
910.454	16660
910.57	16599
910.685	16462
910.8	16744
910.915	16698
911.03	16615
911.145	16413
911.259	16284
911.374	16325
911.489	16344
911.604	16249
911.718	16101
911.833	16097
911.947	16036
912.062	15880
912.176	16040
912.291	16078
912.405	16017
912.519	16249
912.633	16261
912.748	16086
912.862	15983
912.976	15922
913.09	15755
913.204	15831
913.318	15838
913.431	16025
913.545	15968
913.659	15949
913.772	15850
913.886	15720
914	15713
914.113	15793
914.226	15899
914.34	15751
914.453	15614
914.566	15690
914.68	15591
914.793	15572
914.906	15336
915.019	15294
915.132	15249
915.245	15279
915.358	15321
915.47	15260
915.583	15325
915.696	15393
915.809	15408
915.921	15538
916.034	15363
916.146	15211
916.259	15207
916.371	15241
916.483	15237
916.595	15169
916.708	15207
916.82	15085
916.932	15093
917.044	15039
917.156	15005
917.268	14963
917.38	14937
917.491	14960
917.603	15013
917.715	15055
917.826	15036
917.938	14830
918.049	14826
918.161	14868
918.272	15024
918.384	14941
918.495	14807
918.606	14648
918.717	14655
918.828	14769
918.939	14708
919.05	14598
919.161	14667
919.272	14507
919.383	14590
919.494	14678
919.604	14834
919.715	14659
919.826	14648
919.936	14644
920.047	14777
920.157	14705
920.267	14861
920.378	14689
920.488	14655
920.598	14819
920.708	14925
920.818	14819
920.928	14887
921.038	14773
921.148	14838
921.258	14674
921.368	14556
921.477	14434
921.587	14404
921.697	14191
921.806	14495
921.916	14229
922.025	14069
922.134	13951
922.244	14031
922.353	14043
922.462	13890
922.571	13849
922.68	13738
922.789	13609
922.898	13708
923.007	13616
923.116	13753
923.224	13670
923.333	13620
923.442	13525
923.55	13426
923.659	13605
923.767	13540
923.876	13407
923.984	13559
924.092	13411
924.201	13499
924.309	13392
924.417	13438
924.525	13339
924.633	13449
924.741	14145
924.849	13236
924.956	13320
925.064	13156
925.172	13015
925.279	13012
925.387	13118
925.494	13046
925.602	13266
925.709	13099
925.816	13023
925.924	13008
926.031	13038
926.138	12996
926.245	13076
926.352	12966
926.459	13076
926.566	13095
926.673	13019
926.779	12905
926.886	12871
926.993	12658
927.099	12646
927.206	12639
927.312	12623
927.419	12673
927.525	12677
927.631	12650
927.737	12547
927.843	12544
927.95	12315
928.056	12422
928.162	12437
928.267	12460
928.373	13034
928.479	12525
928.585	12239
928.69	12429
928.796	12559
928.901	12418
929.007	12163
929.112	12330
929.218	12292
929.323	12235
929.428	12228
929.533	12311
929.638	12087
929.743	12144
929.848	12175
929.953	12030
930.058	12026
930.163	11847
930.267	11874
930.372	11992
930.477	11783
930.581	12068
930.685	11954
930.79	11726
930.894	11764
930.998	11729
931.103	11832
931.207	11589
931.311	11512
931.415	11307
931.519	11102
931.623	11117
