Data from test_V78500241_161.txt Node
Date: Fri Mar 25 15:10:58 CST 2022
User: usil
Spectrometer: V785-0024
Trigger mode: 0
Integration Time (sec): 4.000000E-1
Scans to average: 1
Nonlinearity correction enabled: false
Boxcar width: 0
Storing dark spectrum: false
XAxis mode: Wavelengths
Number of Pixels in Spectrum: 1024
>>>>>Begin Spectral Data<<<<<
801.071	28029
801.214	27975
801.356	27751
801.499	27694
801.641	27580
801.783	27534
801.926	27580
802.068	27599
802.211	27325
802.353	27313
802.496	27180
802.638	27036
802.78	27150
802.923	27085
803.065	27150
803.208	27024
803.35	27074
803.492	27306
803.635	27169
803.777	27291
803.919	27256
804.061	27542
804.204	27306
804.346	27081
804.488	27039
804.63	27230
804.773	27058
804.915	27211
805.057	27291
805.199	27275
805.341	27150
805.483	27294
805.626	27252
805.768	27142
805.91	27291
806.052	27378
806.194	27176
806.336	27526
806.478	27325
806.62	27374
806.762	27397
806.904	27393
807.046	27781
807.188	27667
807.33	27778
807.472	27736
807.614	27564
807.756	27557
807.898	27591
808.04	27393
808.182	27473
808.324	27473
808.465	27405
808.607	27663
808.749	27873
808.891	27869
809.033	28025
809.174	27892
809.316	27812
809.458	28070
809.6	27922
809.741	27797
809.883	27819
810.025	28131
810.166	28082
810.308	28025
810.45	28032
810.591	28021
810.733	27865
810.875	27785
811.016	27545
811.158	27644
811.299	27724
811.441	27918
811.582	27994
811.724	27663
811.865	27770
812.007	27774
812.148	27755
812.29	27850
812.431	27987
812.573	28063
812.714	28158
812.855	28344
812.997	28306
813.138	28481
813.279	28363
813.421	28238
813.562	28253
813.703	28154
813.845	27934
813.986	27576
814.127	27553
814.268	27515
814.41	27477
814.551	27344
814.692	27481
814.833	27397
814.974	27469
815.115	27351
815.256	27321
815.397	27207
815.539	27176
815.68	27195
815.821	27150
815.962	27154
816.103	27157
816.244	27112
816.385	27074
816.526	26868
816.666	26743
816.807	26613
816.948	26678
817.089	26682
817.23	26492
817.371	26518
817.512	26583
817.653	26518
817.793	26667
817.934	26613
818.075	26511
818.216	26636
818.356	26492
818.497	26404
818.638	26195
818.778	26252
818.919	26374
819.06	26385
819.2	26362
819.341	26427
819.481	26514
819.622	26571
819.762	26800
819.903	26792
820.043	26682
820.184	26621
820.324	26579
820.465	26655
820.605	26655
820.746	26488
820.886	26453
821.026	26560
821.167	26560
821.307	26655
821.447	26526
821.588	26336
821.728	26412
821.868	26210
822.008	26046
822.149	25845
822.289	26005
822.429	25803
822.569	25582
822.709	25753
822.849	25430
822.99	25331
823.13	25358
823.27	25339
823.41	25240
823.55	25091
823.69	25190
823.83	25217
823.97	25187
824.11	25012
824.25	25027
824.389	24989
824.529	25072
824.669	24962
824.809	25152
824.949	25202
825.089	25019
825.228	25038
825.368	24973
825.508	24909
825.648	24909
825.787	24859
825.927	25019
826.067	24757
826.206	24787
826.346	24966
826.485	24833
826.625	24848
826.765	24840
826.904	24894
827.044	24566
827.183	24639
827.323	24479
827.462	24566
827.601	24426
827.741	24498
827.88	24536
828.02	24365
828.159	24429
828.298	24616
828.437	24536
828.577	24388
828.716	24612
828.855	24441
828.994	24262
829.134	24273
829.273	24209
829.412	24220
829.551	24114
829.69	24148
829.829	24235
829.968	24308
830.107	24190
830.246	24232
830.385	24095
830.524	24174
830.663	23973
830.802	23923
830.941	23748
831.08	23836
831.219	23794
831.357	23904
831.496	23923
831.635	23847
831.774	23608
831.913	23665
832.051	23493
832.19	23687
832.329	23558
832.467	23520
832.606	23292
832.744	23383
832.883	23353
833.022	23391
833.16	23425
833.299	23368
833.437	23531
833.576	23463
833.714	23524
833.852	23520
833.991	23490
834.129	23615
834.267	23524
834.406	23429
834.544	23433
834.682	23493
834.821	23368
834.959	23493
835.097	23395
835.235	23497
835.373	23326
835.511	23543
835.65	23372
835.788	23307
835.926	23025
836.064	23044
836.202	23178
836.34	23383
836.478	23376
836.615	23140
836.753	23318
836.891	23334
837.029	23292
837.167	23212
837.305	23102
837.443	23170
837.58	23109
837.718	23235
837.856	23128
837.993	23075
838.131	23071
838.269	22984
838.406	22984
838.544	22881
838.681	22733
838.819	22675
838.956	22592
839.094	22546
839.231	22432
839.369	22580
839.506	22987
839.643	22706
839.781	22649
839.918	22481
840.055	22512
840.193	22535
840.33	22527
840.467	22523
840.604	22569
840.742	22702
840.879	22310
841.016	22428
841.153	22280
841.29	22531
841.427	22348
841.564	22493
841.701	22424
841.838	22432
841.975	22318
842.112	22367
842.249	22211
842.385	22128
842.522	22303
842.659	22253
842.796	22242
842.933	22154
843.069	22204
843.206	22097
843.343	22272
843.479	22040
843.616	22173
843.752	21991
843.889	21975
844.025	22128
844.162	21918
844.298	22006
844.435	21960
844.571	21918
844.708	22002
844.844	22116
844.98	22067
845.117	22051
845.253	21876
845.389	21720
845.525	21804
845.661	21812
845.798	21641
845.934	21774
846.07	21667
846.206	21595
846.342	21709
846.478	21667
846.614	21370
846.75	21294
846.886	21420
847.022	21447
847.158	21462
847.294	21378
847.429	21408
847.565	21291
847.701	21724
847.837	21138
847.972	21077
848.108	21203
848.244	21020
848.379	21001
848.515	21009
848.65	21005
848.786	20868
848.921	20956
849.057	21051
849.192	20967
849.328	21024
849.463	20941
849.598	20960
849.734	20994
849.869	20758
850.004	20735
850.14	20769
850.275	20674
850.41	20625
850.545	20571
850.68	20682
850.815	20693
850.95	20708
851.085	20788
851.22	20739
851.355	20598
851.49	20651
851.625	20537
851.76	20689
851.895	20602
852.03	20602
852.165	20682
852.299	20724
852.434	20746
852.569	20667
852.703	20689
852.838	20792
852.973	20891
853.107	20834
853.242	20640
853.376	20423
853.511	20412
853.645	20514
853.78	20606
853.914	20579
854.048	20457
854.183	20423
854.317	20541
854.451	20693
854.585	20492
854.72	20518
854.854	20613
854.988	20301
855.122	20495
855.256	20377
855.39	20442
855.524	20579
855.658	20522
855.792	20484
855.926	20431
856.06	20530
856.194	20625
856.327	20514
856.461	20431
856.595	20465
856.729	20347
856.862	20606
856.996	20530
857.13	20488
857.263	20526
857.397	20537
857.53	20545
857.664	20533
857.797	20507
857.931	20495
858.064	20552
858.197	20568
858.331	20495
858.464	20442
858.597	20339
858.731	20370
858.864	20332
858.997	20336
859.13	20446
859.263	20351
859.396	20598
859.529	20332
859.662	20393
859.795	20393
859.928	20400
860.061	20602
860.194	20644
860.327	20503
860.46	20377
860.592	20480
860.725	20545
860.858	20541
860.99	20438
861.123	20351
861.256	20233
861.388	20343
861.521	21100
861.653	20278
861.786	20320
861.918	20339
862.05	20537
862.183	20355
862.315	20518
862.447	20609
862.58	20336
862.712	20183
862.844	19993
862.976	20248
863.108	20168
863.24	20564
863.372	20077
863.504	20111
863.636	20054
863.768	20149
863.9	20195
864.032	20122
864.164	20096
864.296	20092
864.428	20100
864.559	20259
864.691	20142
864.823	20237
864.954	20103
865.086	20172
865.217	19967
865.349	20001
865.48	19982
865.612	20058
865.743	20161
865.875	20050
866.006	19982
866.137	20020
866.269	20073
866.4	20016
866.531	20027
866.662	19967
866.793	19913
866.924	19947
867.055	20046
867.186	19936
867.317	19947
867.448	19864
867.579	19921
867.71	19940
867.841	19940
867.972	20016
868.103	19852
868.233	19822
868.364	19936
868.495	20164
868.625	20084
868.756	20259
868.886	20183
869.017	20130
869.147	20195
869.278	20320
869.408	20180
869.539	20252
869.669	20313
869.799	20221
869.929	20336
870.06	20294
870.19	20632
870.32	20450
870.45	20556
870.58	20533
870.71	20640
870.84	20708
870.97	20613
871.1	20549
871.23	20823
871.36	20823
871.489	20731
871.619	20819
871.749	20845
871.879	20804
872.008	20788
872.138	20819
872.267	20834
872.397	20549
872.526	20727
872.656	20594
872.785	20629
872.915	20746
873.044	20750
873.173	20823
873.303	20823
873.432	20864
873.561	20925
873.69	20826
873.819	20876
873.948	20967
874.077	20769
874.206	20746
874.335	20834
874.464	21024
874.593	21024
874.722	21062
874.851	21043
874.979	21218
875.108	21157
875.237	21001
875.365	21032
875.494	21154
875.623	21058
875.751	21108
875.88	21051
876.008	21150
876.136	21272
876.265	21530
876.393	21694
876.521	21606
876.65	21583
876.778	21587
876.906	21386
877.034	21439
877.162	21302
877.29	21469
877.418	21405
877.546	21439
877.674	21351
877.802	21481
877.93	21496
878.058	21450
878.185	21348
878.313	21469
878.441	21416
878.568	21325
878.696	21294
878.824	21454
878.951	21572
879.079	21500
879.206	21755
879.333	21648
879.461	21439
879.588	21599
879.715	21583
879.842	21755
879.97	21542
880.097	21389
880.224	21207
880.351	21260
880.478	21252
880.605	21256
880.732	21169
880.859	21625
880.986	21192
881.112	21283
881.239	20998
881.366	21024
881.493	20845
881.619	20845
881.746	20834
881.872	20746
881.999	20651
882.125	20891
882.252	20830
882.378	20777
882.505	20929
882.631	20754
882.757	20640
882.883	20788
883.01	20708
883.136	20678
883.262	20415
883.388	20408
883.514	20568
883.64	20689
883.766	20636
883.892	20324
884.018	20320
884.143	20552
884.269	20670
884.395	20199
884.52	20191
884.646	20275
884.772	20214
884.897	20195
885.023	20210
885.148	20263
885.274	20286
885.399	20218
885.524	20126
885.65	20161
885.775	20328
885.9	20229
886.025	20225
886.15	20259
886.275	20103
886.4	19997
886.525	20142
886.65	20050
886.775	20103
886.9	20301
887.025	20355
887.149	20252
887.274	20058
887.399	20111
887.523	19989
887.648	19947
887.773	19890
887.897	20043
888.021	19982
888.146	19921
888.27	20092
888.395	20130
888.519	20111
888.643	20024
888.767	19993
888.891	19776
889.015	19693
889.139	19856
889.263	19746
889.387	19826
889.511	20008
889.635	19780
889.759	19780
889.883	19647
890.006	19708
890.13	19917
890.254	19613
890.377	19689
890.501	19605
890.624	19552
890.748	19548
890.871	19521
890.995	19232
891.118	19274
891.241	19373
891.364	19388
891.488	19415
891.611	19438
891.734	19354
891.857	19274
891.98	19411
892.103	19396
892.226	19426
892.349	19369
892.471	19190
892.594	19270
892.717	19312
892.839	19297
892.962	19327
893.085	19422
893.207	19278
893.33	19118
893.452	19190
893.575	19293
893.697	19320
893.819	19301
893.941	19441
894.064	19464
894.186	19175
894.308	19255
894.43	19232
894.552	19343
894.674	19449
894.796	19103
894.918	19301
895.04	19285
895.161	19358
895.283	19316
895.405	19194
895.526	19316
895.648	19266
895.769	19289
895.891	19327
896.012	19460
896.134	19400
896.255	19327
896.376	19289
896.498	19377
896.619	19441
896.74	19316
896.861	19384
896.982	19620
897.103	19826
897.224	19696
897.345	19658
897.466	19518
897.587	19525
897.708	19639
897.828	19544
897.949	19453
898.07	19343
898.19	19483
898.311	19635
898.431	19476
898.552	19499
898.672	19559
898.792	19441
898.913	19449
899.033	19411
899.153	19312
899.273	19282
899.393	19293
899.513	19244
899.633	19316
899.753	19187
899.873	19285
899.993	19445
900.113	19251
900.232	19175
900.352	19183
900.472	19129
900.591	19034
900.711	19065
900.83	19008
900.95	19160
901.069	19069
901.189	19042
901.308	18829
901.427	18635
901.546	18684
901.665	18711
901.784	18616
901.904	18563
902.023	18506
902.141	18292
902.26	18205
902.379	18266
902.498	18235
902.617	18136
902.735	18213
902.854	18064
902.973	18140
903.091	17786
903.21	17840
903.328	17760
903.446	17592
903.565	17649
903.683	17707
903.801	17482
903.919	17581
904.038	17695
904.156	17395
904.274	17471
904.392	17387
904.51	17436
904.627	17395
904.745	17429
904.863	17535
904.981	17185
905.098	17117
905.216	17064
905.334	17227
905.451	17037
905.569	17006
905.686	17022
905.803	17006
905.921	16854
906.038	16938
906.155	16869
906.272	16816
906.389	16820
906.506	16660
906.623	16592
906.74	16698
906.857	16516
906.974	16459
907.091	16653
907.208	16892
907.324	16508
907.441	16497
907.557	16341
907.674	16291
907.79	16253
907.907	16360
908.023	16382
908.139	16249
908.256	16261
908.372	16280
908.488	16150
908.604	16158
908.72	16025
908.836	16002
908.952	16097
909.068	15983
909.184	16131
909.3	15964
909.415	16166
909.531	15911
909.647	15800
909.762	15717
909.878	15686
909.993	15785
910.108	15698
910.224	15660
910.339	15660
910.454	15584
910.57	15572
910.685	15481
910.8	15797
910.915	15724
911.03	15584
911.145	15348
911.259	15184
911.374	15351
911.489	15237
911.604	15195
911.718	15081
911.833	15161
911.947	14960
912.062	14819
912.176	15062
912.291	15097
912.405	14994
912.519	15184
912.633	15207
912.748	15119
912.862	14994
912.976	14842
913.09	14765
913.204	14895
913.318	14895
913.431	15066
913.545	14952
913.659	14971
913.772	14769
913.886	14663
914	14640
914.113	14785
914.226	14796
914.34	14708
914.453	14545
914.566	14678
914.68	14674
914.793	14533
914.906	14389
915.019	14324
915.132	14248
915.245	14480
915.358	14374
915.47	14404
915.583	14393
915.696	14415
915.809	14351
915.921	14526
916.034	14336
916.146	14339
916.259	14134
916.371	14381
916.483	14332
916.595	14142
916.708	14240
916.82	14161
916.932	14115
917.044	14096
917.156	14119
917.268	14008
917.38	14065
917.491	13947
917.603	14024
917.715	13951
917.826	14130
917.938	13951
918.049	13906
918.161	13928
918.272	14096
918.384	14100
918.495	13932
918.606	13902
918.717	13674
918.828	13871
918.939	13799
919.05	13723
919.161	13700
919.272	13609
919.383	13643
919.494	13868
919.604	13997
919.715	13772
919.826	13639
919.936	13784
920.047	13643
920.157	13742
920.267	13875
920.378	13757
920.488	13696
920.598	13871
920.708	14073
920.818	13776
920.928	13970
921.038	14081
921.148	13955
921.258	13647
921.368	13578
921.477	13643
921.587	13491
921.697	13331
921.806	13441
921.916	13289
922.025	13221
922.134	13152
922.244	13088
922.353	13187
922.462	13076
922.571	12905
922.68	12859
922.789	12688
922.898	12814
923.007	12757
923.116	12764
923.224	12798
923.333	12711
923.442	12593
923.55	12540
923.659	12608
923.767	12692
923.876	12574
923.984	12620
924.092	12494
924.201	12578
924.309	12532
924.417	12471
924.525	12441
924.633	12528
924.741	13232
924.849	12270
924.956	12460
925.064	12277
925.172	12140
925.279	12277
925.387	12273
925.494	12258
925.602	12388
925.709	12323
925.816	12106
925.924	12190
926.031	12273
926.138	12194
926.245	12213
926.352	12102
926.459	12209
926.566	12292
926.673	12133
926.779	12038
926.886	12030
926.993	11817
927.099	11809
927.206	11813
927.312	11733
927.419	11843
927.525	11851
927.631	11802
927.737	11691
927.843	11646
927.95	11493
928.056	11737
928.162	11592
928.267	11676
928.373	12304
928.479	11710
928.585	11551
928.69	11661
928.796	11668
928.901	11562
929.007	11455
929.112	11524
929.218	11436
929.323	11501
929.428	11440
929.533	11482
929.638	11421
929.743	11299
929.848	11345
929.953	11337
930.058	11269
930.163	11010
930.267	11048
930.372	11353
930.477	11029
930.581	11258
930.685	11124
930.79	10980
930.894	11048
930.998	10984
931.103	11098
931.207	10782
931.311	10626
931.415	10519
931.519	10409
931.623	10375
