Data from test_V78500241_386.txt Node
Date: Fri Mar 25 15:12:32 CST 2022
User: usil
Spectrometer: V785-0024
Trigger mode: 0
Integration Time (sec): 4.000000E-1
Scans to average: 1
Nonlinearity correction enabled: false
Boxcar width: 0
Storing dark spectrum: false
XAxis mode: Wavelengths
Number of Pixels in Spectrum: 1024
>>>>>Begin Spectral Data<<<<<
801.071	26998
801.214	26872
801.356	26739
801.499	26663
801.641	26480
801.783	26526
801.926	26488
802.068	26530
802.211	26396
802.353	26343
802.496	26370
802.638	26244
802.78	26202
802.923	26149
803.065	26039
803.208	26271
803.35	26138
803.492	26256
803.635	26358
803.777	26138
803.919	26396
804.061	26655
804.204	26301
804.346	26077
804.488	26343
804.63	26362
804.773	26202
804.915	26286
805.057	26453
805.199	26271
805.341	26362
805.483	26233
805.626	26343
805.768	26244
805.91	26374
806.052	26465
806.194	26275
806.336	26560
806.478	26358
806.62	26396
806.762	26473
806.904	26651
807.046	26853
807.188	26743
807.33	26849
807.472	26952
807.614	26788
807.756	26731
807.898	26434
808.04	26507
808.182	26648
808.324	26526
808.465	26583
808.607	26746
808.749	26849
808.891	27070
809.033	27165
809.174	27009
809.316	27032
809.458	27005
809.6	27055
809.741	27020
809.883	27017
810.025	27264
810.166	27116
810.308	27317
810.45	27188
810.591	27348
810.733	27081
810.875	27024
811.016	26857
811.158	26792
811.299	27058
811.441	27135
811.582	27062
811.724	26868
811.865	26963
812.007	26895
812.148	26937
812.29	26937
812.431	27112
812.573	27363
812.714	27427
812.855	27572
812.997	27667
813.138	27736
813.279	27557
813.421	27523
813.562	27443
813.703	27325
813.845	27218
813.986	27009
814.127	26792
814.268	26609
814.41	26670
814.551	26571
814.692	26621
814.833	26469
814.974	26613
815.115	26663
815.256	26507
815.397	26404
815.539	26621
815.68	26366
815.821	26225
815.962	26393
816.103	26389
816.244	26210
816.385	26191
816.526	26142
816.666	26031
816.807	25963
816.948	25936
817.089	26100
817.23	26001
817.371	25871
817.512	25841
817.653	25883
817.793	25784
817.934	25845
818.075	25963
818.216	25890
818.356	25761
818.497	25830
818.638	25723
818.778	25689
818.919	25708
819.06	25635
819.2	25670
819.341	25807
819.481	25776
819.622	26016
819.762	26339
819.903	26084
820.043	25963
820.184	25925
820.324	25986
820.465	25989
820.605	26088
820.746	25890
820.886	25963
821.026	25955
821.167	25856
821.307	26012
821.447	25852
821.588	25807
821.728	25624
821.868	25388
822.008	25377
822.149	25438
822.289	25308
822.429	24958
822.569	25129
822.709	25034
822.849	24859
822.99	24852
823.13	24844
823.27	24734
823.41	24642
823.55	24422
823.69	24635
823.83	24700
823.97	24490
824.11	24452
824.25	24467
824.389	24414
824.529	24452
824.669	24513
824.809	24582
824.949	24589
825.089	24665
825.228	24505
825.368	24376
825.508	24277
825.648	24369
825.787	24399
825.927	24509
826.067	24296
826.206	24323
826.346	24403
826.485	24384
826.625	24209
826.765	24395
826.904	24441
827.044	24201
827.183	24102
827.323	24060
827.462	24144
827.601	23939
827.741	23984
827.88	23958
828.02	24022
828.159	23965
828.298	24049
828.437	24144
828.577	24064
828.716	24102
828.855	23863
828.994	23783
829.134	23802
829.273	23977
829.412	23779
829.551	23718
829.69	23779
829.829	23893
829.968	23878
830.107	23851
830.246	23718
830.385	23611
830.524	23665
830.663	23528
830.802	23604
830.941	23326
831.08	23330
831.219	23478
831.357	23414
831.496	23596
831.635	23318
831.774	23387
831.913	23330
832.051	23242
832.19	23147
832.329	23227
832.467	23159
832.606	23052
832.744	23064
832.883	23037
833.022	23075
833.16	23079
833.299	23166
833.437	23102
833.576	23181
833.714	23162
833.852	23147
833.991	23208
834.129	23303
834.267	23246
834.406	23098
834.544	23220
834.682	23159
834.821	23155
834.959	23299
835.097	23094
835.235	23227
835.373	23174
835.511	23079
835.65	23083
835.788	23022
835.926	22816
836.064	22885
836.202	22793
836.34	22919
836.478	23193
836.615	23064
836.753	23029
836.891	23048
837.029	23044
837.167	22824
837.305	22984
837.443	22972
837.58	22934
837.718	22995
837.856	22797
837.993	22854
838.131	22911
838.269	22733
838.406	22797
838.544	22584
838.681	22523
838.819	22440
838.956	22497
839.094	22337
839.231	22443
839.369	22592
839.506	22733
839.643	22580
839.781	22360
839.918	22211
840.055	22367
840.193	22360
840.33	22287
840.467	22299
840.604	22276
840.742	22592
840.879	22090
841.016	22177
841.153	22063
841.29	22413
841.427	22276
841.564	22226
841.701	22287
841.838	22207
841.975	22150
842.112	22268
842.249	22097
842.385	22002
842.522	22200
842.659	22185
842.796	22010
842.933	22044
843.069	21907
843.206	22055
843.343	22082
843.479	22032
843.616	22036
843.752	21770
843.889	21759
844.025	21964
844.162	21759
844.298	21915
844.435	21823
844.571	21755
844.708	21785
844.844	21975
844.98	21941
845.117	21831
845.253	21709
845.389	21656
845.525	21671
845.661	21698
845.798	21580
845.934	21549
846.07	21488
846.206	21572
846.342	21614
846.478	21485
846.614	21439
846.75	21188
846.886	21355
847.022	21348
847.158	21310
847.294	21363
847.429	21256
847.565	21340
847.701	21492
847.837	21032
847.972	21135
848.108	21195
848.244	21055
848.379	20979
848.515	20918
848.65	20880
848.786	20906
848.921	20963
849.057	21058
849.192	20944
849.328	20914
849.463	20906
849.598	20895
849.734	20689
849.869	20758
850.004	20678
850.14	20701
850.275	20682
850.41	20621
850.545	20571
850.68	20655
850.815	20701
850.95	20575
851.085	20788
851.22	20804
851.355	20651
851.49	20629
851.625	20621
851.76	20594
851.895	20621
852.03	20492
852.165	20625
852.299	20609
852.434	20659
852.569	20655
852.703	20750
852.838	20632
852.973	20792
853.107	20781
853.242	20720
853.376	20549
853.511	20434
853.645	20412
853.78	20537
853.914	20499
854.048	20457
854.183	20396
854.317	20530
854.451	20575
854.585	20594
854.72	20545
854.854	20499
854.988	20415
855.122	20446
855.256	20267
855.39	20415
855.524	20651
855.658	20476
855.792	20431
855.926	20396
856.06	20507
856.194	20530
856.327	20412
856.461	20499
856.595	20400
856.729	20457
856.862	20564
856.996	20537
857.13	20560
857.263	20545
857.397	20533
857.53	20434
857.664	20526
857.797	20552
857.931	20568
858.064	20632
858.197	20480
858.331	20461
858.464	20461
858.597	20366
858.731	20396
858.864	20381
858.997	20328
859.13	20560
859.263	20526
859.396	20488
859.529	20454
859.662	20507
859.795	20434
859.928	20461
860.061	20522
860.194	20804
860.327	20473
860.46	20317
860.592	20655
860.725	20541
860.858	20522
860.99	20450
861.123	20362
861.256	20355
861.388	20465
861.521	21127
861.653	20294
861.786	20301
861.918	20259
862.05	20370
862.183	20320
862.315	20457
862.447	20476
862.58	20385
862.712	20267
862.844	20077
862.976	20305
863.108	20332
863.24	20640
863.372	20069
863.504	20237
863.636	20126
863.768	20225
863.9	20145
864.032	20176
864.164	20164
864.296	20290
864.428	20396
864.559	20210
864.691	20370
864.823	20138
864.954	20088
865.086	20176
865.217	20142
865.349	20065
865.48	20058
865.612	20008
865.743	20214
865.875	20191
866.006	20016
866.137	20142
866.269	20065
866.4	20145
866.531	20100
866.662	20012
866.793	19982
866.924	19970
867.055	19940
867.186	19982
867.317	20027
867.448	19890
867.579	20062
867.71	19913
867.841	19894
867.972	20027
868.103	20005
868.233	19993
868.364	19944
868.495	20134
868.625	20240
868.756	20370
868.886	20164
869.017	20389
869.147	20271
869.278	20328
869.408	20377
869.539	20328
869.669	20393
869.799	20301
869.929	20355
870.06	20393
870.19	20564
870.32	20503
870.45	20667
870.58	20716
870.71	20743
870.84	20769
870.97	20712
871.1	20629
871.23	20864
871.36	20826
871.489	20830
871.619	20781
871.749	20910
871.879	20842
872.008	20982
872.138	20899
872.267	20883
872.397	20693
872.526	20678
872.656	20735
872.785	20781
872.915	20929
873.044	20948
873.173	20823
873.303	20853
873.432	20956
873.561	20979
873.69	20921
873.819	20883
873.948	20910
874.077	20971
874.206	20902
874.335	20967
874.464	21036
874.593	21127
874.722	21154
874.851	21192
874.979	21146
875.108	21142
875.237	21127
875.365	21024
875.494	21138
875.623	21112
875.751	21150
875.88	21020
876.008	21260
876.136	21287
876.265	21637
876.393	21778
876.521	21599
876.65	21675
876.778	21511
876.906	21504
877.034	21485
877.162	21492
877.29	21458
877.418	21511
877.546	21587
877.674	21599
877.802	21511
877.93	21515
878.058	21519
878.185	21298
878.313	21477
878.441	21431
878.568	21294
878.696	21488
878.824	21549
878.951	21618
879.079	21545
879.206	21785
879.333	21679
879.461	21507
879.588	21606
879.715	21561
879.842	21781
879.97	21439
880.097	21336
880.224	21336
880.351	21401
880.478	21359
880.605	21291
880.732	21249
880.859	21545
880.986	21408
881.112	21287
881.239	21161
881.366	21036
881.493	21039
881.619	20864
881.746	21001
881.872	20918
881.999	20796
882.125	20826
882.252	21013
882.378	20758
882.505	21005
882.631	20777
882.757	20602
882.883	20670
883.01	20689
883.136	20537
883.262	20568
883.388	20438
883.514	20632
883.64	20697
883.766	20454
883.892	20393
884.018	20499
884.143	20579
884.269	20674
884.395	20366
884.52	20214
884.646	20278
884.772	20290
884.897	20218
885.023	20267
885.148	20263
885.274	20427
885.399	20347
885.524	20374
885.65	20298
885.775	20305
885.9	20290
886.025	20290
886.15	20351
886.275	20298
886.4	20168
886.525	20263
886.65	20168
886.775	20119
886.9	20362
887.025	20499
887.149	20305
887.274	20054
887.399	19986
887.523	19997
887.648	20046
887.773	19917
887.897	20237
888.021	20065
888.146	20092
888.27	20084
888.395	20046
888.519	20130
888.643	20111
888.767	20142
888.891	19944
889.015	19875
889.139	19902
889.263	19833
889.387	19986
889.511	20161
889.635	20005
889.759	19830
889.883	19837
890.006	19902
890.13	19951
890.254	19731
890.377	19738
890.501	19715
890.624	19613
890.748	19616
890.871	19476
890.995	19434
891.118	19339
891.241	19506
891.364	19575
891.488	19521
891.611	19533
891.734	19472
891.857	19521
891.98	19563
892.103	19377
892.226	19480
892.349	19384
892.471	19304
892.594	19438
892.717	19304
892.839	19400
892.962	19419
893.085	19552
893.207	19358
893.33	19259
893.452	19282
893.575	19324
893.697	19324
893.819	19396
893.941	19502
894.064	19518
894.186	19362
894.308	19384
894.43	19415
894.552	19457
894.674	19487
894.796	19327
894.918	19270
895.04	19274
895.161	19400
895.283	19396
895.405	19194
895.526	19354
895.648	19457
895.769	19304
895.891	19339
896.012	19430
896.134	19567
896.255	19419
896.376	19244
896.498	19304
896.619	19396
896.74	19304
896.861	19411
896.982	19628
897.103	19845
897.224	19567
897.345	19788
897.466	19613
897.587	19586
897.708	19799
897.828	19601
897.949	19544
898.07	19301
898.19	19525
898.311	19708
898.431	19548
898.552	19480
898.672	19582
898.792	19746
898.913	19616
899.033	19575
899.153	19388
899.273	19255
899.393	19411
899.513	19464
899.633	19312
899.753	19327
899.873	19304
899.993	19415
900.113	19369
900.232	19320
900.352	19282
900.472	19183
900.591	19133
900.711	19141
900.83	19187
900.95	19133
901.069	19251
901.189	19091
901.308	18798
901.427	18749
901.546	18669
901.665	18715
901.784	18840
901.904	18734
902.023	18525
902.141	18270
902.26	18285
902.379	18361
902.498	18342
902.617	18174
902.735	18285
902.854	18243
902.973	18174
903.091	17878
903.21	17950
903.328	18011
903.446	17809
903.565	17676
903.683	17752
903.801	17722
903.919	17733
904.038	17657
904.156	17619
904.274	17573
904.392	17539
904.51	17433
904.627	17429
904.745	17672
904.863	17493
904.981	17239
905.098	17254
905.216	17189
905.334	17296
905.451	17227
905.569	17197
905.686	17204
905.803	17143
905.921	17003
906.038	17136
906.155	17079
906.272	16968
906.389	16908
906.506	16805
906.623	16881
906.74	16873
906.857	16577
906.974	16588
907.091	16911
907.208	16816
907.324	16763
907.441	16733
907.557	16500
907.674	16466
907.79	16375
907.907	16390
908.023	16561
908.139	16485
908.256	16352
908.372	16333
908.488	16394
908.604	16246
908.72	16116
908.836	16207
908.952	16051
909.068	16143
909.184	16303
909.3	16128
909.415	16131
909.531	16249
909.647	16006
909.762	15994
909.878	15903
909.993	15831
910.108	15884
910.224	15846
910.339	15884
910.454	15778
910.57	15789
910.685	15660
910.8	15945
910.915	15911
911.03	15755
911.145	15511
911.259	15504
911.374	15523
911.489	15454
911.604	15447
911.718	15268
911.833	15298
911.947	15077
912.062	15116
912.176	15203
912.291	15207
912.405	15283
912.519	15363
912.633	15412
912.748	15321
912.862	15184
912.976	15074
913.09	14963
913.204	15017
913.318	15020
913.431	15203
913.545	15237
913.659	15233
913.772	15066
913.886	14929
914	14872
914.113	15005
914.226	15009
914.34	15032
914.453	14765
914.566	14948
914.68	14705
914.793	14796
914.906	14511
915.019	14507
915.132	14400
915.245	14575
915.358	14613
915.47	14541
915.583	14598
915.696	14499
915.809	14697
915.921	14564
916.034	14434
916.146	14415
916.259	14366
916.371	14533
916.483	14431
916.595	14339
916.708	14389
916.82	14286
916.932	14355
917.044	14317
917.156	14240
917.268	14206
917.38	14256
917.491	14202
917.603	14221
917.715	14263
917.826	14324
917.938	14210
918.049	13978
918.161	14088
918.272	14309
918.384	14286
918.495	14164
918.606	14039
918.717	13925
918.828	14001
918.939	14012
919.05	13849
919.161	13970
919.272	13742
919.383	13734
919.494	13936
919.604	14183
919.715	13955
919.826	13833
919.936	13928
920.047	13974
920.157	13959
920.267	14065
920.378	13978
920.488	13986
920.598	14084
920.708	14206
920.818	14119
920.928	14153
921.038	14240
921.148	14153
921.258	13936
921.368	13856
921.477	13761
921.587	13712
921.697	13693
921.806	13704
921.916	13605
922.025	13362
922.134	13285
922.244	13221
922.353	13381
922.462	13251
922.571	13118
922.68	13042
922.789	12962
922.898	12947
923.007	12951
923.116	12977
923.224	12916
923.333	13012
923.442	12802
923.55	12966
923.659	12886
923.767	12833
923.876	12825
923.984	12810
924.092	12700
924.201	12757
924.309	12791
924.417	12764
924.525	12635
924.633	12703
924.741	13464
924.849	12433
924.956	12646
925.064	12521
925.172	12304
925.279	12467
925.387	12483
925.494	12528
925.602	12544
925.709	12513
925.816	12308
925.924	12441
926.031	12490
926.138	12369
926.245	12330
926.352	12216
926.459	12448
926.566	12441
926.673	12285
926.779	12167
926.886	12224
926.993	11992
927.099	12091
927.206	11927
927.312	12011
927.419	12068
927.525	12030
927.631	11999
927.737	12026
927.843	11847
927.95	11741
928.056	11901
928.162	11889
928.267	11882
928.373	12536
928.479	11973
928.585	11798
928.69	11824
928.796	11870
928.901	11767
929.007	11589
929.112	11695
929.218	11722
929.323	11638
929.428	11638
929.533	11619
929.638	11501
929.743	11547
929.848	11600
929.953	11547
930.058	11474
930.163	11303
930.267	11318
930.372	11383
930.477	11280
930.581	11547
930.685	11315
930.79	11174
930.894	11185
930.998	11155
931.103	11353
931.207	10965
931.311	10858
931.415	10812
931.519	10672
931.623	10554
