Data from test_V78500241_1818.txt Node
Date: Fri Mar 25 15:22:30 CST 2022
User: usil
Spectrometer: V785-0024
Trigger mode: 0
Integration Time (sec): 4.000000E-1
Scans to average: 1
Nonlinearity correction enabled: false
Boxcar width: 0
Storing dark spectrum: false
XAxis mode: Wavelengths
Number of Pixels in Spectrum: 1024
>>>>>Begin Spectral Data<<<<<
801.071	27736
801.214	27732
801.356	27587
801.499	27329
801.641	27332
801.783	27313
801.926	27389
802.068	27279
802.211	27260
802.353	27241
802.496	26990
802.638	26849
802.78	26861
802.923	26948
803.065	26933
803.208	26952
803.35	26963
803.492	27085
803.635	27245
803.777	27070
803.919	27062
804.061	27454
804.204	27188
804.346	27074
804.488	27043
804.63	27142
804.773	27047
804.915	27157
805.057	27256
805.199	27100
805.341	27036
805.483	27260
805.626	27252
805.768	27214
805.91	27222
806.052	27173
806.194	27348
806.336	27439
806.478	27344
806.62	27218
806.762	27389
806.904	27450
807.046	27656
807.188	27572
807.33	27709
807.472	27724
807.614	27561
807.756	27606
807.898	27549
808.04	27538
808.182	27618
808.324	27488
808.465	27614
808.607	27762
808.749	27895
808.891	28044
809.033	28025
809.174	27994
809.316	27934
809.458	27926
809.6	27895
809.741	27964
809.883	28021
810.025	28147
810.166	28162
810.308	28128
810.45	28082
810.591	27941
810.733	27945
810.875	27732
811.016	27774
811.158	27766
811.299	27972
811.441	28002
811.582	28101
811.724	28040
811.865	27785
812.007	27823
812.148	27960
812.29	27937
812.431	27934
812.573	28070
812.714	28356
812.855	28303
812.997	28504
813.138	28607
813.279	28554
813.421	28363
813.562	28238
813.703	28147
813.845	28200
813.986	27778
814.127	27789
814.268	27580
814.41	27587
814.551	27625
814.692	27679
814.833	27504
814.974	27542
815.115	27622
815.256	27431
815.397	27462
815.539	27401
815.68	27313
815.821	27374
815.962	27473
816.103	27363
816.244	27268
816.385	27188
816.526	27108
816.666	27089
816.807	26785
816.948	26815
817.089	27032
817.23	26910
817.371	26769
817.512	26861
817.653	26804
817.793	26735
817.934	26853
818.075	26914
818.216	26880
818.356	26769
818.497	26651
818.638	26583
818.778	26617
818.919	26651
819.06	26648
819.2	26800
819.341	26963
819.481	26960
819.622	27081
819.762	27127
819.903	27104
820.043	27062
820.184	27131
820.324	26982
820.465	27123
820.605	26940
820.746	27013
820.886	26842
821.026	26906
821.167	26967
821.307	26842
821.447	26769
821.588	26731
821.728	26670
821.868	26499
822.008	26244
822.149	26431
822.289	26336
822.429	26142
822.569	25993
822.709	26024
822.849	25906
822.99	25917
823.13	25947
823.27	25963
823.41	25689
823.55	25537
823.69	25590
823.83	25704
823.97	25556
824.11	25548
824.25	25460
824.389	25556
824.529	25506
824.669	25521
824.809	25609
824.949	25746
825.089	25548
825.228	25529
825.368	25354
825.508	25362
825.648	25430
825.787	25316
825.927	25426
826.067	25247
826.206	25377
826.346	25392
826.485	25396
826.625	25373
826.765	25327
826.904	25426
827.044	25244
827.183	25023
827.323	25091
827.462	25228
827.601	25206
827.741	25053
827.88	25129
828.02	24897
828.159	25042
828.298	25148
828.437	25061
828.577	25034
828.716	25225
828.855	25057
828.994	24905
829.134	24776
829.273	24749
829.412	24700
829.551	24711
829.69	24642
829.829	24806
829.968	24958
830.107	24852
830.246	24829
830.385	24711
830.524	24639
830.663	24776
830.802	24597
830.941	24342
831.08	24544
831.219	24540
831.357	24559
831.496	24707
831.635	24479
831.774	24304
831.913	24380
832.051	24224
832.19	24243
832.329	24304
832.467	24003
832.606	24087
832.744	24095
832.883	24106
833.022	24148
833.16	24140
833.299	24243
833.437	24182
833.576	24186
833.714	24140
833.852	24190
833.991	24197
834.129	24251
834.267	24232
834.406	24174
834.544	24178
834.682	24159
834.821	24041
834.959	24330
835.097	24129
835.235	24144
835.373	24133
835.511	24171
835.65	24026
835.788	24022
835.926	23794
836.064	23710
836.202	23813
836.34	23999
836.478	23965
836.615	23866
836.753	24076
836.891	24007
837.029	24026
837.167	23965
837.305	23973
837.443	23920
837.58	23863
837.718	23874
837.856	23851
837.993	23824
838.131	23707
838.269	23707
838.406	23714
838.544	23687
838.681	23627
838.819	23581
838.956	23326
839.094	23235
839.231	23360
839.369	23440
839.506	23680
839.643	23543
839.781	23299
839.918	23280
840.055	23395
840.193	23395
840.33	23189
840.467	23318
840.604	23299
840.742	23577
840.879	23071
841.016	23075
841.153	23159
841.29	23402
841.427	23395
841.564	23315
841.701	23296
841.838	23136
841.975	23170
842.112	23117
842.249	22896
842.385	23086
842.522	23204
842.659	23136
842.796	23105
842.933	22999
843.069	22957
843.206	23044
843.343	22976
843.479	22957
843.616	22961
843.752	22782
843.889	22774
844.025	23181
844.162	22687
844.298	22763
844.435	22759
844.571	22866
844.708	22782
844.844	22995
844.98	22873
845.117	22965
845.253	22797
845.389	22687
845.525	22660
845.661	22485
845.798	22603
845.934	22592
846.07	22489
846.206	22504
846.342	22527
846.478	22443
846.614	22348
846.75	22128
846.886	22306
847.022	22459
847.158	22261
847.294	22303
847.429	22356
847.565	22348
847.701	22428
847.837	22006
847.972	22013
848.108	22078
848.244	22002
848.379	21930
848.515	21850
848.65	21793
848.786	21907
848.921	21724
849.057	21922
849.192	21926
849.328	21922
849.463	21903
849.598	21804
849.734	21793
849.869	21751
850.004	21690
850.14	21583
850.275	21614
850.41	21473
850.545	21595
850.68	21469
850.815	21629
850.95	21549
851.085	21755
851.22	21732
851.355	21637
851.49	21614
851.625	21583
851.76	21564
851.895	21488
852.03	21648
852.165	21507
852.299	21625
852.434	21583
852.569	21720
852.703	21599
852.838	21599
852.973	21743
853.107	21705
853.242	21519
853.376	21450
853.511	21222
853.645	21382
853.78	21572
853.914	21416
854.048	21367
854.183	21359
854.317	21443
854.451	21564
854.585	21294
854.72	21458
854.854	21526
854.988	21310
855.122	21405
855.256	21443
855.39	21374
855.524	21435
855.658	21568
855.792	21435
855.926	21515
856.06	21504
856.194	21519
856.327	21458
856.461	21302
856.595	21462
856.729	21428
856.862	21488
856.996	21511
857.13	21374
857.263	21515
857.397	21603
857.53	21435
857.664	21431
857.797	21454
857.931	21504
858.064	21420
858.197	21568
858.331	21367
858.464	21294
858.597	21222
858.731	21351
858.864	21481
858.997	21462
859.13	21469
859.263	21435
859.396	21458
859.529	21454
859.662	21412
859.795	21405
859.928	21336
860.061	21622
860.194	21622
860.327	21538
860.46	21530
860.592	21637
860.725	21637
860.858	21526
860.99	21473
861.123	21382
861.256	21382
861.388	21412
861.521	22010
861.653	21302
861.786	21218
861.918	21306
862.05	21367
862.183	21302
862.315	21340
862.447	21348
862.58	21291
862.712	21017
862.844	21131
862.976	21184
863.108	21199
863.24	21424
863.372	21085
863.504	21146
863.636	21123
863.768	21157
863.9	21119
864.032	21176
864.164	21096
864.296	21173
864.428	21291
864.559	21268
864.691	21195
864.823	21131
864.954	21192
865.086	21222
865.217	21024
865.349	20937
865.48	21020
865.612	21173
865.743	21195
865.875	21169
866.006	20899
866.137	21024
866.269	21104
866.4	21093
866.531	21047
866.662	21013
866.793	20956
866.924	20998
867.055	21077
867.186	20929
867.317	20967
867.448	20914
867.579	20941
867.71	20944
867.841	21009
867.972	20967
868.103	21039
868.233	21020
868.364	21043
868.495	21116
868.625	21344
868.756	21302
868.886	21222
869.017	21336
869.147	21310
869.278	21428
869.408	21233
869.539	21192
869.669	21287
869.799	21294
869.929	21454
870.06	21279
870.19	21492
870.32	21443
870.45	21622
870.58	21610
870.71	21850
870.84	21633
870.97	21701
871.1	21549
871.23	21732
871.36	21869
871.489	21804
871.619	21762
871.749	21736
871.879	21857
872.008	21846
872.138	21842
872.267	21911
872.397	21641
872.526	21663
872.656	21618
872.785	21682
872.915	21774
873.044	21873
873.173	21892
873.303	21895
873.432	21991
873.561	22010
873.69	21755
873.819	21819
873.948	21930
874.077	21797
874.206	21846
874.335	21831
874.464	21956
874.593	22025
874.722	22048
874.851	22124
874.979	22021
875.108	22048
875.237	22093
875.365	21956
875.494	22021
875.623	22128
875.751	22021
875.88	22162
876.008	22188
876.136	22211
876.265	22478
876.393	22538
876.521	22455
876.65	22569
876.778	22550
876.906	22303
877.034	22371
877.162	22382
877.29	22493
877.418	22489
877.546	22428
877.674	22417
877.802	22462
877.93	22481
878.058	22440
878.185	22207
878.313	22375
878.441	22455
878.568	22219
878.696	22341
878.824	22474
878.951	22402
879.079	22573
879.206	22626
879.333	22618
879.461	22603
879.588	22436
879.715	22493
879.842	22687
879.97	22462
880.097	22226
880.224	22204
880.351	22379
880.478	22207
880.605	22150
880.732	22173
880.859	22622
880.986	22257
881.112	22261
881.239	22173
881.366	22021
881.493	21876
881.619	21911
881.746	21895
881.872	21915
881.999	21732
882.125	21808
882.252	21808
882.378	21774
882.505	21941
882.631	21599
882.757	21488
882.883	21603
883.01	21561
883.136	21534
883.262	21378
883.388	21389
883.514	21564
883.64	21500
883.766	21374
883.892	21317
884.018	21500
884.143	21561
884.269	21564
884.395	21207
884.52	21169
884.646	21260
884.772	21020
884.897	21135
885.023	21226
885.148	21195
885.274	21275
885.399	21321
885.524	21169
885.65	21199
885.775	21294
885.9	21081
886.025	21161
886.15	21161
886.275	21173
886.4	21009
886.525	21055
886.65	21096
886.775	21074
886.9	21310
887.025	21310
887.149	21043
887.274	21074
887.399	20990
887.523	21039
887.648	20914
887.773	20834
887.897	20975
888.021	20971
888.146	20902
888.27	21112
888.395	21081
888.519	20864
888.643	20952
888.767	20933
888.891	20899
889.015	20667
889.139	20735
889.263	20727
889.387	20826
889.511	20948
889.635	20883
889.759	20743
889.883	20743
890.006	20746
890.13	20796
890.254	20670
890.377	20678
890.501	20533
890.624	20457
890.748	20560
890.871	20298
890.995	20267
891.118	20263
891.241	20366
891.364	20339
891.488	20438
891.611	20298
891.734	20267
891.857	20355
891.98	20248
892.103	20332
892.226	20328
892.349	20248
892.471	20221
892.594	20138
892.717	20096
892.839	20317
892.962	20168
893.085	20221
893.207	20161
893.33	20065
893.452	20122
893.575	20111
893.697	20195
893.819	20305
893.941	20286
894.064	20240
894.186	20122
894.308	20008
894.43	20278
894.552	20358
894.674	20206
894.796	20142
894.918	20145
895.04	20069
895.161	20172
895.283	20256
895.405	20122
895.526	20161
895.648	20111
895.769	20161
895.891	20157
896.012	20301
896.134	20282
896.255	20248
896.376	20084
896.498	20259
896.619	20233
896.74	20237
896.861	20282
896.982	20484
897.103	20648
897.224	20415
897.345	20389
897.466	20393
897.587	20301
897.708	20571
897.828	20446
897.949	20290
898.07	20187
898.19	20358
898.311	20434
898.431	20282
898.552	20495
898.672	20446
898.792	20457
898.913	20305
899.033	20362
899.153	20103
899.273	20119
899.393	20176
899.513	20233
899.633	20084
899.753	20145
899.873	20115
899.993	20256
900.113	19989
900.232	20100
900.352	20081
900.472	20024
900.591	19879
900.711	19906
900.83	19967
900.95	20096
901.069	19982
901.189	19712
901.308	19552
901.427	19407
901.546	19533
901.665	19567
901.784	19396
901.904	19350
902.023	19377
902.141	19160
902.26	18962
902.379	19221
902.498	19137
902.617	18916
902.735	19072
902.854	18947
902.973	18802
903.091	18677
903.21	18764
903.328	18597
903.446	18669
903.565	18456
903.683	18483
903.801	18388
903.919	18437
904.038	18361
904.156	18251
904.274	18391
904.392	18205
904.51	18171
904.627	18171
904.745	18296
904.863	18319
904.981	18022
905.098	17878
905.216	17939
905.334	18011
905.451	17882
905.569	17874
905.686	17946
905.803	17923
905.921	17657
906.038	17733
906.155	17794
906.272	17589
906.389	17608
906.506	17501
906.623	17486
906.74	17448
906.857	17311
906.974	17330
907.091	17459
907.208	17566
907.324	17482
907.441	17303
907.557	17227
907.674	17136
907.79	17033
907.907	17200
908.023	17178
908.139	17197
908.256	17185
908.372	17189
908.488	17102
908.604	16892
908.72	16919
908.836	16987
908.952	16923
909.068	16934
909.184	17003
909.3	16839
909.415	16835
909.531	17018
909.647	16713
909.762	16622
909.878	16573
909.993	16660
910.108	16630
910.224	16580
910.339	16523
910.454	16436
910.57	16443
910.685	16303
910.8	16599
910.915	16535
911.03	16390
911.145	16215
911.259	16284
911.374	16143
911.489	16166
911.604	16029
911.718	16059
911.833	15960
911.947	15850
912.062	15816
912.176	15876
912.291	15873
912.405	15918
912.519	16063
912.633	16078
912.748	16059
912.862	15934
912.976	15846
913.09	15656
913.204	15724
913.318	15823
913.431	15907
913.545	15827
913.659	15835
913.772	15759
913.886	15557
914	15538
914.113	15595
914.226	15831
914.34	15606
914.453	15557
914.566	15625
914.68	15469
914.793	15401
914.906	15233
915.019	15123
915.132	15169
915.245	15142
915.358	15131
915.47	15195
915.583	15173
915.696	15203
915.809	15287
915.921	15287
916.034	15180
916.146	15036
916.259	15055
916.371	15165
916.483	15123
916.595	15077
916.708	15074
916.82	14986
916.932	15024
917.044	14998
917.156	14925
917.268	14788
917.38	14781
917.491	14750
917.603	14853
917.715	14834
917.826	14952
917.938	14686
918.049	14571
918.161	14712
918.272	15013
918.384	14800
918.495	14769
918.606	14594
918.717	14560
918.828	14594
918.939	14644
919.05	14480
919.161	14454
919.272	14408
919.383	14381
919.494	14594
919.604	14689
919.715	14575
919.826	14454
919.936	14465
920.047	14568
920.157	14575
920.267	14746
920.378	14507
920.488	14488
920.598	14724
920.708	14853
920.818	14663
920.928	14648
921.038	14727
921.148	14727
921.258	14511
921.368	14465
921.477	14229
921.587	14202
921.697	14164
921.806	14290
921.916	14134
922.025	13951
922.134	13925
922.244	13845
922.353	14001
922.462	13791
922.571	13715
922.68	13575
922.789	13594
922.898	13582
923.007	13502
923.116	13643
923.224	13586
923.333	13472
923.442	13343
923.55	13358
923.659	13430
923.767	13426
923.876	13377
923.984	13350
924.092	13278
924.201	13331
924.309	13213
924.417	13308
924.525	13179
924.633	13179
924.741	14195
924.849	13053
924.956	13236
925.064	13019
925.172	12890
925.279	12935
925.387	13053
925.494	12894
925.602	13072
925.709	13004
925.816	12875
925.924	12962
926.031	12970
926.138	12920
926.245	12943
926.352	12859
926.459	12878
926.566	13000
926.673	12844
926.779	12719
926.886	12692
926.993	12528
927.099	12559
927.206	12585
927.312	12509
927.419	12566
927.525	12566
927.631	12509
927.737	12486
927.843	12395
927.95	12304
928.056	12311
928.162	12384
928.267	12350
928.373	12966
928.479	12441
928.585	12232
928.69	12254
928.796	12273
928.901	12220
929.007	12015
929.112	12243
929.218	12178
929.323	12098
929.428	12007
929.533	12190
929.638	12045
929.743	12015
929.848	12057
929.953	11980
930.058	11920
930.163	11752
930.267	11779
930.372	11908
930.477	11779
930.581	12019
930.685	11805
930.79	11737
930.894	11661
930.998	11661
931.103	11688
931.207	11410
931.311	11406
931.415	11239
931.519	11006
931.623	11056
