Data from test_V78500241_2290.txt Node
Date: Fri Mar 25 15:25:48 CST 2022
User: usil
Spectrometer: V785-0024
Trigger mode: 0
Integration Time (sec): 4.000000E-1
Scans to average: 1
Nonlinearity correction enabled: false
Boxcar width: 0
Storing dark spectrum: false
XAxis mode: Wavelengths
Number of Pixels in Spectrum: 1024
>>>>>Begin Spectral Data<<<<<
801.071	27736
801.214	27644
801.356	27515
801.499	27435
801.641	27332
801.783	27180
801.926	27386
802.068	27332
802.211	27123
802.353	27192
802.496	27039
802.638	26944
802.78	26918
802.923	26929
803.065	27009
803.208	26796
803.35	26910
803.492	27070
803.635	27081
803.777	26944
803.919	27081
804.061	27370
804.204	27260
804.346	27089
804.488	27066
804.63	27184
804.773	26986
804.915	27138
805.057	27287
805.199	27036
805.341	27161
805.483	27264
805.626	27214
805.768	27180
805.91	27188
806.052	27378
806.194	27089
806.336	27431
806.478	27241
806.62	27226
806.762	27302
806.904	27641
807.046	27914
807.188	27656
807.33	27576
807.472	27793
807.614	27557
807.756	27705
807.898	27462
808.04	27439
808.182	27450
808.324	27485
808.465	27694
808.607	27751
808.749	27964
808.891	27800
809.033	28078
809.174	27975
809.316	27842
809.458	27766
809.6	27914
809.741	27907
809.883	28006
810.025	28124
810.166	28169
810.308	28082
810.45	28044
810.591	28112
810.733	27808
810.875	27823
811.016	27747
811.158	27728
811.299	27979
811.441	27960
811.582	28006
811.724	27983
811.865	27755
812.007	27804
812.148	27926
812.29	28025
812.431	27975
812.573	28211
812.714	28257
812.855	28428
812.997	28561
813.138	28611
813.279	28607
813.421	28375
813.562	28295
813.703	28112
813.845	28078
813.986	27823
814.127	27736
814.268	27679
814.41	27572
814.551	27591
814.692	27526
814.833	27587
814.974	27557
815.115	27485
815.256	27408
815.397	27561
815.539	27367
815.68	27523
815.821	27348
815.962	27283
816.103	27359
816.244	27268
816.385	27112
816.526	27192
816.666	27028
816.807	26834
816.948	27005
817.089	26887
817.23	26925
817.371	26815
817.512	26743
817.653	26800
817.793	26792
817.934	26724
818.075	26857
818.216	26815
818.356	26785
818.497	26613
818.638	26488
818.778	26560
818.919	26613
819.06	26720
819.2	26621
819.341	26735
819.481	26781
819.622	27043
819.762	27173
819.903	27051
820.043	26940
820.184	26998
820.324	26887
820.465	26971
820.605	26937
820.746	26769
820.886	26781
821.026	26876
821.167	26902
821.307	26975
821.447	26842
821.588	26609
821.728	26735
821.868	26461
822.008	26328
822.149	26271
822.289	26195
822.429	26050
822.569	25959
822.709	26008
822.849	25715
822.99	25860
823.13	25788
823.27	25681
823.41	25594
823.55	25472
823.69	25651
823.83	25651
823.97	25582
824.11	25445
824.25	25285
824.389	25487
824.529	25487
824.669	25396
824.809	25586
824.949	25502
825.089	25449
825.228	25575
825.368	25293
825.508	25282
825.648	25422
825.787	25175
825.927	25384
826.067	25316
826.206	25259
826.346	25358
826.485	25438
826.625	25263
826.765	25381
826.904	25301
827.044	25080
827.183	25069
827.323	24992
827.462	24928
827.601	25076
827.741	25008
827.88	25137
828.02	24844
828.159	25004
828.298	25088
828.437	25072
828.577	24924
828.716	25050
828.855	24981
828.994	24798
829.134	24730
829.273	24719
829.412	24772
829.551	24536
829.69	24665
829.829	24707
829.968	24791
830.107	24802
830.246	24658
830.385	24654
830.524	24635
830.663	24502
830.802	24460
830.941	24300
831.08	24205
831.219	24418
831.357	24448
831.496	24521
831.635	24327
831.774	24315
831.913	24186
832.051	24152
832.19	24053
832.329	24106
832.467	24057
832.606	23954
832.744	23958
832.883	24091
833.022	23965
833.16	24022
833.299	24060
833.437	23931
833.576	24091
833.714	23988
833.852	23988
833.991	24076
834.129	24117
834.267	24038
834.406	24011
834.544	24129
834.682	24049
834.821	24022
834.959	24121
835.097	24015
835.235	23977
835.373	24041
835.511	24030
835.65	23882
835.788	23931
835.926	23794
836.064	23809
836.202	23775
836.34	23931
836.478	23821
836.615	23874
836.753	23874
836.891	23969
837.029	23965
837.167	23729
837.305	23752
837.443	23741
837.58	23737
837.718	23817
837.856	23748
837.993	23615
838.131	23665
838.269	23570
838.406	23543
838.544	23570
838.681	23307
838.819	23410
838.956	23235
839.094	23246
839.231	23132
839.369	23356
839.506	23558
839.643	23395
839.781	23258
839.918	23014
840.055	23208
840.193	23140
840.33	23029
840.467	23029
840.604	23117
840.742	23246
840.879	23010
841.016	22961
841.153	22942
841.29	23197
841.427	23113
841.564	23048
841.701	23048
841.838	23128
841.975	23033
842.112	23006
842.249	22942
842.385	22896
842.522	23064
842.659	22889
842.796	22733
842.933	22911
843.069	22744
843.206	22786
843.343	22968
843.479	22858
843.616	22755
843.752	22538
843.889	22668
844.025	22748
844.162	22580
844.298	22725
844.435	22698
844.571	22569
844.708	22740
844.844	22782
844.98	22771
845.117	22668
845.253	22508
845.389	22405
845.525	22535
845.661	22481
845.798	22356
845.934	22417
846.07	22363
846.206	22394
846.342	22436
846.478	22318
846.614	22181
846.75	22097
846.886	22082
847.022	22059
847.158	22078
847.294	22124
847.429	22230
847.565	22150
847.701	22341
847.837	21911
847.972	21816
848.108	22029
848.244	21816
848.379	21720
848.515	21667
848.65	21701
848.786	21610
848.921	21690
849.057	21797
849.192	21743
849.328	21838
849.463	21606
849.598	21591
849.734	21469
849.869	21564
850.004	21458
850.14	21439
850.275	21359
850.41	21481
850.545	21405
850.68	21397
850.815	21557
850.95	21272
851.085	21644
851.22	21488
851.355	21378
851.49	21481
851.625	21458
851.76	21378
851.895	21351
852.03	21310
852.165	21549
852.299	21462
852.434	21526
852.569	21507
852.703	21382
852.838	21576
852.973	21549
853.107	21671
853.242	21329
853.376	21287
853.511	21100
853.645	21233
853.78	21378
853.914	21363
854.048	21214
854.183	21272
854.317	21485
854.451	21428
854.585	21275
854.72	21272
854.854	21233
854.988	21222
855.122	21252
855.256	21135
855.39	21302
855.524	21344
855.658	21363
855.792	21435
855.926	21294
856.06	21313
856.194	21313
856.327	21294
856.461	21264
856.595	21252
856.729	21291
856.862	21291
856.996	21355
857.13	21416
857.263	21382
857.397	21313
857.53	21306
857.664	21310
857.797	21264
857.931	21363
858.064	21310
858.197	21389
858.331	21313
858.464	21245
858.597	21112
858.731	21249
858.864	21123
858.997	21260
859.13	21306
859.263	21291
859.396	21279
859.529	21150
859.662	21161
859.795	21188
859.928	21180
860.061	21469
860.194	21420
860.327	21370
860.46	21272
860.592	21416
860.725	21386
860.858	21222
860.99	21264
861.123	21093
861.256	21256
861.388	21260
861.521	21911
861.653	21138
861.786	21055
861.918	21020
862.05	21169
862.183	21249
862.315	21043
862.447	21241
862.58	21241
862.712	21047
862.844	20986
862.976	20975
863.108	21043
863.24	21302
863.372	20868
863.504	21036
863.636	20948
863.768	21150
863.9	20902
864.032	20910
864.164	20899
864.296	21009
864.428	20963
864.559	21100
864.691	21055
864.823	20925
864.954	20941
865.086	20941
865.217	20963
865.349	20735
865.48	20819
865.612	20800
865.743	21047
865.875	20826
866.006	20705
866.137	20918
866.269	20845
866.4	20853
866.531	20830
866.662	20826
866.793	20746
866.924	20746
867.055	20739
867.186	20834
867.317	20800
867.448	20739
867.579	20876
867.71	20689
867.841	20769
867.972	20781
868.103	20826
868.233	20823
868.364	20754
868.495	20902
868.625	21028
868.756	21108
868.886	20899
869.017	21070
869.147	21268
869.278	21081
869.408	21017
869.539	21036
869.669	21081
869.799	21093
869.929	21237
870.06	21146
870.19	21245
870.32	21256
870.45	21298
870.58	21450
870.71	21583
870.84	21443
870.97	21511
871.1	21412
871.23	21618
871.36	21686
871.489	21511
871.619	21644
871.749	21682
871.879	21549
872.008	21698
872.138	21701
872.267	21591
872.397	21523
872.526	21583
872.656	21504
872.785	21447
872.915	21698
873.044	21800
873.173	21568
873.303	21743
873.432	21633
873.561	21739
873.69	21713
873.819	21572
873.948	21736
874.077	21656
874.206	21682
874.335	21720
874.464	21747
874.593	21800
874.722	21903
874.851	21960
874.979	21918
875.108	21850
875.237	21732
875.365	21808
875.494	21953
875.623	21956
875.751	21793
875.88	21956
876.008	21922
876.136	21968
876.265	22287
876.393	22417
876.521	22341
876.65	22390
876.778	22379
876.906	22249
877.034	22223
877.162	22238
877.29	22257
877.418	22261
877.546	22284
877.674	22257
877.802	22238
877.93	22268
878.058	22143
878.185	21975
878.313	22116
878.441	22188
878.568	22013
878.696	22166
878.824	22272
878.951	22421
879.079	22375
879.206	22531
879.333	22367
879.461	22341
879.588	22284
879.715	22500
879.842	22607
879.97	22303
880.097	22196
880.224	22067
880.351	22253
880.478	22032
880.605	21892
880.732	22070
880.859	22352
880.986	21934
881.112	22070
881.239	21960
881.366	21797
881.493	21747
881.619	21717
881.746	21800
881.872	21660
881.999	21736
882.125	21557
882.252	21789
882.378	21580
882.505	21774
882.631	21431
882.757	21359
882.883	21310
883.01	21348
883.136	21256
883.262	21180
883.388	21089
883.514	21302
883.64	21359
883.766	21119
883.892	21165
884.018	21131
884.143	21226
884.269	21378
884.395	21039
884.52	20994
884.646	21062
884.772	20948
884.897	20910
885.023	20914
885.148	21017
885.274	21112
885.399	21173
885.524	21001
885.65	20990
885.775	21020
885.9	20998
886.025	21074
886.15	21074
886.275	20872
886.4	20963
886.525	20948
886.65	20830
886.775	20796
886.9	21020
887.025	21161
887.149	20967
887.274	20720
887.399	20788
887.523	20712
887.648	20644
887.773	20735
887.897	20765
888.021	20823
888.146	20724
888.27	20819
888.395	20971
888.519	20701
888.643	20697
888.767	20762
888.891	20731
889.015	20629
889.139	20552
889.263	20457
889.387	20648
889.511	20769
889.635	20682
889.759	20530
889.883	20484
890.006	20568
890.13	20682
890.254	20609
890.377	20419
890.501	20446
890.624	20237
890.748	20332
890.871	20206
890.995	20134
891.118	20031
891.241	20149
891.364	20237
891.488	20320
891.611	20210
891.734	20088
891.857	20225
891.98	20134
892.103	20206
892.226	20187
892.349	20096
892.471	20043
892.594	20069
892.717	19993
892.839	20031
892.962	20096
893.085	20107
893.207	20081
893.33	19921
893.452	19970
893.575	20134
893.697	20115
893.819	20301
893.941	20332
894.064	20187
894.186	20001
894.308	19917
894.43	20195
894.552	20313
894.674	20126
894.796	19917
894.918	19947
895.04	19947
895.161	20039
895.283	20122
895.405	20073
895.526	20005
895.648	20043
895.769	20001
895.891	20107
896.012	20027
896.134	20092
896.255	19989
896.376	19970
896.498	20062
896.619	20119
896.74	20130
896.861	20088
896.982	20404
897.103	20609
897.224	20187
897.345	20320
897.466	20240
897.587	20305
897.708	20389
897.828	20317
897.949	20180
898.07	20054
898.19	20225
898.311	20336
898.431	20244
898.552	20237
898.672	20332
898.792	20256
898.913	20313
899.033	20206
899.153	20107
899.273	19932
899.393	20035
899.513	19887
899.633	20039
899.753	20115
899.873	19940
899.993	20065
900.113	19963
900.232	19913
900.352	20005
900.472	19871
900.591	19822
900.711	19837
900.83	19689
900.95	19860
901.069	19890
901.189	19620
901.308	19491
901.427	19339
901.546	19350
901.665	19400
901.784	19354
901.904	19232
902.023	19179
902.141	19000
902.26	18817
902.379	18920
902.498	18973
902.617	18856
902.735	18856
902.854	18977
902.973	18875
903.091	18597
903.21	18574
903.328	18616
903.446	18483
903.565	18277
903.683	18422
903.801	18311
903.919	18357
904.038	18323
904.156	18136
904.274	18209
904.392	18182
904.51	18148
904.627	18155
904.745	18239
904.863	18079
904.981	17961
905.098	17870
905.216	17874
905.334	17813
905.451	17767
905.569	17676
905.686	17828
905.803	17790
905.921	17638
906.038	17646
906.155	17687
906.272	17493
906.389	17516
906.506	17398
906.623	17471
906.74	17337
906.857	17216
906.974	17303
907.091	17368
907.208	17414
907.324	17444
907.441	17231
907.557	17132
907.674	17075
907.79	16999
907.907	17094
908.023	17075
908.139	17136
908.256	16946
908.372	16949
908.488	16915
908.604	16816
908.72	16816
908.836	16733
908.952	16744
909.068	16881
909.184	16824
909.3	16812
909.415	16763
909.531	16748
909.647	16508
909.762	16508
909.878	16504
909.993	16417
910.108	16443
910.224	16542
910.339	16466
910.454	16363
910.57	16310
910.685	16131
910.8	16561
910.915	16478
911.03	16223
911.145	16112
911.259	16090
911.374	16166
911.489	15979
911.604	15975
911.718	15793
911.833	15846
911.947	15690
912.062	15629
912.176	15911
912.291	15755
912.405	15686
912.519	15956
912.633	15979
912.748	15854
912.862	15857
912.976	15614
913.09	15564
913.204	15637
913.318	15709
913.431	15732
913.545	15633
913.659	15770
913.772	15572
913.886	15500
914	15454
914.113	15511
914.226	15599
914.34	15549
914.453	15348
914.566	15504
914.68	15340
914.793	15302
914.906	15116
915.019	15131
915.132	14982
915.245	14967
915.358	15119
915.47	15043
915.583	15043
915.696	15081
915.809	15104
915.921	15150
916.034	14982
916.146	14906
916.259	14982
916.371	15081
916.483	14937
916.595	14861
916.708	15005
916.82	14861
916.932	14887
917.044	14868
917.156	14769
917.268	14708
917.38	14781
917.491	14743
917.603	14655
917.715	14792
917.826	14792
917.938	14686
918.049	14556
918.161	14659
918.272	14826
918.384	14720
918.495	14686
918.606	14564
918.717	14396
918.828	14552
918.939	14602
919.05	14389
919.161	14549
919.272	14389
919.383	14275
919.494	14492
919.604	14708
919.715	14476
919.826	14377
919.936	14377
920.047	14434
920.157	14404
920.267	14507
920.378	14503
920.488	14366
920.598	14590
920.708	14743
920.818	14587
920.928	14564
921.038	14644
921.148	14743
921.258	14442
921.368	14263
921.477	14138
921.587	14210
921.697	14058
921.806	14142
921.916	14119
922.025	13936
922.134	13993
922.244	13715
922.353	13765
922.462	13734
922.571	13559
922.68	13495
922.789	13422
922.898	13472
923.007	13388
923.116	13392
923.224	13510
923.333	13487
923.442	13304
923.55	13221
923.659	13304
923.767	13327
923.876	13175
923.984	13400
924.092	13213
924.201	13244
924.309	13198
924.417	13145
924.525	13076
924.633	13133
924.741	13830
924.849	12954
924.956	13038
925.064	12867
925.172	12825
925.279	12783
925.387	12909
925.494	12859
925.602	13103
925.709	12924
925.816	12844
925.924	12791
926.031	12939
926.138	12840
926.245	12886
926.352	12684
926.459	12859
926.566	12913
926.673	12738
926.779	12604
926.886	12627
926.993	12452
927.099	12471
927.206	12422
927.312	12464
927.419	12437
927.525	12475
927.631	12445
927.737	12338
927.843	12281
927.95	12197
928.056	12232
928.162	12235
928.267	12296
928.373	12802
928.479	12361
928.585	12030
928.69	12220
928.796	12205
928.901	12163
929.007	11999
929.112	12076
929.218	12045
929.323	12007
929.428	12057
929.533	12003
929.638	11931
929.743	11954
929.848	11901
929.953	11977
930.058	11878
930.163	11707
930.267	11767
930.372	11863
930.477	11653
930.581	11836
930.685	11703
930.79	11615
930.894	11547
930.998	11539
931.103	11691
931.207	11360
931.311	11201
931.415	11181
931.519	10911
931.623	10900
