Data from test_V78500241_2474.txt Node
Date: Fri Mar 25 15:27:05 CST 2022
User: usil
Spectrometer: V785-0024
Trigger mode: 0
Integration Time (sec): 4.000000E-1
Scans to average: 1
Nonlinearity correction enabled: false
Boxcar width: 0
Storing dark spectrum: false
XAxis mode: Wavelengths
Number of Pixels in Spectrum: 1024
>>>>>Begin Spectral Data<<<<<
801.071	27157
801.214	27127
801.356	26834
801.499	26746
801.641	26697
801.783	26541
801.926	26682
802.068	26697
802.211	26594
802.353	26484
802.496	26199
802.638	26263
802.78	26218
802.923	26176
803.065	26103
803.208	26180
803.35	26237
803.492	26473
803.635	26442
803.777	26358
803.919	26389
804.061	26800
804.204	26511
804.346	26450
804.488	26358
804.63	26446
804.773	26278
804.915	26564
805.057	26625
805.199	26301
805.341	26507
805.483	26613
805.626	26533
805.768	26492
805.91	26511
806.052	26514
806.194	26522
806.336	26693
806.478	26457
806.62	26609
806.762	26746
806.904	26830
807.046	27089
807.188	26937
807.33	27005
807.472	26998
807.614	26929
807.756	26925
807.898	26853
808.04	26830
808.182	26804
808.324	26864
808.465	26842
808.607	27028
808.749	27131
808.891	27180
809.033	27287
809.174	27123
809.316	27127
809.458	27055
809.6	27032
809.741	27169
809.883	27306
810.025	27336
810.166	27287
810.308	27348
810.45	27561
810.591	27325
810.733	27089
810.875	27119
811.016	27043
811.158	27123
811.299	27306
811.441	27412
811.582	27272
811.724	27214
811.865	27294
812.007	27089
812.148	27131
812.29	27131
812.431	27332
812.573	27237
812.714	27485
812.855	27599
812.997	27667
813.138	27819
813.279	27686
813.421	27587
813.562	27553
813.703	27401
813.845	27218
813.986	27013
814.127	26857
814.268	26705
814.41	26861
814.551	26678
814.692	26731
814.833	26644
814.974	26762
815.115	26937
815.256	26670
815.397	26545
815.539	26655
815.68	26423
815.821	26377
815.962	26617
816.103	26488
816.244	26514
816.385	26301
816.526	26191
816.666	26119
816.807	25974
816.948	26096
817.089	26043
817.23	26111
817.371	25959
817.512	26050
817.653	26092
817.793	25940
817.934	26020
818.075	26138
818.216	26050
818.356	25982
818.497	25928
818.638	25925
818.778	25803
818.919	25807
819.06	25826
819.2	25871
819.341	26100
819.481	26153
819.622	26256
819.762	26385
819.903	26248
820.043	26157
820.184	26214
820.324	26172
820.465	26103
820.605	26065
820.746	26100
820.886	25989
821.026	26107
821.167	26145
821.307	26218
821.447	25989
821.588	25879
821.728	25723
821.868	25662
822.008	25590
822.149	25483
822.289	25499
822.429	25209
822.569	25171
822.709	25160
822.849	25061
822.99	25091
823.13	25103
823.27	24939
823.41	24787
823.55	24795
823.69	24764
823.83	24886
823.97	24719
824.11	24646
824.25	24582
824.389	24642
824.529	24741
824.669	24593
824.809	24730
824.949	24639
825.089	24776
825.228	24772
825.368	24479
825.508	24486
825.648	24559
825.787	24532
825.927	24532
826.067	24525
826.206	24570
826.346	24570
826.485	24525
826.625	24505
826.765	24593
826.904	24616
827.044	24296
827.183	24220
827.323	24228
827.462	24296
827.601	24174
827.741	24205
827.88	24152
828.02	24159
828.159	24144
828.298	24136
828.437	24277
828.577	24102
828.716	24365
828.855	24068
828.994	23973
829.134	23889
829.273	24011
829.412	23836
829.551	23817
829.69	23878
829.829	23946
829.968	24117
830.107	23908
830.246	23969
830.385	23836
830.524	23767
830.663	23653
830.802	23649
830.941	23589
831.08	23566
831.219	23627
831.357	23699
831.496	23794
831.635	23592
831.774	23448
831.913	23364
832.051	23345
832.19	23303
832.329	23330
832.467	23273
832.606	23159
832.744	23189
832.883	23231
833.022	23067
833.16	23170
833.299	23185
833.437	23200
833.576	23452
833.714	23231
833.852	23315
833.991	23269
834.129	23341
834.267	23322
834.406	23277
834.544	23296
834.682	23220
834.821	23231
834.959	23341
835.097	23315
835.235	23318
835.373	23235
835.511	23166
835.65	23208
835.788	23140
835.926	23132
836.064	22862
836.202	23010
836.34	23121
836.478	23258
836.615	23159
836.753	23193
836.891	23280
837.029	23242
837.167	23102
837.305	23018
837.443	23083
837.58	22999
837.718	23048
837.856	23014
837.993	22923
838.131	22869
838.269	22873
838.406	22877
838.544	22854
838.681	22713
838.819	22611
838.956	22592
839.094	22478
839.231	22592
839.369	22710
839.506	22976
839.643	22774
839.781	22428
839.918	22436
840.055	22508
840.193	22413
840.33	22417
840.467	22519
840.604	22474
840.742	22797
840.879	22531
841.016	22295
841.153	22409
841.29	22417
841.427	22462
841.564	22379
841.701	22485
841.838	22249
841.975	22234
842.112	22462
842.249	22284
842.385	22337
842.522	22413
842.659	22295
842.796	22158
842.933	22230
843.069	22223
843.206	22139
843.343	22265
843.479	22162
843.616	22200
843.752	22063
843.889	21949
844.025	22048
844.162	21987
844.298	22055
844.435	21926
844.571	21918
844.708	22074
844.844	22093
844.98	22166
845.117	22093
845.253	21922
845.389	21869
845.525	21975
845.661	21625
845.798	21778
845.934	21812
846.07	21667
846.206	21736
846.342	21759
846.478	21595
846.614	21481
846.75	21233
846.886	21378
847.022	21492
847.158	21530
847.294	21386
847.429	21477
847.565	21488
847.701	21629
847.837	21150
847.972	21146
848.108	21214
848.244	21203
848.379	21112
848.515	20845
848.65	20998
848.786	20963
848.921	21112
849.057	21077
849.192	21096
849.328	20952
849.463	20925
849.598	20887
849.734	21001
849.869	20853
850.004	20788
850.14	20830
850.275	20823
850.41	20689
850.545	20606
850.68	20678
850.815	20853
850.95	20777
851.085	21013
851.22	20891
851.355	20842
851.49	20769
851.625	20815
851.76	20796
851.895	20670
852.03	20746
852.165	20811
852.299	20819
852.434	20823
852.569	20845
852.703	20746
852.838	20769
852.973	20880
853.107	20910
853.242	20815
853.376	20636
853.511	20568
853.645	20545
853.78	20651
853.914	20689
854.048	20575
854.183	20533
854.317	20575
854.451	20727
854.585	20545
854.72	20583
854.854	20537
854.988	20495
855.122	20632
855.256	20507
855.39	20621
855.524	20667
855.658	20697
855.792	20670
855.926	20625
856.06	20590
856.194	20659
856.327	20533
856.461	20571
856.595	20522
856.729	20495
856.862	20785
856.996	20568
857.13	20697
857.263	20769
857.397	20587
857.53	20556
857.664	20564
857.797	20594
857.931	20655
858.064	20587
858.197	20735
858.331	20492
858.464	20499
858.597	20442
858.731	20594
858.864	20636
858.997	20541
859.13	20511
859.263	20571
859.396	20796
859.529	20571
859.662	20632
859.795	20575
859.928	20674
860.061	20731
860.194	20849
860.327	20587
860.46	20712
860.592	20701
860.725	20849
860.858	20735
860.99	20511
861.123	20518
861.256	20549
861.388	20670
861.521	21195
861.653	20499
861.786	20294
861.918	20503
862.05	20446
862.183	20499
862.315	20621
862.447	20743
862.58	20533
862.712	20358
862.844	20286
862.976	20423
863.108	20385
863.24	20804
863.372	20351
863.504	20366
863.636	20355
863.768	20328
863.9	20336
864.032	20282
864.164	20305
864.296	20298
864.428	20404
864.559	20362
864.691	20446
864.823	20309
864.954	20263
865.086	20240
865.217	20256
865.349	20122
865.48	20195
865.612	20298
865.743	20305
865.875	20332
866.006	20183
866.137	20275
866.269	20073
866.4	20195
866.531	20122
866.662	20218
866.793	20278
866.924	20073
867.055	20202
867.186	20191
867.317	20180
867.448	20054
867.579	20161
867.71	20054
867.841	20145
867.972	20153
868.103	20126
868.233	20161
868.364	20176
868.495	20358
868.625	20415
868.756	20503
868.886	20320
869.017	20412
869.147	20514
869.278	20530
869.408	20396
869.539	20336
869.669	20469
869.799	20556
869.929	20606
870.06	20484
870.19	20743
870.32	20705
870.45	20762
870.58	20834
870.71	20842
870.84	20899
870.97	20773
871.1	20823
871.23	20998
871.36	20921
871.489	20876
871.619	20887
871.749	20891
871.879	21032
872.008	21161
872.138	21001
872.267	20933
872.397	20861
872.526	20762
872.656	20819
872.785	20838
872.915	21123
873.044	21070
873.173	21062
873.303	21123
873.432	21138
873.561	21062
873.69	20952
873.819	21024
873.948	21252
874.077	21047
874.206	20952
874.335	21043
874.464	21188
874.593	21306
874.722	21237
874.851	21275
874.979	21226
875.108	21363
875.237	21142
875.365	21085
875.494	21306
875.623	21393
875.751	21272
875.88	21291
876.008	21420
876.136	21477
876.265	21663
876.393	21831
876.521	21861
876.65	21869
876.778	21625
876.906	21644
877.034	21576
877.162	21778
877.29	21614
877.418	21648
877.546	21686
877.674	21633
877.802	21519
877.93	21652
878.058	21629
878.185	21485
878.313	21545
878.441	21591
878.568	21435
878.696	21576
878.824	21595
878.951	21728
879.079	21709
879.206	21895
879.333	21812
879.461	21614
879.588	21743
879.715	21812
879.842	21884
879.97	21633
880.097	21504
880.224	21511
880.351	21500
880.478	21466
880.605	21435
880.732	21458
880.859	21781
880.986	21492
881.112	21553
881.239	21389
881.366	21157
881.493	21131
881.619	21066
881.746	21096
881.872	21047
881.999	21081
882.125	21005
882.252	21138
882.378	21104
882.505	21161
882.631	20921
882.757	20811
882.883	20804
883.01	20800
883.136	20735
883.262	20674
883.388	20621
883.514	20788
883.64	20845
883.766	20712
883.892	20590
884.018	20541
884.143	20674
884.269	20811
884.395	20484
884.52	20427
884.646	20469
884.772	20419
884.897	20339
885.023	20400
885.148	20609
885.274	20590
885.399	20454
885.524	20484
885.65	20381
885.775	20511
885.9	20442
886.025	20552
886.15	20358
886.275	20309
886.4	20256
886.525	20446
886.65	20442
886.775	20309
886.9	20549
887.025	20644
887.149	20351
887.274	20225
887.399	20244
887.523	20256
887.648	20195
887.773	20096
887.897	20294
888.021	20244
888.146	20164
888.27	20298
888.395	20294
888.519	20244
888.643	20271
888.767	20317
888.891	20149
889.015	20005
889.139	20084
889.263	19928
889.387	20206
889.511	20130
889.635	20081
889.759	20016
889.883	19925
890.006	20138
890.13	20031
890.254	19993
890.377	19959
890.501	19791
890.624	19750
890.748	19750
890.871	19597
890.995	19624
891.118	19613
891.241	19674
891.364	19666
891.488	19746
891.611	19578
891.734	19491
891.857	19590
891.98	19719
892.103	19647
892.226	19655
892.349	19571
892.471	19491
892.594	19563
892.717	19601
892.839	19445
892.962	19506
893.085	19655
893.207	19403
893.33	19350
893.452	19407
893.575	19594
893.697	19495
893.819	19689
893.941	19769
894.064	19708
894.186	19460
894.308	19350
894.43	19403
894.552	19624
894.674	19495
894.796	19571
894.918	19483
895.04	19464
895.161	19613
895.283	19514
895.405	19438
895.526	19586
895.648	19594
895.769	19510
895.891	19514
896.012	19537
896.134	19651
896.255	19601
896.376	19407
896.498	19533
896.619	19632
896.74	19575
896.861	19556
896.982	19879
897.103	19967
897.224	19772
897.345	19685
897.466	19620
897.587	19791
897.708	19932
897.828	19727
897.949	19651
898.07	19700
898.19	19590
898.311	19864
898.431	19769
898.552	19811
898.672	19791
898.792	19811
898.913	19856
899.033	19704
899.153	19556
899.273	19468
899.393	19487
899.513	19514
899.633	19510
899.753	19544
899.873	19426
899.993	19430
900.113	19464
900.232	19506
900.352	19419
900.472	19339
900.591	19316
900.711	19289
900.83	19289
900.95	19403
901.069	19327
901.189	19110
901.308	18909
901.427	19019
901.546	18897
901.665	18939
901.784	18871
901.904	18726
902.023	18654
902.141	18483
902.26	18490
902.379	18475
902.498	18376
902.617	18361
902.735	18494
902.854	18334
902.973	18300
903.091	18201
903.21	18140
903.328	18057
903.446	17996
903.565	17847
903.683	17897
903.801	17703
903.919	17783
904.038	17783
904.156	17604
904.274	17817
904.392	17752
904.51	17600
904.627	17767
904.745	17794
904.863	17726
904.981	17452
905.098	17433
905.216	17360
905.334	17429
905.451	17421
905.569	17315
905.686	17292
905.803	17296
905.921	17105
906.038	17216
906.155	17181
906.272	17022
906.389	16995
906.506	16908
906.623	16953
906.74	16919
906.857	16831
906.974	16797
907.091	16908
907.208	16995
907.324	16801
907.441	16797
907.557	16675
907.674	16558
907.79	16516
907.907	16637
908.023	16569
908.139	16596
908.256	16611
908.372	16394
908.488	16508
908.604	16405
908.72	16363
908.836	16360
908.952	16314
909.068	16386
909.184	16462
909.3	16379
909.415	16405
909.531	16325
909.647	16116
909.762	16067
909.878	16051
909.993	16154
910.108	16029
910.224	16067
910.339	16067
910.454	15892
910.57	15907
910.685	15781
910.8	16128
910.915	15994
911.03	15941
911.145	15705
911.259	15618
911.374	15591
911.489	15572
911.604	15469
911.718	15428
911.833	15469
911.947	15420
912.062	15279
912.176	15519
912.291	15507
912.405	15526
912.519	15625
912.633	15648
912.748	15481
912.862	15329
912.976	15264
913.09	15203
913.204	15203
913.318	15252
913.431	15340
913.545	15348
913.659	15382
913.772	15119
913.886	15047
914	15081
914.113	15142
914.226	15116
914.34	15039
914.453	14880
914.566	15089
914.68	14948
914.793	14883
914.906	14746
915.019	14724
915.132	14640
915.245	14659
915.358	14663
915.47	14762
915.583	14598
915.696	14701
915.809	14758
915.921	14773
916.034	14568
916.146	14530
916.259	14590
916.371	14587
916.483	14560
916.595	14480
916.708	14518
916.82	14488
916.932	14511
917.044	14438
917.156	14419
917.268	14332
917.38	14301
917.491	14355
917.603	14275
917.715	14339
917.826	14434
917.938	14233
918.049	14153
918.161	14225
918.272	14438
918.384	14389
918.495	14275
918.606	14221
918.717	14126
918.828	14111
918.939	14107
919.05	13932
919.161	14062
919.272	13936
919.383	14012
919.494	14111
919.604	14275
919.715	14103
919.826	13974
919.936	14054
920.047	14161
920.157	14062
920.267	14252
920.378	14103
920.488	13986
920.598	14168
920.708	14290
920.818	14153
920.928	14180
921.038	14290
921.148	14355
921.258	14016
921.368	13932
921.477	13849
921.587	13742
921.697	13651
921.806	13883
921.916	13776
922.025	13548
922.134	13586
922.244	13483
922.353	13499
922.462	13377
922.571	13312
922.68	13160
922.789	13190
922.898	13042
923.007	13065
923.116	13206
923.224	13114
923.333	13103
923.442	12954
923.55	12928
923.659	12985
923.767	13034
923.876	12905
923.984	12973
924.092	12810
924.201	12897
924.309	12897
924.417	12859
924.525	12810
924.633	12779
924.741	13639
924.849	12544
924.956	12795
925.064	12498
925.172	12464
925.279	12532
925.387	12642
925.494	12627
925.602	12692
925.709	12616
925.816	12388
925.924	12475
926.031	12509
926.138	12433
926.245	12574
926.352	12403
926.459	12570
926.566	12448
926.673	12445
926.779	12243
926.886	12300
926.993	12216
927.099	12125
927.206	12095
927.312	12110
927.419	12281
927.525	12064
927.631	12133
927.737	11980
927.843	11939
927.95	11836
928.056	11904
928.162	12007
928.267	12022
928.373	12604
928.479	12007
928.585	11813
928.69	11988
928.796	11942
928.901	11847
929.007	11649
929.112	11790
929.218	11824
929.323	11775
929.428	11672
929.533	11840
929.638	11585
929.743	11657
929.848	11665
929.953	11668
930.058	11524
930.163	11493
930.267	11387
930.372	11581
930.477	11360
930.581	11463
930.685	11478
930.79	11254
930.894	11273
930.998	11315
931.103	11341
931.207	11029
931.311	10987
931.415	10889
931.519	10687
931.623	10603
