Data from test_V78500241_2411.txt Node
Date: Fri Mar 25 15:26:38 CST 2022
User: usil
Spectrometer: V785-0024
Trigger mode: 0
Integration Time (sec): 4.000000E-1
Scans to average: 1
Nonlinearity correction enabled: false
Boxcar width: 0
Storing dark spectrum: false
XAxis mode: Wavelengths
Number of Pixels in Spectrum: 1024
>>>>>Begin Spectral Data<<<<<
801.071	27256
801.214	27036
801.356	26895
801.499	26960
801.641	26743
801.783	26727
801.926	26705
802.068	26739
802.211	26488
802.353	26549
802.496	26301
802.638	26385
802.78	26366
802.923	26332
803.065	26237
803.208	26134
803.35	26317
803.492	26393
803.635	26427
803.777	26415
803.919	26495
804.061	26804
804.204	26473
804.346	26431
804.488	26473
804.63	26568
804.773	26336
804.915	26530
805.057	26606
805.199	26423
805.341	26533
805.483	26655
805.626	26587
805.768	26446
805.91	26629
806.052	26545
806.194	26511
806.336	26819
806.478	26552
806.62	26621
806.762	26625
806.904	26857
807.046	27119
807.188	26986
807.33	26982
807.472	27009
807.614	26906
807.756	26804
807.898	26834
808.04	26735
808.182	26868
808.324	26925
808.465	26902
808.607	27119
808.749	27108
808.891	27279
809.033	27313
809.174	27317
809.316	27123
809.458	27161
809.6	26967
809.741	27336
809.883	27256
810.025	27466
810.166	27553
810.308	27466
810.45	27340
810.591	27233
810.733	27211
810.875	27112
811.016	27081
811.158	26929
811.299	27222
811.441	27279
811.582	27283
811.724	27260
811.865	27047
812.007	27089
812.148	27195
812.29	27154
812.431	27382
812.573	27603
812.714	27713
812.855	27622
812.997	27831
813.138	27937
813.279	27770
813.421	27648
813.562	27591
813.703	27386
813.845	27302
813.986	27032
814.127	26834
814.268	26929
814.41	26868
814.551	26796
814.692	26899
814.833	26739
814.974	26826
815.115	26800
815.256	26689
815.397	26731
815.539	26644
815.68	26598
815.821	26609
815.962	26682
816.103	26511
816.244	26453
816.385	26408
816.526	26457
816.666	26142
816.807	25997
816.948	26176
817.089	26149
817.23	26115
817.371	26084
817.512	26077
817.653	26115
817.793	26058
817.934	25997
818.075	26240
818.216	26111
818.356	26077
818.497	25963
818.638	25708
818.778	25822
818.919	25849
819.06	26008
819.2	25932
819.341	25989
819.481	26016
819.622	26191
819.762	26408
819.903	26275
820.043	26214
820.184	26210
820.324	26122
820.465	26199
820.605	26263
820.746	26187
820.886	25966
821.026	26202
821.167	26016
821.307	26221
821.447	26084
821.588	25883
821.728	25784
821.868	25521
822.008	25624
822.149	25655
822.289	25540
822.429	25221
822.569	25331
822.709	25289
822.849	25072
822.99	24947
823.13	25110
823.27	25088
823.41	24928
823.55	24806
823.69	24806
823.83	24821
823.97	24795
824.11	24639
824.25	24692
824.389	24475
824.529	24798
824.669	24509
824.809	24711
824.949	24817
825.089	24821
825.228	24760
825.368	24604
825.508	24589
825.648	24532
825.787	24547
825.927	24623
826.067	24483
826.206	24467
826.346	24467
826.485	24639
826.625	24589
826.765	24612
826.904	24589
827.044	24327
827.183	24239
827.323	24228
827.462	24232
827.601	24224
827.741	24304
827.88	24247
828.02	24167
828.159	24117
828.298	24235
828.437	24311
828.577	24186
828.716	24403
828.855	24182
828.994	23958
829.134	23904
829.273	23999
829.412	23980
829.551	23802
829.69	24083
829.829	24136
829.968	24091
830.107	24087
830.246	23946
830.385	23828
830.524	23996
830.663	23729
830.802	23596
830.941	23657
831.08	23539
831.219	23531
831.357	23490
831.496	23737
831.635	23608
831.774	23573
831.913	23486
832.051	23459
832.19	23398
832.329	23387
832.467	23227
832.606	23121
832.744	23227
832.883	23181
833.022	23197
833.16	23121
833.299	23265
833.437	23288
833.576	23322
833.714	23349
833.852	23383
833.991	23223
834.129	23486
834.267	23417
834.406	23379
834.544	23284
834.682	23303
834.821	23398
834.959	23459
835.097	23376
835.235	23368
835.373	23258
835.511	23277
835.65	23109
835.788	23200
835.926	23159
836.064	22930
836.202	23117
836.34	23258
836.478	23220
836.615	23109
836.753	23174
836.891	23239
837.029	23250
837.167	23143
837.305	23067
837.443	23006
837.58	23037
837.718	23060
837.856	23216
837.993	22896
838.131	22957
838.269	22843
838.406	22957
838.544	22801
838.681	22603
838.819	22672
838.956	22535
839.094	22516
839.231	22523
839.369	22755
839.506	22850
839.643	22702
839.781	22512
839.918	22371
840.055	22455
840.193	22424
840.33	22382
840.467	22531
840.604	22413
840.742	22694
840.879	22344
841.016	22352
841.153	22303
841.29	22527
841.427	22504
841.564	22519
841.701	22333
841.838	22272
841.975	22200
842.112	22284
842.249	22280
842.385	22177
842.522	22398
842.659	22382
842.796	22158
842.933	22120
843.069	22070
843.206	22166
843.343	22310
843.479	22158
843.616	22139
843.752	21975
843.889	21884
844.025	22120
844.162	21998
844.298	22116
844.435	21888
844.571	21842
844.708	22109
844.844	22070
844.98	22188
845.117	22025
845.253	21804
845.389	21854
845.525	21865
845.661	21865
845.798	21682
845.934	21663
846.07	21629
846.206	21732
846.342	21857
846.478	21652
846.614	21466
846.75	21386
846.886	21405
847.022	21561
847.158	21412
847.294	21428
847.429	21466
847.565	21443
847.701	21610
847.837	21127
847.972	21241
848.108	21211
848.244	21298
848.379	21051
848.515	21089
848.65	21116
848.786	21119
848.921	21066
849.057	21169
849.192	21077
849.328	21085
849.463	20952
849.598	21028
849.734	20956
849.869	20952
850.004	20712
850.14	20864
850.275	20670
850.41	20716
850.545	20678
850.68	20826
850.815	20758
850.95	20743
851.085	20925
851.22	20849
851.355	20891
851.49	20785
851.625	20788
851.76	20788
851.895	20670
852.03	20659
852.165	20762
852.299	20849
852.434	20902
852.569	20800
852.703	20781
852.838	20823
852.973	20956
853.107	20941
853.242	20777
853.376	20617
853.511	20549
853.645	20632
853.78	20788
853.914	20689
854.048	20598
854.183	20564
854.317	20503
854.451	20724
854.585	20617
854.72	20606
854.854	20769
854.988	20530
855.122	20598
855.256	20492
855.39	20697
855.524	20746
855.658	20644
855.792	20644
855.926	20663
856.06	20590
856.194	20762
856.327	20632
856.461	20507
856.595	20495
856.729	20629
856.862	20739
856.996	20609
857.13	20754
857.263	20773
857.397	20781
857.53	20686
857.664	20648
857.797	20682
857.931	20720
858.064	20674
858.197	20716
858.331	20674
858.464	20602
858.597	20617
858.731	20594
858.864	20644
858.997	20526
859.13	20689
859.263	20708
859.396	20629
859.529	20598
859.662	20545
859.795	20454
859.928	20594
860.061	20785
860.194	20834
860.327	20659
860.46	20613
860.592	20826
860.725	20807
860.858	20769
860.99	20606
861.123	20461
861.256	20461
861.388	20621
861.521	21146
861.653	20583
861.786	20438
861.918	20438
862.05	20473
862.183	20419
862.315	20503
862.447	20640
862.58	20598
862.712	20393
862.844	20259
862.976	20446
863.108	20427
863.24	20697
863.372	20157
863.504	20267
863.636	20313
863.768	20347
863.9	20408
864.032	20286
864.164	20362
864.296	20294
864.428	20347
864.559	20366
864.691	20419
864.823	20214
864.954	20320
865.086	20347
865.217	20229
865.349	20161
865.48	20195
865.612	20408
865.743	20374
865.875	20305
866.006	20271
866.137	20153
866.269	20317
866.4	20202
866.531	20172
866.662	20134
866.793	20103
866.924	20111
867.055	20244
867.186	20157
867.317	20168
867.448	20111
867.579	20157
867.71	20024
867.841	20088
867.972	20103
868.103	20183
868.233	20237
868.364	20240
868.495	20225
868.625	20358
868.756	20381
868.886	20457
869.017	20423
869.147	20541
869.278	20526
869.408	20457
869.539	20465
869.669	20503
869.799	20488
869.929	20545
870.06	20518
870.19	20720
870.32	20739
870.45	20731
870.58	20785
870.71	20834
870.84	20891
870.97	20758
871.1	20762
871.23	20994
871.36	21043
871.489	20967
871.619	20876
871.749	21028
871.879	21077
872.008	21127
872.138	21074
872.267	21043
872.397	20895
872.526	20819
872.656	20906
872.785	20781
872.915	20998
873.044	21142
873.173	21070
873.303	21157
873.432	21089
873.561	21085
873.69	21028
873.819	20998
873.948	21013
874.077	21020
874.206	21009
874.335	21180
874.464	21214
874.593	21294
874.722	21119
874.851	21195
874.979	21291
875.108	21230
875.237	21279
875.365	21192
875.494	21287
875.623	21359
875.751	21256
875.88	21279
876.008	21466
876.136	21534
876.265	21717
876.393	21759
876.521	21770
876.65	21854
876.778	21766
876.906	21587
877.034	21694
877.162	21667
877.29	21614
877.418	21568
877.546	21603
877.674	21705
877.802	21690
877.93	21633
878.058	21705
878.185	21561
878.313	21580
878.441	21709
878.568	21374
878.696	21530
878.824	21606
878.951	21690
879.079	21808
879.206	21888
879.333	21766
879.461	21682
879.588	21644
879.715	21766
879.842	21926
879.97	21705
880.097	21549
880.224	21462
880.351	21397
880.478	21595
880.605	21443
880.732	21477
880.859	21595
880.986	21530
881.112	21488
881.239	21233
881.366	21157
881.493	21199
881.619	21074
881.746	21127
881.872	21096
881.999	21051
882.125	20967
882.252	20982
882.378	21116
882.505	21165
882.631	20914
882.757	20849
882.883	20758
883.01	20693
883.136	20731
883.262	20689
883.388	20522
883.514	20842
883.64	20895
883.766	20625
883.892	20583
884.018	20511
884.143	20781
884.269	20754
884.395	20473
884.52	20488
884.646	20393
884.772	20305
884.897	20336
885.023	20336
885.148	20488
885.274	20541
885.399	20514
885.524	20415
885.65	20423
885.775	20362
885.9	20358
886.025	20514
886.15	20511
886.275	20423
886.4	20309
886.525	20408
886.65	20256
886.775	20317
886.9	20446
887.025	20621
887.149	20343
887.274	20278
887.399	20077
887.523	20176
887.648	20218
887.773	20069
887.897	20161
888.021	20183
888.146	20111
888.27	20309
888.395	20275
888.519	20138
888.643	20168
888.767	20240
888.891	20024
889.015	19913
889.139	20001
889.263	19921
889.387	19982
889.511	20298
889.635	20046
889.759	19951
889.883	19890
890.006	19989
890.13	20054
890.254	19860
890.377	19986
890.501	19799
890.624	19666
890.748	19613
890.871	19624
890.995	19499
891.118	19327
891.241	19590
891.364	19586
891.488	19715
891.611	19548
891.734	19571
891.857	19548
891.98	19639
892.103	19590
892.226	19586
892.349	19548
892.471	19320
892.594	19468
892.717	19548
892.839	19373
892.962	19506
893.085	19525
893.207	19514
893.33	19403
893.452	19327
893.575	19544
893.697	19430
893.819	19674
893.941	19605
894.064	19685
894.186	19407
894.308	19308
894.43	19628
894.552	19670
894.674	19609
894.796	19407
894.918	19609
895.04	19472
895.161	19628
895.283	19491
895.405	19388
895.526	19415
895.648	19537
895.769	19476
895.891	19548
896.012	19609
896.134	19518
896.255	19468
896.376	19483
896.498	19586
896.619	19590
896.74	19525
896.861	19582
896.982	19772
897.103	19986
897.224	19818
897.345	19757
897.466	19628
897.587	19734
897.708	19830
897.828	19788
897.949	19613
898.07	19430
898.19	19628
898.311	19712
898.431	19632
898.552	19719
898.672	19811
898.792	19864
898.913	19803
899.033	19639
899.153	19521
899.273	19468
899.393	19472
899.513	19563
899.633	19525
899.753	19540
899.873	19400
899.993	19518
900.113	19434
900.232	19460
900.352	19502
900.472	19304
900.591	19225
900.711	19438
900.83	19282
900.95	19434
901.069	19434
901.189	19187
901.308	18970
901.427	18871
901.546	18932
901.665	18928
901.784	18757
901.904	18730
902.023	18536
902.141	18490
902.26	18407
902.379	18422
902.498	18422
902.617	18342
902.735	18429
902.854	18289
902.973	18350
903.091	18117
903.21	17977
903.328	18064
903.446	17980
903.565	17874
903.683	17889
903.801	17817
903.919	17923
904.038	17863
904.156	17691
904.274	17805
904.392	17573
904.51	17665
904.627	17676
904.745	17619
904.863	17729
904.981	17444
905.098	17322
905.216	17372
905.334	17250
905.451	17311
905.569	17200
905.686	17417
905.803	17395
905.921	17041
906.038	17273
906.155	17075
906.272	17067
906.389	16987
906.506	16923
906.623	16805
906.74	16938
906.857	16828
906.974	16831
907.091	16816
907.208	17056
907.324	16816
907.441	16790
907.557	16721
907.674	16512
907.79	16478
907.907	16615
908.023	16554
908.139	16630
908.256	16630
908.372	16485
908.488	16341
908.604	16291
908.72	16337
908.836	16192
908.952	16196
909.068	16344
909.184	16344
909.3	16295
909.415	16352
909.531	16207
909.647	16071
909.762	16036
909.878	16063
909.993	15987
910.108	15907
910.224	15876
910.339	15956
910.454	15838
910.57	15797
910.685	15694
910.8	16002
910.915	15964
911.03	15728
911.145	15705
911.259	15511
911.374	15671
911.489	15542
911.604	15412
911.718	15424
911.833	15355
911.947	15173
912.062	15154
912.176	15389
912.291	15340
912.405	15294
912.519	15591
912.633	15511
912.748	15374
912.862	15348
912.976	15146
913.09	15028
913.204	15154
913.318	15241
913.431	15256
913.545	15230
913.659	15310
913.772	15066
913.886	15089
914	15005
914.113	15062
914.226	15058
914.34	15055
914.453	14887
914.566	15009
914.68	14902
914.793	14891
914.906	14724
915.019	14716
915.132	14537
915.245	14583
915.358	14533
915.47	14598
915.583	14594
915.696	14648
915.809	14674
915.921	14716
916.034	14587
916.146	14465
916.259	14381
916.371	14689
916.483	14644
916.595	14427
916.708	14454
916.82	14423
916.932	14408
917.044	14438
917.156	14492
917.268	14225
917.38	14320
917.491	14290
917.603	14309
917.715	14393
917.826	14358
917.938	14259
918.049	14168
918.161	14267
918.272	14328
918.384	14278
918.495	14259
918.606	14096
918.717	13963
918.828	14016
918.939	14092
919.05	14016
919.161	14103
919.272	13822
919.383	14035
919.494	14145
919.604	14252
919.715	14012
919.826	13959
919.936	14046
920.047	14168
920.157	13947
920.267	14256
920.378	14103
920.488	13913
920.598	14134
920.708	14271
920.818	14176
920.928	14221
921.038	14336
921.148	14278
921.258	13959
921.368	13890
921.477	13830
921.587	13795
921.697	13582
921.806	13780
921.916	13620
922.025	13407
922.134	13411
922.244	13377
922.353	13495
922.462	13324
922.571	13228
922.68	13072
922.789	13080
922.898	13061
923.007	13095
923.116	13069
923.224	13103
923.333	12951
923.442	12932
923.55	13008
923.659	12970
923.767	12962
923.876	12882
923.984	13012
924.092	12810
924.201	12795
924.309	12901
924.417	12875
924.525	12757
924.633	12757
924.741	13662
924.849	12528
924.956	12738
925.064	12574
925.172	12414
925.279	12547
925.387	12635
925.494	12536
925.602	12684
925.709	12559
925.816	12479
925.924	12494
926.031	12559
926.138	12429
926.245	12498
926.352	12376
926.459	12509
926.566	12536
926.673	12433
926.779	12365
926.886	12357
926.993	12079
927.099	12129
927.206	12106
927.312	12038
927.419	12079
927.525	12117
927.631	12095
927.737	12049
927.843	11920
927.95	11866
928.056	11866
928.162	11969
928.267	11942
928.373	12570
928.479	11988
928.585	11745
928.69	11916
928.796	11916
928.901	11767
929.007	11710
929.112	11809
929.218	11707
929.323	11748
929.428	11680
929.533	11809
929.638	11551
929.743	11638
929.848	11661
929.953	11627
930.058	11524
930.163	11337
930.267	11429
930.372	11433
930.477	11356
930.581	11501
930.685	11410
930.79	11246
930.894	11307
930.998	11284
931.103	11360
931.207	11022
931.311	10934
931.415	10896
931.519	10622
931.623	10637
