Data from test_V78500241_1153.txt Node
Date: Fri Mar 25 15:17:53 CST 2022
User: usil
Spectrometer: V785-0024
Trigger mode: 0
Integration Time (sec): 4.000000E-1
Scans to average: 1
Nonlinearity correction enabled: false
Boxcar width: 0
Storing dark spectrum: false
XAxis mode: Wavelengths
Number of Pixels in Spectrum: 1024
>>>>>Begin Spectral Data<<<<<
801.071	28363
801.214	28169
801.356	28017
801.499	27762
801.641	27850
801.783	27911
801.926	28040
802.068	27850
802.211	27857
802.353	27720
802.496	27553
802.638	27576
802.78	27469
802.923	27526
803.065	27534
803.208	27553
803.35	27553
803.492	27713
803.635	27789
803.777	27542
803.919	27610
804.061	28131
804.204	27861
804.346	27774
804.488	27656
804.63	27770
804.773	27610
804.915	27827
805.057	27907
805.199	27804
805.341	27922
805.483	27983
805.626	27827
805.768	27774
805.91	27819
806.052	27892
806.194	27899
806.336	28002
806.478	27956
806.62	27926
806.762	28048
806.904	28257
807.046	28440
807.188	28337
807.33	28409
807.472	28379
807.614	28238
807.756	28363
807.898	28150
808.04	28154
808.182	28173
808.324	28253
808.465	28181
808.607	28386
808.749	28634
808.891	28721
809.033	28694
809.174	28733
809.316	28664
809.458	28527
809.6	28527
809.741	28744
809.883	28733
810.025	28934
810.166	28847
810.308	28866
810.45	28820
810.591	28873
810.733	28725
810.875	28653
811.016	28599
811.158	28535
811.299	28683
811.441	28778
811.582	28626
811.724	28767
811.865	28634
812.007	28493
812.148	28417
812.29	28702
812.431	28767
812.573	28831
812.714	29060
812.855	29056
812.997	29147
813.138	29318
813.279	29162
813.421	29102
813.562	29018
813.703	28987
813.845	28816
813.986	28691
814.127	28413
814.268	28329
814.41	28276
814.551	28261
814.692	28485
814.833	28128
814.974	28287
815.115	28417
815.256	28131
815.397	28284
815.539	28169
815.68	27994
815.821	28112
815.962	28147
816.103	28173
816.244	27972
816.385	27888
816.526	27812
816.666	27732
816.807	27660
816.948	27755
817.089	27720
817.23	27728
817.371	27660
817.512	27675
817.653	27523
817.793	27660
817.934	27641
818.075	27633
818.216	27644
818.356	27595
818.497	27595
818.638	27306
818.778	27382
818.919	27412
819.06	27393
819.2	27553
819.341	27827
819.481	27694
819.622	27739
819.762	28204
819.903	27899
820.043	27713
820.184	27762
820.324	27709
820.465	27686
820.605	27781
820.746	27778
820.886	27583
821.026	27686
821.167	27739
821.307	27732
821.447	27622
821.588	27496
821.728	27542
821.868	27207
822.008	27123
822.149	27047
822.289	26933
822.429	26925
822.569	26739
822.709	26716
822.849	26720
822.99	26678
823.13	26655
823.27	26636
823.41	26389
823.55	26385
823.69	26381
823.83	26457
823.97	26351
824.11	26290
824.25	26233
824.389	26248
824.529	26377
824.669	26119
824.809	26324
824.949	26465
825.089	26339
825.228	26396
825.368	26176
825.508	26202
825.648	26084
825.787	26164
825.927	26138
826.067	26073
826.206	26244
826.346	26191
826.485	26267
826.625	26199
826.765	26252
826.904	26183
827.044	25875
827.183	25898
827.323	25799
827.462	25982
827.601	25852
827.741	25932
827.88	25868
828.02	25909
828.159	25864
828.298	25909
828.437	26130
828.577	25868
828.716	25917
828.855	25647
828.994	25525
829.134	25601
829.273	25590
829.412	25453
829.551	25662
829.69	25708
829.829	25544
829.968	25605
830.107	25651
830.246	25632
830.385	25674
830.524	25411
830.663	25457
830.802	25293
830.941	25202
831.08	25228
831.219	25251
831.357	25270
831.496	25487
831.635	25225
831.774	25175
831.913	25019
832.051	25061
832.19	25027
832.329	24989
832.467	24821
832.606	24958
832.744	24875
832.883	24802
833.022	24932
833.16	25046
833.299	24996
833.437	24981
833.576	24973
833.714	25015
833.852	25023
833.991	24981
834.129	24992
834.267	24977
834.406	24916
834.544	24958
834.682	24916
834.821	24878
834.959	25244
835.097	25027
835.235	25008
835.373	24924
835.511	24943
835.65	24817
835.788	24741
835.926	24749
836.064	24646
836.202	24684
836.34	24772
836.478	24795
836.615	24867
836.753	24886
836.891	24825
837.029	24894
837.167	24734
837.305	24677
837.443	24639
837.58	24681
837.718	24684
837.856	24749
837.993	24426
838.131	24540
838.269	24505
838.406	24384
838.544	24437
838.681	24342
838.819	24182
838.956	24232
839.094	24068
839.231	24186
839.369	24289
839.506	24494
839.643	24350
839.781	24057
839.918	24087
840.055	24190
840.193	24186
840.33	23950
840.467	23992
840.604	24049
840.742	24273
840.879	23950
841.016	23901
841.153	24026
841.29	24159
841.427	23946
841.564	23939
841.701	23954
841.838	23954
841.975	23817
842.112	23870
842.249	23836
842.385	23714
842.522	23931
842.659	23756
842.796	23707
842.933	23733
843.069	23767
843.206	23741
843.343	23798
843.479	23771
843.616	23786
843.752	23592
843.889	23539
844.025	23642
844.162	23531
844.298	23634
844.435	23493
844.571	23486
844.708	23589
844.844	23638
844.98	23775
845.117	23592
845.253	23471
845.389	23429
845.525	23501
845.661	23292
845.798	23200
845.934	23280
846.07	23330
846.206	23440
846.342	23497
846.478	23181
846.614	23105
846.75	22957
846.886	23075
847.022	23094
847.158	23014
847.294	23006
847.429	22991
847.565	22953
847.701	23254
847.837	22835
847.972	22706
848.108	22828
848.244	22850
848.379	22660
848.515	22656
848.65	22622
848.786	22736
848.921	22592
849.057	22733
849.192	22675
849.328	22462
849.463	22577
849.598	22630
849.734	22478
849.869	22531
850.004	22394
850.14	22474
850.275	22344
850.41	22188
850.545	22352
850.68	22363
850.815	22325
850.95	22352
851.085	22542
851.22	22523
851.355	22413
851.49	22303
851.625	22329
851.76	22322
851.895	22158
852.03	22246
852.165	22318
852.299	22413
852.434	22417
852.569	22375
852.703	22375
852.838	22421
852.973	22459
853.107	22363
853.242	22318
853.376	22215
853.511	22131
853.645	22120
853.78	22215
853.914	22219
854.048	22177
854.183	22112
854.317	22150
854.451	22318
854.585	22154
854.72	22196
854.854	22230
854.988	22131
855.122	22086
855.256	22059
855.39	22166
855.524	22143
855.658	22215
855.792	22147
855.926	22219
856.06	22215
856.194	22287
856.327	22226
856.461	22105
856.595	22139
856.729	22124
856.862	22276
856.996	22158
857.13	22219
857.263	22162
857.397	22204
857.53	22211
857.664	22207
857.797	22253
857.931	22295
858.064	22147
858.197	22230
858.331	22207
858.464	22048
858.597	22101
858.731	22032
858.864	22200
858.997	22204
859.13	22093
859.263	22101
859.396	22367
859.529	22173
859.662	22200
859.795	22234
859.928	22090
860.061	22272
860.194	22386
860.327	22234
860.46	22082
860.592	22322
860.725	22287
860.858	22196
860.99	22306
861.123	22006
861.256	22055
861.388	22147
861.521	23025
861.653	21964
861.786	21911
861.918	22036
862.05	22059
862.183	22139
862.315	22044
862.447	22181
862.58	22196
862.712	21846
862.844	21869
862.976	21873
863.108	21956
863.24	22234
863.372	21835
863.504	21945
863.636	21793
863.768	22010
863.9	21793
864.032	21785
864.164	21876
864.296	21865
864.428	21972
864.559	21934
864.691	21915
864.823	21911
864.954	21804
865.086	21876
865.217	21736
865.349	21732
865.48	21793
865.612	21698
865.743	21907
865.875	21800
866.006	21713
866.137	21785
866.269	21652
866.4	21629
866.531	21698
866.662	21587
866.793	21705
866.924	21770
867.055	21762
867.186	21709
867.317	21454
867.448	21576
867.579	21656
867.71	21637
867.841	21469
867.972	21660
868.103	21679
868.233	21682
868.364	21705
868.495	21759
868.625	21797
868.756	22040
868.886	21827
869.017	21873
869.147	21972
869.278	21930
869.408	21937
869.539	21808
869.669	22059
869.799	21880
869.929	22078
870.06	22029
870.19	22188
870.32	22124
870.45	22348
870.58	22284
870.71	22451
870.84	22367
870.97	22299
871.1	22306
871.23	22527
871.36	22542
871.489	22424
871.619	22421
871.749	22493
871.879	22550
872.008	22687
872.138	22577
872.267	22386
872.397	22333
872.526	22466
872.656	22421
872.785	22459
872.915	22557
873.044	22554
873.173	22516
873.303	22519
873.432	22527
873.561	22599
873.69	22481
873.819	22489
873.948	22538
874.077	22527
874.206	22386
874.335	22382
874.464	22546
874.593	22729
874.722	22702
874.851	22637
874.979	22763
875.108	22858
875.237	22664
875.365	22653
875.494	22721
875.623	22881
875.751	22793
875.88	22839
876.008	22828
876.136	22881
876.265	23086
876.393	23269
876.521	23128
876.65	23200
876.778	23086
876.906	23098
877.034	23060
877.162	23109
877.29	23109
877.418	23079
877.546	23254
877.674	23086
877.802	23067
877.93	23003
878.058	23029
878.185	22873
878.313	23064
878.441	23212
878.568	22835
878.696	22991
878.824	23113
878.951	23235
879.079	23124
879.206	23395
879.333	23223
879.461	23121
879.588	23159
879.715	23117
879.842	23326
879.97	23151
880.097	22919
880.224	22972
880.351	22934
880.478	22934
880.605	22816
880.732	22839
880.859	23140
880.986	22881
881.112	22919
881.239	22736
881.366	22618
881.493	22500
881.619	22504
881.746	22596
881.872	22485
881.999	22466
882.125	22451
882.252	22470
882.378	22344
882.505	22550
882.631	22322
882.757	22337
882.883	22284
883.01	22124
883.136	22124
883.262	22032
883.388	22044
883.514	22177
883.64	22173
883.766	22063
883.892	21994
884.018	21991
884.143	22109
884.269	22181
884.395	21899
884.52	21831
884.646	21732
884.772	21762
884.897	21690
885.023	21800
885.148	21884
885.274	22006
885.399	21800
885.524	21778
885.65	21850
885.775	21682
885.9	21778
886.025	21869
886.15	21918
886.275	21785
886.4	21698
886.525	21637
886.65	21759
886.775	21652
886.9	21884
887.025	21983
887.149	21755
887.274	21534
887.399	21599
887.523	21553
887.648	21538
887.773	21466
887.897	21530
888.021	21610
888.146	21496
888.27	21511
888.395	21603
888.519	21564
888.643	21496
888.767	21504
888.891	21405
889.015	21329
889.139	21466
889.263	21332
889.387	21458
889.511	21485
889.635	21515
889.759	21268
889.883	21378
890.006	21298
890.13	21344
890.254	21241
890.377	21268
890.501	21207
890.624	21055
890.748	21188
890.871	20815
890.995	20902
891.118	20861
891.241	20948
891.364	20918
891.488	20975
891.611	20857
891.734	20857
891.857	20933
891.98	20948
892.103	21039
892.226	20826
892.349	20880
892.471	20800
892.594	20864
892.717	20838
892.839	20777
892.962	20765
893.085	20914
893.207	20800
893.33	20629
893.452	20663
893.575	20849
893.697	20708
893.819	21039
893.941	20899
894.064	20941
894.186	20758
894.308	20712
894.43	20872
894.552	20956
894.674	20933
894.796	20606
894.918	20826
895.04	20849
895.161	20750
895.283	20819
895.405	20739
895.526	20754
895.648	20743
895.769	20834
895.891	20746
896.012	20941
896.134	20796
896.255	20849
896.376	20682
896.498	20731
896.619	20739
896.74	20826
896.861	20849
896.982	21047
897.103	21264
897.224	20960
897.345	21017
897.466	20960
897.587	21032
897.708	21138
897.828	20986
897.949	20918
898.07	20758
898.19	21009
898.311	20982
898.431	20895
898.552	21039
898.672	21100
898.792	20986
898.913	21024
899.033	20762
899.153	20773
899.273	20571
899.393	20758
899.513	20777
899.633	20598
899.753	20689
899.873	20655
899.993	20754
900.113	20724
900.232	20648
900.352	20659
900.472	20613
900.591	20438
900.711	20457
900.83	20473
900.95	20511
901.069	20564
901.189	20305
901.308	20069
901.427	20043
901.546	20039
901.665	19997
901.784	20058
901.904	19818
902.023	19738
902.141	19655
902.26	19689
902.379	19666
902.498	19476
902.617	19620
902.735	19529
902.854	19563
902.973	19388
903.091	19225
903.21	19221
903.328	19213
903.446	19137
903.565	18970
903.683	19038
903.801	18859
903.919	18928
904.038	19065
904.156	18734
904.274	18871
904.392	18837
904.51	18707
904.627	18768
904.745	18760
904.863	18722
904.981	18627
905.098	18525
905.216	18475
905.334	18509
905.451	18433
905.569	18513
905.686	18479
905.803	18330
905.921	18254
906.038	18357
906.155	18323
906.272	18121
906.389	18262
906.506	18045
906.623	18022
906.74	18083
906.857	17859
906.974	17790
907.091	18041
907.208	18125
907.324	17965
907.441	17939
907.557	17726
907.674	17634
907.79	17634
907.907	17581
908.023	17832
908.139	17649
908.256	17623
908.372	17623
908.488	17585
908.604	17444
908.72	17429
908.836	17436
908.952	17307
909.068	17425
909.184	17440
909.3	17322
909.415	17410
909.531	17360
909.647	17067
909.762	17128
909.878	17174
909.993	17208
910.108	17018
910.224	17060
910.339	17128
910.454	16915
910.57	17003
910.685	16915
910.8	17105
910.915	17086
911.03	16831
911.145	16771
911.259	16694
911.374	16577
911.489	16580
911.604	16550
911.718	16413
911.833	16531
911.947	16306
912.062	16246
912.176	16363
912.291	16447
912.405	16466
912.519	16550
912.633	16637
912.748	16489
912.862	16402
912.976	16253
913.09	16101
913.204	16223
913.318	16280
913.431	16318
913.545	16272
913.659	16295
913.772	16253
913.886	16143
914	16067
914.113	16116
914.226	16051
914.34	16055
914.453	15915
914.566	16090
914.68	15972
914.793	15899
914.906	15739
915.019	15564
915.132	15564
915.245	15606
915.358	15633
915.47	15625
915.583	15660
915.696	15545
915.809	15720
915.921	15831
916.034	15534
916.146	15485
916.259	15587
916.371	15599
916.483	15584
916.595	15435
916.708	15450
916.82	15481
916.932	15393
917.044	15420
917.156	15370
917.268	15298
917.38	15329
917.491	15241
917.603	15279
917.715	15359
917.826	15355
917.938	15226
918.049	15093
918.161	15157
918.272	15313
918.384	15363
918.495	15207
918.606	15058
918.717	14921
918.828	15081
918.939	15062
919.05	14975
919.161	14971
919.272	14792
919.383	14830
919.494	15066
919.604	15146
919.715	14952
919.826	14975
919.936	14887
920.047	15039
920.157	14979
920.267	15154
920.378	14979
920.488	14967
920.598	15131
920.708	15313
920.818	15051
920.928	15097
921.038	15161
921.148	15165
921.258	14876
921.368	14785
921.477	14708
921.587	14648
921.697	14560
921.806	14686
921.916	14484
922.025	14347
922.134	14442
922.244	14298
922.353	14351
922.462	14142
922.571	14081
922.68	13978
922.789	13947
922.898	13890
923.007	13887
923.116	13932
923.224	13951
923.333	14001
923.442	13769
923.55	13689
923.659	13890
923.767	13902
923.876	13776
923.984	13883
924.092	13666
924.201	13681
924.309	13700
924.417	13674
924.525	13609
924.633	13681
924.741	14541
924.849	13502
924.956	13605
925.064	13377
925.172	13343
925.279	13320
925.387	13373
925.494	13247
925.602	13457
925.709	13403
925.816	13221
925.924	13278
926.031	13369
926.138	13327
926.245	13282
926.352	13171
926.459	13247
926.566	13289
926.673	13225
926.779	13080
926.886	13000
926.993	12920
927.099	12939
927.206	12844
927.312	12848
927.419	12970
927.525	12852
927.631	12916
927.737	12753
927.843	12722
927.95	12684
928.056	12612
928.162	12658
928.267	12692
928.373	13324
928.479	12700
928.585	12528
928.69	12707
928.796	12684
928.901	12585
929.007	12433
929.112	12540
929.218	12616
929.323	12350
929.428	12479
929.533	12559
929.638	12407
929.743	12391
929.848	12380
929.953	12258
930.058	12285
930.163	12125
930.267	12167
930.372	12213
930.477	12072
930.581	12289
930.685	12144
930.79	11973
930.894	12117
930.998	11920
931.103	12038
931.207	11726
931.311	11653
931.415	11512
931.519	11391
931.623	11353
