Data from test_V78500241_3095.txt Node
Date: Fri Mar 25 15:31:24 CST 2022
User: usil
Spectrometer: V785-0024
Trigger mode: 0
Integration Time (sec): 4.000000E-1
Scans to average: 1
Nonlinearity correction enabled: false
Boxcar width: 0
Storing dark spectrum: false
XAxis mode: Wavelengths
Number of Pixels in Spectrum: 1024
>>>>>Begin Spectral Data<<<<<
801.071	26956
801.214	26975
801.356	26758
801.499	26579
801.641	26598
801.783	26537
801.926	26556
802.068	26495
802.211	26492
802.353	26408
802.496	26404
802.638	26161
802.78	26161
802.923	26164
803.065	26043
803.208	26054
803.35	26214
803.492	26305
803.635	26290
803.777	26073
803.919	26267
804.061	26659
804.204	26465
804.346	26252
804.488	26309
804.63	26290
804.773	26187
804.915	26278
805.057	26301
805.199	26271
805.341	26366
805.483	26465
805.626	26336
805.768	26370
805.91	26298
806.052	26434
806.194	26271
806.336	26602
806.478	26305
806.62	26370
806.762	26568
806.904	26575
807.046	26887
807.188	26838
807.33	26933
807.472	26800
807.614	26693
807.756	26773
807.898	26659
808.04	26526
808.182	26644
808.324	26708
808.465	26587
808.607	26701
808.749	26887
808.891	27074
809.033	27036
809.174	27036
809.316	27017
809.458	26929
809.6	26933
809.741	27093
809.883	26971
810.025	27313
810.166	27306
810.308	27230
810.45	27184
810.591	27279
810.733	27070
810.875	26982
811.016	26948
811.158	26773
811.299	26956
811.441	27287
811.582	27039
811.724	27085
811.865	26929
812.007	26842
812.148	26872
812.29	26918
812.431	27089
812.573	27230
812.714	27386
812.855	27344
812.997	27542
813.138	27633
813.279	27477
813.421	27435
813.562	27397
813.703	27268
813.845	27192
813.986	26720
814.127	26720
814.268	26693
814.41	26564
814.551	26511
814.692	26670
814.833	26495
814.974	26469
815.115	26670
815.256	26298
815.397	26499
815.539	26518
815.68	26385
815.821	26301
815.962	26415
816.103	26328
816.244	26218
816.385	26164
816.526	26187
816.666	25936
816.807	25868
816.948	26020
817.089	26039
817.23	25936
817.371	25917
817.512	25871
817.653	25947
817.793	25788
817.934	25750
818.075	25849
818.216	25852
818.356	25852
818.497	25658
818.638	25620
818.778	25483
818.919	25616
819.06	25734
819.2	25795
819.341	25822
819.481	25807
819.622	25826
819.762	26161
819.903	26134
820.043	25940
820.184	25982
820.324	25818
820.465	26035
820.605	26008
820.746	25845
820.886	25814
821.026	25833
821.167	25807
821.307	25986
821.447	25715
821.588	25818
821.728	25655
821.868	25384
822.008	25335
822.149	25232
822.289	25388
822.429	25088
822.569	25110
822.709	24966
822.849	24878
822.99	24741
823.13	24745
823.27	24753
823.41	24654
823.55	24513
823.69	24654
823.83	24700
823.97	24502
824.11	24429
824.25	24376
824.389	24418
824.529	24566
824.669	24308
824.809	24532
824.949	24589
825.089	24483
825.228	24395
825.368	24353
825.508	24167
825.648	24224
825.787	24441
825.927	24338
826.067	24365
826.206	24209
826.346	24235
826.485	24376
826.625	24209
826.765	24315
826.904	24365
827.044	24136
827.183	24186
827.323	23973
827.462	24095
827.601	23961
827.741	23996
827.88	23961
828.02	23942
828.159	23973
828.298	24098
828.437	24011
828.577	23859
828.716	24121
828.855	23969
828.994	23676
829.134	23691
829.273	23699
829.412	23805
829.551	23718
829.69	23764
829.829	23638
829.968	23824
830.107	23752
830.246	23794
830.385	23665
830.524	23611
830.663	23444
830.802	23448
830.941	23269
831.08	23284
831.219	23395
831.357	23383
831.496	23528
831.635	23406
831.774	23402
831.913	23178
832.051	23090
832.19	23296
832.329	23204
832.467	22999
832.606	22991
832.744	22946
832.883	22987
833.022	22900
833.16	22980
833.299	22949
833.437	23014
833.576	23010
833.714	23067
833.852	23102
833.991	23212
834.129	23079
834.267	23159
834.406	23151
834.544	23105
834.682	23064
834.821	23060
834.959	23322
835.097	23037
835.235	23037
835.373	23006
835.511	23147
835.65	22904
835.788	22873
835.926	22831
836.064	22618
836.202	22679
836.34	22885
836.478	22873
836.615	22797
836.753	22930
836.891	22999
837.029	22949
837.167	22820
837.305	22801
837.443	22812
837.58	22725
837.718	22744
837.856	22793
837.993	22759
838.131	22569
838.269	22637
838.406	22729
838.544	22565
838.681	22478
838.819	22382
838.956	22230
839.094	22246
839.231	22242
839.369	22382
839.506	22793
839.643	22500
839.781	22162
839.918	22082
840.055	22207
840.193	22234
840.33	22207
840.467	22204
840.604	22265
840.742	22470
840.879	21987
841.016	22147
841.153	22196
841.29	22287
841.427	22268
841.564	22173
841.701	22147
841.838	22078
841.975	22029
842.112	22188
842.249	22044
842.385	21972
842.522	22234
842.659	22002
842.796	21926
842.933	21899
843.069	21850
843.206	22013
843.343	21964
843.479	21926
843.616	21827
843.752	21705
843.889	21694
844.025	21899
844.162	21557
844.298	21819
844.435	21694
844.571	21739
844.708	21648
844.844	21770
844.98	21717
845.117	21861
845.253	21644
845.389	21576
845.525	21663
845.661	21580
845.798	21534
845.934	21515
846.07	21370
846.206	21424
846.342	21496
846.478	21363
846.614	21116
846.75	21116
846.886	21165
847.022	21294
847.158	21241
847.294	21256
847.429	21192
847.565	21150
847.701	21367
847.837	21055
847.972	20864
848.108	21009
848.244	20990
848.379	20826
848.515	20800
848.65	20792
848.786	20777
848.921	20864
849.057	20823
849.192	20807
849.328	20739
849.463	20788
849.598	20735
849.734	20758
849.869	20560
850.004	20530
850.14	20575
850.275	20415
850.41	20526
850.545	20427
850.68	20419
850.815	20511
850.95	20469
851.085	20693
851.22	20613
851.355	20636
851.49	20579
851.625	20594
851.76	20511
851.895	20560
852.03	20457
852.165	20480
852.299	20533
852.434	20651
852.569	20507
852.703	20526
852.838	20640
852.973	20724
853.107	20708
853.242	20511
853.376	20343
853.511	20267
853.645	20377
853.78	20415
853.914	20442
854.048	20309
854.183	20419
854.317	20328
854.451	20530
854.585	20381
854.72	20385
854.854	20377
854.988	20336
855.122	20355
855.256	20282
855.39	20381
855.524	20511
855.658	20446
855.792	20313
855.926	20415
856.06	20408
856.194	20393
856.327	20301
856.461	20301
856.595	20374
856.729	20336
856.862	20507
856.996	20339
857.13	20438
857.263	20454
857.397	20419
857.53	20385
857.664	20275
857.797	20480
857.931	20446
858.064	20347
858.197	20530
858.331	20431
858.464	20336
858.597	20229
858.731	20294
858.864	20431
858.997	20301
859.13	20366
859.263	20389
859.396	20473
859.529	20282
859.662	20351
859.795	20366
859.928	20461
860.061	20454
860.194	20609
860.327	20339
860.46	20248
860.592	20465
860.725	20499
860.858	20568
860.99	20370
861.123	20309
861.256	20324
861.388	20412
861.521	20941
861.653	20244
861.786	20084
861.918	20183
862.05	20221
862.183	20286
862.315	20343
862.447	20385
862.58	20286
862.712	20153
862.844	20130
862.976	20206
863.108	20229
863.24	20617
863.372	20073
863.504	20145
863.636	20069
863.768	20183
863.9	20081
864.032	19982
864.164	19932
864.296	20183
864.428	20183
864.559	20180
864.691	20195
864.823	20115
864.954	20100
865.086	19970
865.217	20050
865.349	19879
865.48	19982
865.612	20012
865.743	20164
865.875	20046
866.006	19944
866.137	20024
866.269	20122
866.4	20050
866.531	20024
866.662	20005
866.793	19951
866.924	19811
867.055	20031
867.186	20008
867.317	20005
867.448	19921
867.579	19959
867.71	19852
867.841	19947
867.972	20069
868.103	19921
868.233	19967
868.364	19894
868.495	20157
868.625	20195
868.756	20370
868.886	20153
869.017	20149
869.147	20336
869.278	20442
869.408	20210
869.539	20256
869.669	20317
869.799	20256
869.929	20339
870.06	20442
870.19	20419
870.32	20549
870.45	20537
870.58	20552
870.71	20594
870.84	20743
870.97	20503
871.1	20602
871.23	20731
871.36	20834
871.489	20724
871.619	20880
871.749	20868
871.879	20906
872.008	20887
872.138	20727
872.267	20746
872.397	20682
872.526	20670
872.656	20533
872.785	20594
872.915	20785
873.044	20906
873.173	20823
873.303	20982
873.432	20872
873.561	21001
873.69	20838
873.819	20887
873.948	20792
874.077	20872
874.206	20720
874.335	20914
874.464	20975
874.593	21154
874.722	21047
874.851	21028
874.979	21116
875.108	21184
875.237	21058
875.365	20910
875.494	21013
875.623	21211
875.751	20975
875.88	21051
876.008	21135
876.136	21298
876.265	21431
876.393	21743
876.521	21450
876.65	21614
876.778	21401
876.906	21511
877.034	21443
877.162	21420
877.29	21447
877.418	21507
877.546	21420
877.674	21553
877.802	21370
877.93	21492
878.058	21378
878.185	21412
878.313	21496
878.441	21439
878.568	21176
878.696	21389
878.824	21447
878.951	21545
879.079	21564
879.206	21770
879.333	21656
879.461	21466
879.588	21553
879.715	21660
879.842	21743
879.97	21515
880.097	21306
880.224	21226
880.351	21325
880.478	21291
880.605	21180
880.732	21302
880.859	21359
880.986	21268
881.112	21268
881.239	21165
881.366	20986
881.493	20834
881.619	20754
881.746	20842
881.872	20872
881.999	20819
882.125	20739
882.252	20887
882.378	20762
882.505	20868
882.631	20625
882.757	20613
882.883	20571
883.01	20549
883.136	20476
883.262	20343
883.388	20454
883.514	20545
883.64	20560
883.766	20434
883.892	20412
884.018	20259
884.143	20450
884.269	20625
884.395	20301
884.52	20237
884.646	20225
884.772	20138
884.897	20202
885.023	20218
885.148	20237
885.274	20301
885.399	20317
885.524	20229
885.65	20149
885.775	20263
885.9	20115
886.025	20267
886.15	20130
886.275	20183
886.4	20134
886.525	20119
886.65	20183
886.775	20248
886.9	20309
887.025	20298
887.149	20157
887.274	20031
887.399	19978
887.523	20005
887.648	19906
887.773	19769
887.897	19940
888.021	19978
888.146	19989
888.27	20065
888.395	20084
888.519	19879
888.643	20073
888.767	20012
888.891	19799
889.015	19776
889.139	19894
889.263	19734
889.387	19913
889.511	19883
889.635	19791
889.759	19712
889.883	19772
890.006	19761
890.13	19818
890.254	19734
890.377	19776
890.501	19674
890.624	19525
890.748	19655
890.871	19400
890.995	19441
891.118	19324
891.241	19445
891.364	19441
891.488	19525
891.611	19327
891.734	19346
891.857	19403
891.98	19384
892.103	19415
892.226	19445
892.349	19282
892.471	19255
892.594	19259
892.717	19327
892.839	19228
892.962	19297
893.085	19377
893.207	19304
893.33	19293
893.452	19316
893.575	19301
893.697	19179
893.819	19434
893.941	19453
894.064	19350
894.186	19244
894.308	19225
894.43	19358
894.552	19419
894.674	19297
894.796	19270
894.918	19206
895.04	19278
895.161	19255
895.283	19403
895.405	19365
895.526	19324
895.648	19168
895.769	19278
895.891	19365
896.012	19392
896.134	19346
896.255	19369
896.376	19320
896.498	19266
896.619	19343
896.74	19434
896.861	19278
896.982	19556
897.103	19852
897.224	19647
897.345	19525
897.466	19403
897.587	19533
897.708	19586
897.828	19556
897.949	19350
898.07	19293
898.19	19464
898.311	19662
898.431	19438
898.552	19529
898.672	19506
898.792	19483
898.913	19567
899.033	19373
899.153	19449
899.273	19346
899.393	19320
899.513	19373
899.633	19396
899.753	19293
899.873	19270
899.993	19304
900.113	19270
900.232	19278
900.352	19266
900.472	19091
900.591	19133
900.711	19175
900.83	19057
900.95	19228
901.069	19171
901.189	18943
901.308	18814
901.427	18696
901.546	18665
901.665	18593
901.784	18726
901.904	18620
902.023	18551
902.141	18201
902.26	18342
902.379	18334
902.498	18243
902.617	18125
902.735	18232
902.854	18270
902.973	18273
903.091	17901
903.21	17992
903.328	17958
903.446	17790
903.565	17790
903.683	17726
903.801	17585
903.919	17585
904.038	17729
904.156	17356
904.274	17551
904.392	17387
904.51	17417
904.627	17448
904.745	17474
904.863	17524
904.981	17299
905.098	17045
905.216	17132
905.334	17147
905.451	17117
905.569	17220
905.686	17162
905.803	17147
905.921	16949
906.038	17022
906.155	16892
906.272	16854
906.389	16828
906.506	16622
906.623	16744
906.74	16637
906.857	16558
906.974	16607
907.091	16801
907.208	16809
907.324	16630
907.441	16527
907.557	16493
907.674	16478
907.79	16356
907.907	16470
908.023	16413
908.139	16440
908.256	16337
908.372	16287
908.488	16318
908.604	16207
908.72	16082
908.836	16124
908.952	16128
909.068	16196
909.184	16226
909.3	16074
909.415	16139
909.531	16181
909.647	15960
909.762	15869
909.878	15793
909.993	15842
910.108	15865
910.224	15865
910.339	15785
910.454	15778
910.57	15663
910.685	15549
910.8	15895
910.915	15842
911.03	15648
911.145	15542
911.259	15515
911.374	15389
911.489	15439
911.604	15340
911.718	15272
911.833	15310
911.947	15173
912.062	15051
912.176	15192
912.291	15230
912.405	15302
912.519	15397
912.633	15405
912.748	15207
912.862	15100
912.976	15051
913.09	15028
913.204	14994
913.318	15074
913.431	15089
913.545	15264
913.659	15165
913.772	14960
913.886	14933
914	14880
914.113	14986
914.226	15032
914.34	14868
914.453	14785
914.566	14883
914.68	14727
914.793	14693
914.906	14549
915.019	14400
915.132	14415
915.245	14465
915.358	14465
915.47	14438
915.583	14434
915.696	14412
915.809	14670
915.921	14602
916.034	14415
916.146	14317
916.259	14404
916.371	14511
916.483	14484
916.595	14355
916.708	14191
916.82	14324
916.932	14282
917.044	14339
917.156	14256
917.268	14115
917.38	14164
917.491	14134
917.603	14103
917.715	14180
917.826	14324
917.938	14062
918.049	13989
918.161	14081
918.272	14214
918.384	14240
918.495	14073
918.606	13890
918.717	13826
918.828	13928
918.939	13989
919.05	13833
919.161	13887
919.272	13628
919.383	13742
919.494	13913
919.604	14058
919.715	13967
919.826	13860
919.936	13830
920.047	13978
920.157	13940
920.267	14149
920.378	13947
920.488	13856
920.598	14054
920.708	14210
920.818	14043
920.928	14027
921.038	14164
921.148	14043
921.258	13803
921.368	13776
921.477	13601
921.587	13609
921.697	13464
921.806	13651
921.916	13529
922.025	13445
922.134	13343
922.244	13289
922.353	13354
922.462	13225
922.571	13129
922.68	12981
922.789	12981
922.898	12958
923.007	12795
923.116	12958
923.224	12924
923.333	12913
923.442	12817
923.55	12768
923.659	12715
923.767	12848
923.876	12776
923.984	12798
924.092	12688
924.201	12673
924.309	12726
924.417	12673
924.525	12692
924.633	12604
924.741	13510
924.849	12486
924.956	12593
925.064	12452
925.172	12311
925.279	12338
925.387	12445
925.494	12357
925.602	12555
925.709	12365
925.816	12300
925.924	12323
926.031	12391
926.138	12353
926.245	12456
926.352	12228
926.459	12395
926.566	12308
926.673	12239
926.779	12106
926.886	12140
926.993	12049
927.099	11988
927.206	11965
927.312	11939
927.419	12038
927.525	11992
927.631	12011
927.737	11916
927.843	11851
927.95	11703
928.056	11737
928.162	11908
928.267	11912
928.373	12525
928.479	11885
928.585	11627
928.69	11817
928.796	11805
928.901	11688
929.007	11539
929.112	11661
929.218	11657
929.323	11577
929.428	11630
929.533	11604
929.638	11482
929.743	11528
929.848	11532
929.953	11566
930.058	11410
930.163	11273
930.267	11292
930.372	11452
930.477	11140
930.581	11512
930.685	11337
930.79	11311
930.894	11223
930.998	11170
931.103	11254
931.207	10919
931.311	10862
931.415	10782
931.519	10592
931.623	10599
