Data from test_V78500241_1081.txt Node
Date: Fri Mar 25 15:17:23 CST 2022
User: usil
Spectrometer: V785-0024
Trigger mode: 0
Integration Time (sec): 4.000000E-1
Scans to average: 1
Nonlinearity correction enabled: false
Boxcar width: 0
Storing dark spectrum: false
XAxis mode: Wavelengths
Number of Pixels in Spectrum: 1024
>>>>>Begin Spectral Data<<<<<
801.071	28280
801.214	28116
801.356	27922
801.499	27846
801.641	27819
801.783	27762
801.926	27918
802.068	27736
802.211	27717
802.353	27625
802.496	27321
802.638	27329
802.78	27439
802.923	27367
803.065	27325
803.208	27241
803.35	27249
803.492	27530
803.635	27603
803.777	27580
803.919	27599
804.061	27903
804.204	27812
804.346	27504
804.488	27511
804.63	27549
804.773	27443
804.915	27587
805.057	27690
805.199	27545
805.341	27785
805.483	27751
805.626	27720
805.768	27606
805.91	27694
806.052	27759
806.194	27633
806.336	27926
806.478	27842
806.62	27778
806.762	28002
806.904	28036
807.046	28204
807.188	28249
807.33	28090
807.472	28242
807.614	27964
807.756	28116
807.898	28147
808.04	27926
808.182	27850
808.324	27972
808.465	28162
808.607	28280
808.749	28417
808.891	28497
809.033	28713
809.174	28348
809.316	28417
809.458	28371
809.6	28329
809.741	28474
809.883	28653
810.025	28691
810.166	28615
810.308	28656
810.45	28656
810.591	28531
810.733	28379
810.875	28409
811.016	28299
811.158	28325
811.299	28417
811.441	28405
811.582	28489
811.724	28379
811.865	28386
812.007	28310
812.148	28470
812.29	28386
812.431	28645
812.573	28664
812.714	28881
812.855	28957
812.997	29022
813.138	29178
813.279	29136
813.421	28911
813.562	28873
813.703	28755
813.845	28691
813.986	28386
814.127	28249
814.268	28101
814.41	28082
814.551	27911
814.692	28265
814.833	27987
814.974	28006
815.115	28139
815.256	27994
815.397	27979
815.539	28025
815.68	27869
815.821	27987
815.962	27979
816.103	28086
816.244	27835
816.385	27618
816.526	27819
816.666	27530
816.807	27355
816.948	27477
817.089	27652
817.23	27427
817.371	27500
817.512	27515
817.653	27336
817.793	27435
817.934	27545
818.075	27424
818.216	27530
818.356	27378
818.497	27427
818.638	27116
818.778	27138
818.919	27047
819.06	27268
819.2	27439
819.341	27287
819.481	27507
819.622	27542
819.762	27698
819.903	27633
820.043	27599
820.184	27564
820.324	27549
820.465	27633
820.605	27515
820.746	27583
820.886	27397
821.026	27447
821.167	27542
821.307	27644
821.447	27389
821.588	27287
821.728	27245
821.868	27218
822.008	26967
822.149	26982
822.289	26788
822.429	26701
822.569	26648
822.709	26670
822.849	26450
822.99	26400
823.13	26431
823.27	26461
823.41	26180
823.55	26122
823.69	26275
823.83	26180
823.97	26233
824.11	25944
824.25	26084
824.389	25986
824.529	26240
824.669	26001
824.809	26164
824.949	26149
825.089	26202
825.228	26138
825.368	25978
825.508	25974
825.648	25898
825.787	26065
825.927	26024
826.067	26130
826.206	25826
826.346	25955
826.485	25864
826.625	25959
826.765	26031
826.904	25993
827.044	25696
827.183	25696
827.323	25689
827.462	25666
827.601	25658
827.741	25662
827.88	25784
828.02	25563
828.159	25708
828.298	25651
828.437	25571
828.577	25533
828.716	25765
828.855	25712
828.994	25343
829.134	25449
829.273	25533
829.412	25381
829.551	25285
829.69	25346
829.829	25411
829.968	25495
830.107	25449
830.246	25407
830.385	25168
830.524	25392
830.663	25148
830.802	25095
830.941	24996
831.08	25042
831.219	25057
831.357	25065
831.496	25179
831.635	25027
831.774	24916
831.913	24958
832.051	24791
832.19	24768
832.329	24840
832.467	24703
832.606	24715
832.744	24521
832.883	24589
833.022	24677
833.16	24719
833.299	24604
833.437	24661
833.576	24810
833.714	24817
833.852	24901
833.991	24821
834.129	24810
834.267	24791
834.406	24703
834.544	24738
834.682	24909
834.821	24661
834.959	24992
835.097	24738
835.235	24684
835.373	24768
835.511	24631
835.65	24574
835.788	24547
835.926	24517
836.064	24380
836.202	24353
836.34	24604
836.478	24654
836.615	24544
836.753	24536
836.891	24551
837.029	24555
837.167	24414
837.305	24475
837.443	24658
837.58	24319
837.718	24589
837.856	24631
837.993	24365
838.131	24486
838.269	24315
838.406	24353
838.544	24266
838.681	24049
838.819	24053
838.956	23874
839.094	23977
839.231	23931
839.369	24026
839.506	24338
839.643	24095
839.781	23897
839.918	23882
840.055	23893
840.193	23786
840.33	23699
840.467	23699
840.604	23764
840.742	24098
840.879	23710
841.016	23798
841.153	23668
841.29	23893
841.427	23802
841.564	23802
841.701	23764
841.838	23802
841.975	23691
842.112	23729
842.249	23596
842.385	23592
842.522	23672
842.659	23562
842.796	23604
842.933	23627
843.069	23501
843.206	23497
843.343	23573
843.479	23596
843.616	23627
843.752	23284
843.889	23398
844.025	23425
844.162	23326
844.298	23490
844.435	23330
844.571	23212
844.708	23414
844.844	23551
844.98	23570
845.117	23478
845.253	23376
845.389	23098
845.525	23356
845.661	23170
845.798	23109
845.934	23124
846.07	23071
846.206	23121
846.342	23220
846.478	22949
846.614	22835
846.75	22740
846.886	22866
847.022	22892
847.158	22816
847.294	22915
847.429	22831
847.565	22778
847.701	22999
847.837	22512
847.972	22512
848.108	22618
848.244	22660
848.379	22466
848.515	22402
848.65	22512
848.786	22402
848.921	22413
849.057	22466
849.192	22394
849.328	22455
849.463	22447
849.598	22386
849.734	22287
849.869	22223
850.004	22097
850.14	22097
850.275	22242
850.41	21991
850.545	22143
850.68	22150
850.815	22128
850.95	22048
851.085	22417
851.22	22280
851.355	22192
851.49	22192
851.625	22067
851.76	22143
851.895	22109
852.03	22070
852.165	22173
852.299	22215
852.434	22295
852.569	22177
852.703	22097
852.838	22162
852.973	22295
853.107	22337
853.242	22223
853.376	21876
853.511	21701
853.645	21926
853.78	22063
853.914	22067
854.048	21922
854.183	21968
854.317	22093
854.451	22257
854.585	21812
854.72	22086
854.854	21926
854.988	21835
855.122	21975
855.256	21816
855.39	22002
855.524	22006
855.658	22070
855.792	21987
855.926	21979
856.06	22013
856.194	22112
856.327	21941
856.461	21899
856.595	21960
856.729	21892
856.862	22185
856.996	21975
857.13	22078
857.263	22101
857.397	21979
857.53	21968
857.664	22067
857.797	22032
857.931	22078
858.064	22040
858.197	22109
858.331	21983
858.464	21937
858.597	21800
858.731	21861
858.864	21998
858.997	21865
859.13	21998
859.263	21987
859.396	21953
859.529	21937
859.662	21953
859.795	22006
859.928	21937
860.061	22131
860.194	22223
860.327	22082
860.46	21930
860.592	22204
860.725	22185
860.858	22112
860.99	21903
861.123	21972
861.256	21888
861.388	21903
861.521	22702
861.653	21835
861.786	21854
861.918	21800
862.05	21755
862.183	21892
862.315	21953
862.447	21972
862.58	21888
862.712	21633
862.844	21641
862.976	21827
863.108	21759
863.24	22139
863.372	21641
863.504	21686
863.636	21717
863.768	21644
863.9	21675
864.032	21553
864.164	21644
864.296	21705
864.428	21732
864.559	21671
864.691	21812
864.823	21686
864.954	21568
865.086	21648
865.217	21428
865.349	21477
865.48	21679
865.612	21485
865.743	21675
865.875	21606
866.006	21545
866.137	21462
866.269	21507
866.4	21545
866.531	21572
866.662	21428
866.793	21405
866.924	21591
867.055	21443
867.186	21534
867.317	21466
867.448	21389
867.579	21424
867.71	21412
867.841	21363
867.972	21557
868.103	21496
868.233	21439
868.364	21454
868.495	21542
868.625	21614
868.756	21781
868.886	21641
869.017	21717
869.147	21778
869.278	21816
869.408	21774
869.539	21709
869.669	21823
869.799	21835
869.929	21945
870.06	21869
870.19	22147
870.32	22002
870.45	22116
870.58	22067
870.71	22379
870.84	22299
870.97	22097
871.1	22154
871.23	22386
871.36	22356
871.489	22253
871.619	22238
871.749	22192
871.879	22356
872.008	22246
872.138	22348
872.267	22440
872.397	22188
872.526	22261
872.656	22093
872.785	22177
872.915	22371
873.044	22421
873.173	22242
873.303	22379
873.432	22329
873.561	22481
873.69	22599
873.819	22379
873.948	22382
874.077	22398
874.206	22493
874.335	22371
874.464	22462
874.593	22656
874.722	22569
874.851	22637
874.979	22588
875.108	22546
875.237	22500
875.365	22436
875.494	22447
875.623	22447
875.751	22519
875.88	22588
876.008	22645
876.136	22721
876.265	22965
876.393	22991
876.521	23029
876.65	22995
876.778	22915
876.906	22934
877.034	22869
877.162	22869
877.29	22850
877.418	22915
877.546	22881
877.674	22801
877.802	22843
877.93	22869
878.058	22816
878.185	22691
878.313	22930
878.441	22904
878.568	22748
878.696	22805
878.824	22927
878.951	23041
879.079	23048
879.206	23185
879.333	23128
879.461	23003
879.588	22927
879.715	23018
879.842	23083
879.97	22957
880.097	22744
880.224	22752
880.351	22885
880.478	22763
880.605	22599
880.732	22801
880.859	22854
880.986	22729
881.112	22744
881.239	22656
881.366	22443
881.493	22417
881.619	22268
881.746	22405
881.872	22207
881.999	22272
882.125	22322
882.252	22337
882.378	22303
882.505	22462
882.631	22074
882.757	21956
882.883	22063
883.01	21983
883.136	21998
883.262	21838
883.388	21808
883.514	21987
883.64	21907
883.766	21934
883.892	21793
884.018	21709
884.143	21880
884.269	22059
884.395	21652
884.52	21641
884.646	21542
884.772	21553
884.897	21454
885.023	21606
885.148	21583
885.274	21663
885.399	21747
885.524	21496
885.65	21656
885.775	21698
885.9	21534
886.025	21835
886.15	21739
886.275	21538
886.4	21492
886.525	21644
886.65	21637
886.775	21477
886.9	21671
887.025	21800
887.149	21595
887.274	21481
887.399	21367
887.523	21466
887.648	21283
887.773	21367
887.897	21568
888.021	21424
888.146	21283
888.27	21439
888.395	21447
888.519	21317
888.643	21458
888.767	21447
888.891	21310
889.015	21161
889.139	21287
889.263	21127
889.387	21230
889.511	21367
889.635	21279
889.759	21199
889.883	21074
890.006	21173
890.13	21169
890.254	21039
890.377	21142
890.501	20967
890.624	20891
890.748	21089
890.871	20807
890.995	20792
891.118	20765
891.241	20712
891.364	20686
891.488	20998
891.611	20781
891.734	20674
891.857	20750
891.98	20796
892.103	20765
892.226	20811
892.349	20651
892.471	20400
892.594	20644
892.717	20667
892.839	20575
892.962	20670
893.085	20636
893.207	20533
893.33	20457
893.452	20533
893.575	20602
893.697	20667
893.819	20750
893.941	20765
894.064	20727
894.186	20545
894.308	20514
894.43	20697
894.552	20743
894.674	20762
894.796	20564
894.918	20609
895.04	20522
895.161	20670
895.283	20697
895.405	20514
895.526	20533
895.648	20663
895.769	20655
895.891	20701
896.012	20758
896.134	20644
896.255	20594
896.376	20549
896.498	20617
896.619	20644
896.74	20617
896.861	20617
896.982	20944
897.103	21127
897.224	20819
897.345	20823
897.466	20781
897.587	20792
897.708	20994
897.828	20838
897.949	20872
898.07	20571
898.19	20796
898.311	20735
898.431	20731
898.552	20864
898.672	20948
898.792	20914
898.913	20754
899.033	20629
899.153	20476
899.273	20549
899.393	20522
899.513	20606
899.633	20450
899.753	20552
899.873	20579
899.993	20564
900.113	20381
900.232	20533
900.352	20495
900.472	20343
900.591	20336
900.711	20282
900.83	20320
900.95	20343
901.069	20343
901.189	20161
901.308	19898
901.427	19830
901.546	19875
901.665	19826
901.784	19822
901.904	19788
902.023	19734
902.141	19483
902.26	19544
902.379	19411
902.498	19388
902.617	19301
902.735	19453
902.854	19362
902.973	19278
903.091	19091
903.21	19000
903.328	19019
903.446	18973
903.565	18840
903.683	18981
903.801	18821
903.919	18897
904.038	18916
904.156	18661
904.274	18665
904.392	18604
904.51	18646
904.627	18525
904.745	18673
904.863	18574
904.981	18429
905.098	18330
905.216	18380
905.334	18365
905.451	18353
905.569	18270
905.686	18338
905.803	18277
905.921	18087
906.038	18209
906.155	17977
906.272	18045
906.389	17939
906.506	17855
906.623	17790
906.74	17939
906.857	17718
906.974	17790
907.091	17878
907.208	17920
907.324	17821
907.441	17680
907.557	17592
907.674	17478
907.79	17505
907.907	17539
908.023	17566
908.139	17562
908.256	17570
908.372	17471
908.488	17398
908.604	17318
908.72	17250
908.836	17303
908.952	17307
909.068	17277
909.184	17425
909.3	17303
909.415	17292
909.531	17239
909.647	17086
909.762	16984
909.878	16866
909.993	17014
910.108	16866
910.224	16801
910.339	16877
910.454	16866
910.57	16839
910.685	16698
910.8	16915
910.915	16923
911.03	16778
911.145	16626
911.259	16466
911.374	16611
911.489	16310
911.604	16421
911.718	16265
911.833	16344
911.947	16337
912.062	16177
912.176	16230
912.291	16166
912.405	16287
912.519	16546
912.633	16409
912.748	16303
912.862	16211
912.976	16185
913.09	15975
913.204	16067
913.318	16112
913.431	16223
913.545	16265
913.659	16128
913.772	16131
913.886	15922
914	15937
914.113	15861
914.226	16090
914.34	15926
914.453	15846
914.566	15972
914.68	15766
914.793	15667
914.906	15564
915.019	15477
915.132	15466
915.245	15542
915.358	15568
915.47	15477
915.583	15450
915.696	15523
915.809	15633
915.921	15656
916.034	15435
916.146	15370
916.259	15496
916.371	15439
916.483	15435
916.595	15336
916.708	15378
916.82	15408
916.932	15272
917.044	15275
917.156	15252
917.268	15161
917.38	15116
917.491	15222
917.603	15184
917.715	15233
917.826	15256
917.938	15127
918.049	15005
918.161	15135
918.272	15317
918.384	15249
918.495	15081
918.606	14975
918.717	14918
918.828	14956
918.939	15013
919.05	14941
919.161	14819
919.272	14739
919.383	14796
919.494	15009
919.604	15089
919.715	14925
919.826	14769
919.936	14792
920.047	14838
920.157	14925
920.267	15081
920.378	14834
920.488	14857
920.598	15058
920.708	15081
920.818	15032
920.928	14933
921.038	15157
921.148	15097
921.258	14861
921.368	14648
921.477	14648
921.587	14571
921.697	14419
921.806	14625
921.916	14488
922.025	14309
922.134	14172
922.244	14214
922.353	14366
922.462	14103
922.571	14092
922.68	13883
922.789	13871
922.898	13978
923.007	13818
923.116	13841
923.224	13837
923.333	13879
923.442	13799
923.55	13700
923.659	13731
923.767	13750
923.876	13632
923.984	13734
924.092	13624
924.201	13772
924.309	13605
924.417	13651
924.525	13499
924.633	13590
924.741	14480
924.849	13324
924.956	13495
925.064	13430
925.172	13285
925.279	13327
925.387	13297
925.494	13244
925.602	13346
925.709	13232
925.816	13141
925.924	13289
926.031	13244
926.138	13225
926.245	13301
926.352	13190
926.459	13152
926.566	13297
926.673	13164
926.779	13065
926.886	13027
926.993	12856
927.099	12802
927.206	12802
927.312	12749
927.419	12852
927.525	12814
927.631	12867
927.737	12703
927.843	12741
927.95	12639
928.056	12673
928.162	12631
928.267	12665
928.373	13327
928.479	12760
928.585	12506
928.69	12700
928.796	12608
928.901	12471
929.007	12369
929.112	12551
929.218	12471
929.323	12395
929.428	12395
929.533	12490
929.638	12323
929.743	12281
929.848	12357
929.953	12266
930.058	12216
930.163	12038
930.267	12034
930.372	12251
930.477	11958
930.581	12273
930.685	12045
930.79	11969
930.894	11961
930.998	11939
931.103	12053
931.207	11668
931.311	11562
931.415	11490
931.519	11330
931.623	11246
