Data from test_V78500241_1016.txt Node
Date: Fri Mar 25 15:16:55 CST 2022
User: usil
Spectrometer: V785-0024
Trigger mode: 0
Integration Time (sec): 4.000000E-1
Scans to average: 1
Nonlinearity correction enabled: false
Boxcar width: 0
Storing dark spectrum: false
XAxis mode: Wavelengths
Number of Pixels in Spectrum: 1024
>>>>>Begin Spectral Data<<<<<
801.071	28474
801.214	28329
801.356	28200
801.499	28090
801.641	28082
801.783	28070
801.926	27991
802.068	28051
802.211	28059
802.353	27873
802.496	27751
802.638	27603
802.78	27591
802.923	27652
803.065	27538
803.208	27633
803.35	27671
803.492	27675
803.635	27865
803.777	27705
803.919	27835
804.061	28139
804.204	27785
804.346	27823
804.488	27812
804.63	27743
804.773	27793
804.915	27842
805.057	27972
805.199	27823
805.341	27865
805.483	28036
805.626	28097
805.768	27827
805.91	27956
806.052	27934
806.194	27911
806.336	28185
806.478	28086
806.62	28120
806.762	28181
806.904	28200
807.046	28451
807.188	28497
807.33	28409
807.472	28379
807.614	28322
807.756	28443
807.898	28314
808.04	28207
808.182	28303
808.324	28188
808.465	28398
808.607	28451
808.749	28615
808.891	28721
809.033	28843
809.174	28577
809.316	28634
809.458	28615
809.6	28683
809.741	28748
809.883	28759
810.025	28927
810.166	28980
810.308	28862
810.45	28877
810.591	28858
810.733	28843
810.875	28759
811.016	28573
811.158	28523
811.299	28713
811.441	28949
811.582	28809
811.724	28835
811.865	28565
812.007	28649
812.148	28622
812.29	28577
812.431	28786
812.573	29109
812.714	29181
812.855	29208
812.997	29208
813.138	29493
813.279	29429
813.421	29159
813.562	29212
813.703	28919
813.845	29041
813.986	28797
814.127	28417
814.268	28382
814.41	28405
814.551	28390
814.692	28356
814.833	28223
814.974	28284
815.115	28432
815.256	28246
815.397	28230
815.539	28261
815.68	28139
815.821	28173
815.962	28295
816.103	28154
816.244	28093
816.385	28006
816.526	28093
816.666	27800
816.807	27724
816.948	27819
817.089	27778
817.23	27724
817.371	27709
817.512	27698
817.653	27641
817.793	27663
817.934	27713
818.075	27827
818.216	27572
818.356	27686
818.497	27538
818.638	27363
818.778	27374
818.919	27450
819.06	27447
819.2	27576
819.341	27549
819.481	27618
819.622	27759
819.762	27983
819.903	27861
820.043	27979
820.184	27728
820.324	27812
820.465	27739
820.605	27698
820.746	27823
820.886	27644
821.026	27759
821.167	27690
821.307	27930
821.447	27667
821.588	27587
821.728	27443
821.868	27325
822.008	27192
822.149	27116
822.289	27142
822.429	26967
822.569	26830
822.709	26986
822.849	26731
822.99	26594
823.13	26594
823.27	26629
823.41	26419
823.55	26374
823.69	26427
823.83	26678
823.97	26355
824.11	26278
824.25	26347
824.389	26400
824.529	26461
824.669	26442
824.809	26393
824.949	26476
825.089	26457
825.228	26389
825.368	26263
825.508	26256
825.648	26218
825.787	26336
825.927	26389
826.067	26168
826.206	26142
826.346	26256
826.485	26183
826.625	26278
826.765	26355
826.904	26225
827.044	26142
827.183	25921
827.323	25978
827.462	25997
827.601	25989
827.741	25822
827.88	25944
828.02	25986
828.159	25898
828.298	25894
828.437	26126
828.577	25833
828.716	26111
828.855	25917
828.994	25605
829.134	25597
829.273	25677
829.412	25670
829.551	25662
829.69	25662
829.829	25719
829.968	25731
830.107	25590
830.246	25613
830.385	25696
830.524	25647
830.663	25529
830.802	25479
830.941	25316
831.08	25343
831.219	25430
831.357	25343
831.496	25521
831.635	25282
831.774	25164
831.913	25088
832.051	25209
832.19	25053
832.329	25091
832.467	24886
832.606	25008
832.744	24962
832.883	24977
833.022	24844
833.16	24939
833.299	25046
833.437	25004
833.576	25012
833.714	24871
833.852	25038
833.991	25057
834.129	25069
834.267	25137
834.406	25046
834.544	25168
834.682	25103
834.821	25080
834.959	25152
835.097	24958
835.235	24947
835.373	25084
835.511	25069
835.65	24871
835.788	24886
835.926	24719
836.064	24734
836.202	24757
836.34	24867
836.478	24924
836.615	24897
836.753	24928
836.891	25050
837.029	24844
837.167	24719
837.305	24726
837.443	24696
837.58	24734
837.718	24856
837.856	24738
837.993	24681
838.131	24707
838.269	24486
838.406	24509
838.544	24566
838.681	24342
838.819	24292
838.956	24258
839.094	24159
839.231	24194
839.369	24174
839.506	24528
839.643	24395
839.781	24095
839.918	24022
840.055	24171
840.193	24148
840.33	24057
840.467	24083
840.604	23980
840.742	24285
840.879	23908
841.016	23935
841.153	23999
841.29	24136
841.427	24007
841.564	24026
841.701	24018
841.838	24140
841.975	23973
842.112	23999
842.249	23885
842.385	23786
842.522	24060
842.659	23866
842.796	23832
842.933	23847
843.069	23840
843.206	23809
843.343	23912
843.479	23783
843.616	23885
843.752	23691
843.889	23562
844.025	23707
844.162	23516
844.298	23756
844.435	23493
844.571	23703
844.708	23649
844.844	23733
844.98	23691
845.117	23707
845.253	23497
845.389	23516
845.525	23467
845.661	23486
845.798	23261
845.934	23410
846.07	23235
846.206	23372
846.342	23497
846.478	23322
846.614	23143
846.75	23094
846.886	23006
847.022	23208
847.158	23075
847.294	23098
847.429	22976
847.565	23037
847.701	23296
847.837	22877
847.972	22660
848.108	22854
848.244	22812
848.379	22713
848.515	22569
848.65	22630
848.786	22656
848.921	22500
849.057	22790
849.192	22744
849.328	22607
849.463	22622
849.598	22527
849.734	22546
849.869	22519
850.004	22462
850.14	22474
850.275	22531
850.41	22360
850.545	22306
850.68	22436
850.815	22447
850.95	22443
851.085	22497
851.22	22527
851.355	22455
851.49	22333
851.625	22436
851.76	22318
851.895	22238
852.03	22280
852.165	22287
852.299	22440
852.434	22466
852.569	22459
852.703	22398
852.838	22504
852.973	22615
853.107	22577
853.242	22405
853.376	22287
853.511	22154
853.645	22112
853.78	22329
853.914	22143
854.048	22192
854.183	22215
854.317	22265
854.451	22390
854.585	22238
854.72	22169
854.854	22276
854.988	22143
855.122	22261
855.256	22070
855.39	22230
855.524	22287
855.658	22253
855.792	22306
855.926	22272
856.06	22238
856.194	22249
856.327	22257
856.461	22219
856.595	22112
856.729	22204
856.862	22268
856.996	22234
857.13	22284
857.263	22386
857.397	22291
857.53	22257
857.664	22265
857.797	22295
857.931	22344
858.064	22253
858.197	22314
858.331	22268
858.464	22025
858.597	22070
858.731	22204
858.864	22116
858.997	22200
859.13	22329
859.263	22230
859.396	22265
859.529	22188
859.662	22192
859.795	22200
859.928	22135
860.061	22234
860.194	22546
860.327	22238
860.46	22135
860.592	22341
860.725	22360
860.858	22310
860.99	22314
861.123	21960
861.256	22173
861.388	22265
861.521	22763
861.653	22082
861.786	22006
861.918	22074
862.05	22086
862.183	22044
862.315	22188
862.447	22257
862.58	22162
862.712	21880
862.844	21880
862.976	22040
863.108	21945
863.24	22325
863.372	21918
863.504	21949
863.636	21895
863.768	22006
863.9	22002
864.032	21918
864.164	21998
864.296	21903
864.428	22013
864.559	21934
864.691	21884
864.823	21835
864.954	21937
865.086	21907
865.217	21991
865.349	21762
865.48	21785
865.612	21941
865.743	21876
865.875	21743
866.006	21789
866.137	21739
866.269	21724
866.4	21895
866.531	21728
866.662	21812
866.793	21743
866.924	21766
867.055	21751
867.186	21637
867.317	21762
867.448	21671
867.579	21728
867.71	21660
867.841	21641
867.972	21812
868.103	21576
868.233	21728
868.364	21622
868.495	21751
868.625	21926
868.756	22120
868.886	21793
869.017	21945
869.147	22063
869.278	21972
869.408	21998
869.539	22078
869.669	22116
869.799	21975
869.929	22036
870.06	22063
870.19	22291
870.32	22246
870.45	22253
870.58	22413
870.71	22367
870.84	22405
870.97	22322
871.1	22299
871.23	22527
871.36	22489
871.489	22523
871.619	22542
871.749	22542
871.879	22573
872.008	22580
872.138	22561
872.267	22577
872.397	22440
872.526	22466
872.656	22310
872.785	22421
872.915	22561
873.044	22622
873.173	22637
873.303	22691
873.432	22653
873.561	22660
873.69	22550
873.819	22622
873.948	22599
874.077	22641
874.206	22512
874.335	22527
874.464	22649
874.593	22877
874.722	22820
874.851	22763
874.979	22839
875.108	22866
875.237	22679
875.365	22634
875.494	22778
875.623	22824
875.751	22694
875.88	22820
876.008	22949
876.136	22980
876.265	23006
876.393	23311
876.521	23254
876.65	23189
876.778	23189
876.906	23079
877.034	23128
877.162	22976
877.29	23006
877.418	23155
877.546	23086
877.674	23166
877.802	23113
877.93	23083
878.058	22991
878.185	23037
878.313	23033
878.441	23098
878.568	22889
878.696	23041
878.824	23166
878.951	23170
879.079	23231
879.206	23395
879.333	23372
879.461	23041
879.588	23208
879.715	23421
879.842	23444
879.97	23326
880.097	22934
880.224	22873
880.351	22991
880.478	23048
880.605	22889
880.732	22911
880.859	23147
880.986	23064
881.112	22752
881.239	22828
881.366	22622
881.493	22523
881.619	22413
881.746	22512
881.872	22592
881.999	22405
882.125	22363
882.252	22550
882.378	22451
882.505	22588
882.631	22337
882.757	22226
882.883	22337
883.01	22287
883.136	22322
883.262	22002
883.388	21994
883.514	22207
883.64	22242
883.766	22124
883.892	21968
884.018	21941
884.143	22196
884.269	22086
884.395	21934
884.52	21690
884.646	21941
884.772	21701
884.897	21739
885.023	21774
885.148	21880
885.274	21960
885.399	21827
885.524	21835
885.65	21793
885.775	21755
885.9	21804
886.025	21869
886.15	21842
886.275	21808
886.4	21732
886.525	21720
886.65	21595
886.775	21591
886.9	21930
887.025	22013
887.149	21720
887.274	21671
887.399	21583
887.523	21667
887.648	21545
887.773	21507
887.897	21663
888.021	21629
888.146	21564
888.27	21663
888.395	21667
888.519	21599
888.643	21606
888.767	21606
888.891	21587
889.015	21439
889.139	21538
889.263	21321
889.387	21466
889.511	21447
889.635	21583
889.759	21291
889.883	21218
890.006	21439
890.13	21469
890.254	21287
890.377	21329
890.501	21146
890.624	21085
890.748	21169
890.871	20902
890.995	20891
891.118	20929
891.241	20986
891.364	20887
891.488	21081
891.611	20990
891.734	20971
891.857	21039
891.98	20891
892.103	20880
892.226	20918
892.349	20960
892.471	20708
892.594	20861
892.717	20883
892.839	20773
892.962	20895
893.085	20811
893.207	20929
893.33	20701
893.452	20777
893.575	20925
893.697	20724
893.819	20792
893.941	21009
894.064	20910
894.186	20663
894.308	20762
894.43	20910
894.552	21058
894.674	20868
894.796	20746
894.918	20823
895.04	20693
895.161	20933
895.283	20777
895.405	20781
895.526	20781
895.648	20743
895.769	20899
895.891	20868
896.012	20811
896.134	20823
896.255	20842
896.376	20777
896.498	20716
896.619	20876
896.74	20739
896.861	20819
896.982	21001
897.103	21226
897.224	21096
897.345	21062
897.466	20941
897.587	20918
897.708	21218
897.828	20956
897.949	20925
898.07	20807
898.19	20864
898.311	21013
898.431	20956
898.552	21005
898.672	21020
898.792	21055
898.913	21058
899.033	20967
899.153	20773
899.273	20708
899.393	20735
899.513	20823
899.633	20792
899.753	20735
899.873	20590
899.993	20689
900.113	20655
900.232	20640
900.352	20625
900.472	20571
900.591	20518
900.711	20499
900.83	20438
900.95	20488
901.069	20625
901.189	20393
901.308	20092
901.427	19982
901.546	20065
901.665	20096
901.784	20043
901.904	19970
902.023	19784
902.141	19700
902.26	19537
902.379	19731
902.498	19613
902.617	19518
902.735	19586
902.854	19578
902.973	19552
903.091	19270
903.21	19206
903.328	19171
903.446	19103
903.565	19000
903.683	19042
903.801	18924
903.919	18897
904.038	19091
904.156	18901
904.274	18829
904.392	18821
904.51	18844
904.627	18844
904.745	18890
904.863	18802
904.981	18563
905.098	18445
905.216	18479
905.334	18525
905.451	18403
905.569	18452
905.686	18517
905.803	18422
905.921	18323
906.038	18330
906.155	18155
906.272	18098
906.389	18140
906.506	18091
906.623	18003
906.74	18003
906.857	17824
906.974	17950
907.091	18095
907.208	18026
907.324	18034
907.441	17946
907.557	17745
907.674	17821
907.79	17695
907.907	17668
908.023	17733
908.139	17764
908.256	17752
908.372	17558
908.488	17615
908.604	17528
908.72	17372
908.836	17505
908.952	17501
909.068	17425
909.184	17467
909.3	17395
909.415	17486
909.531	17360
909.647	17185
909.762	17102
909.878	17086
909.993	17143
910.108	17117
910.224	17155
910.339	17098
910.454	16911
910.57	17003
910.685	16809
910.8	17132
910.915	17018
911.03	16873
911.145	16698
911.259	16668
911.374	16755
911.489	16664
911.604	16634
911.718	16398
911.833	16466
911.947	16306
912.062	16287
912.176	16413
912.291	16421
912.405	16428
912.519	16558
912.633	16687
912.748	16531
912.862	16379
912.976	16287
913.09	16112
913.204	16234
913.318	16287
913.431	16325
913.545	16310
913.659	16299
913.772	16226
913.886	16135
914	16131
914.113	16246
914.226	16150
914.34	16086
914.453	15979
914.566	16048
914.68	15895
914.793	15953
914.906	15698
915.019	15644
915.132	15603
915.245	15667
915.358	15648
915.47	15800
915.583	15553
915.696	15648
915.809	15785
915.921	15755
916.034	15591
916.146	15614
916.259	15557
916.371	15523
916.483	15519
916.595	15469
916.708	15553
916.82	15462
916.932	15405
917.044	15405
917.156	15374
917.268	15180
917.38	15298
917.491	15256
917.603	15249
917.715	15355
917.826	15340
917.938	15188
918.049	15036
918.161	15192
918.272	15359
918.384	15321
918.495	15199
918.606	15070
918.717	14963
918.828	15074
918.939	15093
919.05	14990
919.161	15039
919.272	14693
919.383	14842
919.494	15058
919.604	15241
919.715	14967
919.826	14883
919.936	14998
920.047	15085
920.157	15009
920.267	15123
920.378	14956
920.488	14853
920.598	15062
920.708	15192
920.818	15062
920.928	15055
921.038	15256
921.148	15211
921.258	14941
921.368	14868
921.477	14708
921.587	14606
921.697	14568
921.806	14800
921.916	14610
922.025	14404
922.134	14366
922.244	14358
922.353	14362
922.462	14237
922.571	14100
922.68	14065
922.789	13993
922.898	13940
923.007	13788
923.116	14020
923.224	13940
923.333	13887
923.442	13681
923.55	13811
923.659	13738
923.767	13963
923.876	13765
923.984	13795
924.092	13708
924.201	13750
924.309	13700
924.417	13704
924.525	13712
924.633	13655
924.741	14533
924.849	13381
924.956	13696
925.064	13400
925.172	13343
925.279	13411
925.387	13441
925.494	13324
925.602	13441
925.709	13472
925.816	13282
925.924	13202
926.031	13487
926.138	13278
926.245	13282
926.352	13129
926.459	13354
926.566	13384
926.673	13324
926.779	13145
926.886	13080
926.993	12924
927.099	12947
927.206	12897
927.312	12821
927.419	13004
927.525	12901
927.631	12947
927.737	12806
927.843	12772
927.95	12654
928.056	12757
928.162	12681
928.267	12715
928.373	13244
928.479	12863
928.585	12608
928.69	12715
928.796	12734
928.901	12627
929.007	12494
929.112	12601
929.218	12509
929.323	12464
929.428	12410
929.533	12540
929.638	12391
929.743	12365
929.848	12407
929.953	12418
930.058	12285
930.163	12148
930.267	12087
930.372	12182
930.477	12117
930.581	12300
930.685	12152
930.79	11999
930.894	12045
930.998	11996
931.103	12140
931.207	11775
931.311	11760
931.415	11608
931.519	11345
931.623	11360
