Data from test_V78500241_2791.txt Node
Date: Fri Mar 25 15:29:17 CST 2022
User: usil
Spectrometer: V785-0024
Trigger mode: 0
Integration Time (sec): 4.000000E-1
Scans to average: 1
Nonlinearity correction enabled: false
Boxcar width: 0
Storing dark spectrum: false
XAxis mode: Wavelengths
Number of Pixels in Spectrum: 1024
>>>>>Begin Spectral Data<<<<<
801.071	27165
801.214	26990
801.356	26815
801.499	26735
801.641	26617
801.783	26663
801.926	26708
802.068	26682
802.211	26663
802.353	26587
802.496	26473
802.638	26343
802.78	26278
802.923	26240
803.065	26195
803.208	26275
803.35	26305
803.492	26457
803.635	26511
803.777	26389
803.919	26587
804.061	26762
804.204	26495
804.346	26336
804.488	26298
804.63	26408
804.773	26275
804.915	26651
805.057	26549
805.199	26343
805.341	26507
805.483	26606
805.626	26541
805.768	26526
805.91	26617
806.052	26724
806.194	26396
806.336	26663
806.478	26564
806.62	26636
806.762	26830
806.904	26952
807.046	27230
807.188	26975
807.33	26937
807.472	27081
807.614	26895
807.756	26902
807.898	26796
808.04	26807
808.182	26712
808.324	26842
808.465	26876
808.607	27096
808.749	27093
808.891	27230
809.033	27473
809.174	27416
809.316	27154
809.458	27355
809.6	27108
809.741	27306
809.883	27241
810.025	27321
810.166	27530
810.308	27389
810.45	27386
810.591	27279
810.733	27131
810.875	27211
811.016	27093
811.158	27085
811.299	27302
811.441	27336
811.582	27401
811.724	27188
811.865	27245
812.007	27211
812.148	27055
812.29	27089
812.431	27420
812.573	27367
812.714	27690
812.855	27553
812.997	27682
813.138	27945
813.279	27766
813.421	27599
813.562	27663
813.703	27351
813.845	27351
813.986	26994
814.127	26918
814.268	26891
814.41	26727
814.551	26804
814.692	26746
814.833	26758
814.974	26815
815.115	26872
815.256	26617
815.397	26720
815.539	26686
815.68	26746
815.821	26518
815.962	26629
816.103	26632
816.244	26488
816.385	26438
816.526	26290
816.666	26172
816.807	26058
816.948	26206
817.089	26122
817.23	26225
817.371	26081
817.512	26107
817.653	26077
817.793	25940
817.934	26111
818.075	26168
818.216	26016
818.356	25978
818.497	25883
818.638	25788
818.778	25898
818.919	25822
819.06	26031
819.2	25951
819.341	26054
819.481	25944
819.622	26107
819.762	26495
819.903	26362
820.043	26313
820.184	26237
820.324	26183
820.465	26225
820.605	26122
820.746	26107
820.886	26065
821.026	26161
821.167	26100
821.307	26161
821.447	26027
821.588	26050
821.728	25879
821.868	25772
822.008	25575
822.149	25518
822.289	25601
822.429	25293
822.569	25145
822.709	25202
822.849	25137
822.99	25038
823.13	25103
823.27	25053
823.41	24932
823.55	24806
823.69	24856
823.83	24802
823.97	24791
824.11	24631
824.25	24623
824.389	24658
824.529	24681
824.669	24623
824.809	24639
824.949	24734
825.089	24681
825.228	24684
825.368	24391
825.508	24544
825.648	24475
825.787	24525
825.927	24540
826.067	24631
826.206	24433
826.346	24509
826.485	24715
826.625	24498
826.765	24612
826.904	24566
827.044	24327
827.183	24395
827.323	24235
827.462	24285
827.601	24308
827.741	24194
827.88	24152
828.02	24106
828.159	24140
828.298	24254
828.437	24342
828.577	24239
828.716	24262
828.855	24121
828.994	23897
829.134	23897
829.273	24011
829.412	23870
829.551	23996
829.69	23878
829.829	23874
829.968	23942
830.107	23992
830.246	23882
830.385	23908
830.524	23882
830.663	23684
830.802	23710
830.941	23634
831.08	23474
831.219	23531
831.357	23444
831.496	23760
831.635	23657
831.774	23493
831.913	23474
832.051	23334
832.19	23356
832.329	23429
832.467	23288
832.606	23197
832.744	23197
832.883	23200
833.022	23147
833.16	23121
833.299	23288
833.437	23299
833.576	23299
833.714	23189
833.852	23376
833.991	23341
834.129	23376
834.267	23414
834.406	23261
834.544	23258
834.682	23231
834.821	23227
834.959	23455
835.097	23227
835.235	23448
835.373	23345
835.511	23265
835.65	23197
835.788	23170
835.926	22953
836.064	22900
836.202	22892
836.34	23067
836.478	23231
836.615	23102
836.753	23048
836.891	23223
837.029	23128
837.167	22987
837.305	23121
837.443	23010
837.58	23037
837.718	22934
837.856	23029
837.993	22854
838.131	22942
838.269	22854
838.406	22820
838.544	22847
838.681	22672
838.819	22584
838.956	22512
839.094	22592
839.231	22584
839.369	22679
839.506	22843
839.643	22691
839.781	22398
839.918	22451
840.055	22386
840.193	22527
840.33	22299
840.467	22462
840.604	22352
840.742	22615
840.879	22150
841.016	22322
841.153	22360
841.29	22474
841.427	22375
841.564	22318
841.701	22413
841.838	22265
841.975	22257
842.112	22284
842.249	22284
842.385	22200
842.522	22447
842.659	22352
842.796	22051
842.933	22070
843.069	21994
843.206	22097
843.343	22097
843.479	22169
843.616	22105
843.752	21827
843.889	21953
844.025	21991
844.162	21915
844.298	21975
844.435	22002
844.571	21823
844.708	21911
844.844	22048
844.98	22055
845.117	21956
845.253	21854
845.389	21835
845.525	21755
845.661	21736
845.798	21720
845.934	21618
846.07	21580
846.206	21682
846.342	21797
846.478	21580
846.614	21469
846.75	21428
846.886	21447
847.022	21477
847.158	21317
847.294	21435
847.429	21431
847.565	21283
847.701	21523
847.837	21184
847.972	21188
848.108	21272
848.244	21108
848.379	20956
848.515	20986
848.65	20986
848.786	21028
848.921	20982
849.057	21074
849.192	20986
849.328	21119
849.463	20998
849.598	20910
849.734	20731
849.869	20937
850.004	20727
850.14	20792
850.275	20674
850.41	20686
850.545	20708
850.68	20636
850.815	20773
850.95	20602
851.085	20925
851.22	20845
851.355	20754
851.49	20777
851.625	20606
851.76	20724
851.895	20640
852.03	20731
852.165	20697
852.299	20705
852.434	20781
852.569	20762
852.703	20735
852.838	20765
852.973	20735
853.107	20891
853.242	20769
853.376	20571
853.511	20431
853.645	20469
853.78	20697
853.914	20522
854.048	20454
854.183	20488
854.317	20648
854.451	20617
854.585	20590
854.72	20507
854.854	20655
854.988	20488
855.122	20522
855.256	20587
855.39	20530
855.524	20697
855.658	20674
855.792	20511
855.926	20575
856.06	20617
856.194	20708
856.327	20522
856.461	20385
856.595	20503
856.729	20545
856.862	20575
856.996	20511
857.13	20507
857.263	20594
857.397	20754
857.53	20389
857.664	20571
857.797	20655
857.931	20511
858.064	20636
858.197	20571
858.331	20583
858.464	20511
858.597	20343
858.731	20537
858.864	20564
858.997	20560
859.13	20522
859.263	20575
859.396	20644
859.529	20530
859.662	20415
859.795	20530
859.928	20545
860.061	20651
860.194	20705
860.327	20530
860.46	20609
860.592	20636
860.725	20731
860.858	20689
860.99	20473
861.123	20473
861.256	20609
861.388	20594
861.521	21218
861.653	20541
861.786	20332
861.918	20427
862.05	20423
862.183	20446
862.315	20396
862.447	20545
862.58	20492
862.712	20263
862.844	20244
862.976	20423
863.108	20381
863.24	20819
863.372	20168
863.504	20309
863.636	20328
863.768	20385
863.9	20275
864.032	20214
864.164	20294
864.296	20282
864.428	20366
864.559	20320
864.691	20305
864.823	20248
864.954	20336
865.086	20294
865.217	20221
865.349	20103
865.48	20286
865.612	20191
865.743	20210
865.875	20115
866.006	20202
866.137	20351
866.269	20183
866.4	20142
866.531	20187
866.662	20012
866.793	20195
866.924	20084
867.055	20077
867.186	20134
867.317	20229
867.448	20088
867.579	20145
867.71	20046
867.841	20145
867.972	20039
868.103	20062
868.233	20195
868.364	20218
868.495	20199
868.625	20317
868.756	20571
868.886	20313
869.017	20434
869.147	20518
869.278	20511
869.408	20309
869.539	20282
869.669	20404
869.799	20473
869.929	20332
870.06	20522
870.19	20705
870.32	20682
870.45	20682
870.58	20727
870.71	20906
870.84	20826
870.97	20758
871.1	20796
871.23	20921
871.36	21028
871.489	20929
871.619	20956
871.749	20994
871.879	21070
872.008	21020
872.138	20937
872.267	20918
872.397	20857
872.526	20792
872.656	20788
872.785	20807
872.915	20994
873.044	20952
873.173	20963
873.303	21009
873.432	20982
873.561	21058
873.69	20960
873.819	21051
873.948	21119
874.077	21017
874.206	20906
874.335	21062
874.464	21013
874.593	21211
874.722	21279
874.851	21359
874.979	21199
875.108	21355
875.237	21142
875.365	21199
875.494	21142
875.623	21298
875.751	21230
875.88	21214
876.008	21523
876.136	21424
876.265	21667
876.393	21732
876.521	21633
876.65	21667
876.778	21610
876.906	21583
877.034	21648
877.162	21481
877.29	21485
877.418	21545
877.546	21553
877.674	21523
877.802	21557
877.93	21606
878.058	21675
878.185	21504
878.313	21675
878.441	21492
878.568	21382
878.696	21614
878.824	21648
878.951	21629
879.079	21778
879.206	21953
879.333	21705
879.461	21728
879.588	21648
879.715	21679
879.842	21835
879.97	21610
880.097	21519
880.224	21408
880.351	21416
880.478	21447
880.605	21393
880.732	21435
880.859	21667
880.986	21507
881.112	21351
881.239	21306
881.366	21131
881.493	21112
881.619	21043
881.746	20971
881.872	20933
881.999	20899
882.125	20914
882.252	20967
882.378	20933
882.505	21047
882.631	20918
882.757	20701
882.883	20887
883.01	20769
883.136	20598
883.262	20693
883.388	20476
883.514	20716
883.64	20731
883.766	20746
883.892	20507
884.018	20404
884.143	20659
884.269	20663
884.395	20389
884.52	20324
884.646	20370
884.772	20145
884.897	20202
885.023	20301
885.148	20530
885.274	20518
885.399	20446
885.524	20370
885.65	20358
885.775	20389
885.9	20278
886.025	20404
886.15	20427
886.275	20263
886.4	20229
886.525	20267
886.65	20343
886.775	20362
886.9	20336
887.025	20511
887.149	20259
887.274	20119
887.399	20149
887.523	20157
887.648	20130
887.773	20035
887.897	20237
888.021	20176
888.146	20225
888.27	20221
888.395	20221
888.519	20115
888.643	20164
888.767	20062
888.891	20065
889.015	19974
889.139	19947
889.263	20012
889.387	20005
889.511	20058
889.635	20043
889.759	19849
889.883	19932
890.006	19947
890.13	19944
890.254	19887
890.377	19845
890.501	19761
890.624	19651
890.748	19826
890.871	19609
890.995	19476
891.118	19403
891.241	19624
891.364	19445
891.488	19594
891.611	19518
891.734	19586
891.857	19529
891.98	19567
892.103	19628
892.226	19510
892.349	19487
892.471	19354
892.594	19472
892.717	19426
892.839	19499
892.962	19544
893.085	19586
893.207	19419
893.33	19331
893.452	19312
893.575	19335
893.697	19495
893.819	19491
893.941	19586
894.064	19624
894.186	19403
894.308	19453
894.43	19567
894.552	19594
894.674	19521
894.796	19297
894.918	19464
895.04	19400
895.161	19487
895.283	19434
895.405	19533
895.526	19445
895.648	19434
895.769	19468
895.891	19430
896.012	19529
896.134	19464
896.255	19422
896.376	19335
896.498	19316
896.619	19449
896.74	19377
896.861	19377
896.982	19655
897.103	19970
897.224	19826
897.345	19601
897.466	19674
897.587	19628
897.708	19868
897.828	19700
897.949	19605
898.07	19453
898.19	19647
898.311	19761
898.431	19571
898.552	19620
898.672	19795
898.792	19731
898.913	19613
899.033	19601
899.153	19601
899.273	19468
899.393	19415
899.513	19445
899.633	19499
899.753	19457
899.873	19350
899.993	19540
900.113	19468
900.232	19316
900.352	19422
900.472	19247
900.591	19190
900.711	19247
900.83	19209
900.95	19422
901.069	19381
901.189	19160
901.308	18909
901.427	18734
901.546	18962
901.665	18795
901.784	18909
901.904	18711
902.023	18612
902.141	18327
902.26	18407
902.379	18388
902.498	18353
902.617	18365
902.735	18292
902.854	18266
902.973	18262
903.091	17958
903.21	17980
903.328	17901
903.446	17920
903.565	17859
903.683	17874
903.801	17691
903.919	17764
904.038	17809
904.156	17581
904.274	17733
904.392	17554
904.51	17630
904.627	17649
904.745	17695
904.863	17611
904.981	17341
905.098	17280
905.216	17265
905.334	17299
905.451	17288
905.569	17269
905.686	17288
905.803	17383
905.921	17094
906.038	17151
906.155	17102
906.272	17022
906.389	17022
906.506	16972
906.623	16854
906.74	16755
906.857	16660
906.974	16748
907.091	16873
907.208	16896
907.324	16835
907.441	16653
907.557	16573
907.674	16542
907.79	16500
907.907	16481
908.023	16519
908.139	16481
908.256	16497
908.372	16466
908.488	16371
908.604	16287
908.72	16329
908.836	16272
908.952	16253
909.068	16242
909.184	16360
909.3	16207
909.415	16379
909.531	16223
909.647	15899
909.762	15983
909.878	15911
909.993	16021
910.108	16029
910.224	15941
910.339	16036
910.454	15895
910.57	15793
910.685	15743
910.8	15960
910.915	15884
911.03	15644
911.145	15671
911.259	15652
911.374	15595
911.489	15614
911.604	15545
911.718	15249
911.833	15389
911.947	15279
912.062	15272
912.176	15348
912.291	15393
912.405	15355
912.519	15637
912.633	15523
912.748	15329
912.862	15256
912.976	15104
913.09	15028
913.204	15089
913.318	15150
913.431	15241
913.545	15283
913.659	15279
913.772	15097
913.886	14994
914	14842
914.113	15070
914.226	15051
914.34	15062
914.453	14826
914.566	15020
914.68	14804
914.793	14845
914.906	14663
915.019	14583
915.132	14438
915.245	14549
915.358	14594
915.47	14571
915.583	14579
915.696	14552
915.809	14697
915.921	14712
916.034	14480
916.146	14480
916.259	14488
916.371	14583
916.483	14560
916.595	14446
916.708	14400
916.82	14499
916.932	14408
917.044	14320
917.156	14366
917.268	14309
917.38	14336
917.491	14252
917.603	14244
917.715	14393
917.826	14351
917.938	14138
918.049	14123
918.161	14237
918.272	14256
918.384	14332
918.495	14225
918.606	14138
918.717	13989
918.828	14005
918.939	14035
919.05	13928
919.161	14073
919.272	13894
919.383	13917
919.494	14058
919.604	14195
919.715	13898
919.826	13841
919.936	13951
920.047	14039
920.157	14039
920.267	14172
920.378	14035
920.488	14050
920.598	14126
920.708	14256
920.818	14153
920.928	14046
921.038	14336
921.148	14237
921.258	13921
921.368	13902
921.477	13856
921.587	13693
921.697	13658
921.806	13731
921.916	13655
922.025	13510
922.134	13407
922.244	13411
922.353	13472
922.462	13350
922.571	13251
922.68	12996
922.789	13107
922.898	13072
923.007	12985
923.116	13080
923.224	13015
923.333	12970
923.442	12928
923.55	12897
923.659	12909
923.767	12856
923.876	12867
923.984	12897
924.092	12730
924.201	12901
924.309	12814
924.417	12791
924.525	12639
924.633	12749
924.741	13529
924.849	12521
924.956	12631
925.064	12544
925.172	12399
925.279	12479
925.387	12479
925.494	12532
925.602	12525
925.709	12528
925.816	12281
925.924	12452
926.031	12509
926.138	12540
926.245	12479
926.352	12395
926.459	12418
926.566	12456
926.673	12422
926.779	12224
926.886	12216
926.993	12171
927.099	12060
927.206	12053
927.312	12030
927.419	12117
927.525	12076
927.631	12072
927.737	12003
927.843	11863
927.95	11874
928.056	11901
928.162	11874
928.267	11920
928.373	12612
928.479	11973
928.585	11893
928.69	11847
928.796	11904
928.901	11726
929.007	11634
929.112	11783
929.218	11748
929.323	11729
929.428	11627
929.533	11802
929.638	11509
929.743	11623
929.848	11691
929.953	11482
930.058	11543
930.163	11296
930.267	11387
930.372	11395
930.477	11303
930.581	11566
930.685	11398
930.79	11227
930.894	11235
930.998	11242
931.103	11421
931.207	11003
931.311	10919
931.415	10866
931.519	10641
931.623	10592
