Data from test_V78500241_2863.txt Node
Date: Fri Mar 25 15:29:47 CST 2022
User: usil
Spectrometer: V785-0024
Trigger mode: 0
Integration Time (sec): 4.000000E-1
Scans to average: 1
Nonlinearity correction enabled: false
Boxcar width: 0
Storing dark spectrum: false
XAxis mode: Wavelengths
Number of Pixels in Spectrum: 1024
>>>>>Begin Spectral Data<<<<<
801.071	27066
801.214	26979
801.356	26785
801.499	26670
801.641	26693
801.783	26659
801.926	26693
802.068	26503
802.211	26530
802.353	26488
802.496	26476
802.638	26164
802.78	26180
802.923	26252
803.065	26149
803.208	26054
803.35	26088
803.492	26434
803.635	26415
803.777	26252
803.919	26412
804.061	26762
804.204	26552
804.346	26339
804.488	26290
804.63	26400
804.773	26271
804.915	26370
805.057	26495
805.199	26351
805.341	26438
805.483	26465
805.626	26446
805.768	26393
805.91	26522
806.052	26545
806.194	26381
806.336	26754
806.478	26533
806.62	26507
806.762	26598
806.904	26781
807.046	26944
807.188	26883
807.33	26876
807.472	26883
807.614	26826
807.756	26834
807.898	26762
808.04	26712
808.182	26625
808.324	26743
808.465	26788
808.607	26975
808.749	27077
808.891	27112
809.033	27199
809.174	27165
809.316	27138
809.458	27032
809.6	27203
809.741	27199
809.883	27222
810.025	27378
810.166	27355
810.308	27287
810.45	27291
810.591	27268
810.733	27051
810.875	27104
811.016	27112
811.158	26845
811.299	27173
811.441	27226
811.582	27302
811.724	27093
811.865	27131
812.007	27017
812.148	27066
812.29	27108
812.431	27268
812.573	27397
812.714	27492
812.855	27629
812.997	27698
813.138	27724
813.279	27606
813.421	27557
813.562	27374
813.703	27233
813.845	27237
813.986	27024
814.127	26842
814.268	26670
814.41	26982
814.551	26842
814.692	26811
814.833	26682
814.974	26815
815.115	26689
815.256	26484
815.397	26492
815.539	26629
815.68	26541
815.821	26396
815.962	26495
816.103	26613
816.244	26434
816.385	26377
816.526	26294
816.666	26107
816.807	25989
816.948	26100
817.089	26031
817.23	26058
817.371	26031
817.512	25932
817.653	25875
817.793	25852
817.934	25909
818.075	25932
818.216	25902
818.356	25936
818.497	25841
818.638	25639
818.778	25628
818.919	25746
819.06	25772
819.2	25750
819.341	25947
819.481	25906
819.622	26229
819.762	26336
819.903	26248
820.043	26008
820.184	26031
820.324	26084
820.465	25997
820.605	26054
820.746	26103
820.886	25902
821.026	26027
821.167	26054
821.307	25974
821.447	25978
821.588	25856
821.728	25753
821.868	25655
822.008	25438
822.149	25449
822.289	25575
822.429	25206
822.569	25122
822.709	25145
822.849	25004
822.99	24962
823.13	25004
823.27	24844
823.41	24894
823.55	24589
823.69	24749
823.83	24753
823.97	24715
824.11	24559
824.25	24681
824.389	24559
824.529	24642
824.669	24498
824.809	24726
824.949	24608
825.089	24544
825.228	24505
825.368	24433
825.508	24372
825.648	24365
825.787	24342
825.927	24574
826.067	24471
826.206	24471
826.346	24376
826.485	24544
826.625	24388
826.765	24597
826.904	24513
827.044	24171
827.183	24159
827.323	24015
827.462	24197
827.601	24144
827.741	24064
827.88	24167
828.02	23980
828.159	24041
828.298	24155
828.437	24213
828.577	24110
828.716	24087
828.855	24148
828.994	23885
829.134	23840
829.273	23942
829.412	23824
829.551	23741
829.69	23809
829.829	23863
829.968	24076
830.107	23847
830.246	23870
830.385	23741
830.524	23623
830.663	23760
830.802	23497
830.941	23509
831.08	23429
831.219	23573
831.357	23512
831.496	23794
831.635	23318
831.774	23353
831.913	23159
832.051	23227
832.19	23178
832.329	23212
832.467	23204
832.606	22957
832.744	23029
832.883	23162
833.022	22987
833.16	23204
833.299	23181
833.437	23159
833.576	23220
833.714	23197
833.852	23235
833.991	23143
834.129	23258
834.267	23345
834.406	23212
834.544	23239
834.682	23098
834.821	23090
834.959	23395
835.097	23090
835.235	23220
835.373	23128
835.511	23189
835.65	22984
835.788	23029
835.926	22923
836.064	22797
836.202	22786
836.34	23014
836.478	22957
836.615	22980
836.753	22934
836.891	23006
837.029	22946
837.167	22843
837.305	22934
837.443	22858
837.58	22820
837.718	22915
837.856	22885
837.993	22820
838.131	22759
838.269	22675
838.406	22889
838.544	22744
838.681	22409
838.819	22516
838.956	22360
839.094	22318
839.231	22451
839.369	22554
839.506	22725
839.643	22603
839.781	22363
839.918	22337
840.055	22310
840.193	22268
840.33	22268
840.467	22367
840.604	22310
840.742	22508
840.879	22143
841.016	22105
841.153	22143
841.29	22333
841.427	22253
841.564	22314
841.701	22204
841.838	22147
841.975	22013
842.112	22207
842.249	22219
842.385	22059
842.522	22226
842.659	22135
842.796	22090
842.933	21880
843.069	21926
843.206	21903
843.343	22074
843.479	21983
843.616	21930
843.752	21835
843.889	21831
844.025	21861
844.162	21728
844.298	21930
844.435	21633
844.571	21675
844.708	21857
844.844	22063
844.98	21975
845.117	21812
845.253	21812
845.389	21743
845.525	21698
845.661	21583
845.798	21549
845.934	21515
846.07	21542
846.206	21603
846.342	21561
846.478	21530
846.614	21336
846.75	21317
846.886	21317
847.022	21359
847.158	21416
847.294	21272
847.429	21321
847.565	21146
847.701	21469
847.837	20952
847.972	20929
848.108	21104
848.244	20998
848.379	20883
848.515	20891
848.65	20872
848.786	20800
848.921	20842
849.057	20918
849.192	20963
849.328	20906
849.463	20960
849.598	20902
849.734	20819
849.869	20693
850.004	20564
850.14	20598
850.275	20571
850.41	20537
850.545	20568
850.68	20594
850.815	20746
850.95	20693
851.085	20872
851.22	20724
851.355	20609
851.49	20537
851.625	20583
851.76	20651
851.895	20556
852.03	20575
852.165	20602
852.299	20602
852.434	20609
852.569	20621
852.703	20598
852.838	20640
852.973	20693
853.107	20686
853.242	20461
853.376	20362
853.511	20317
853.645	20332
853.78	20579
853.914	20518
854.048	20404
854.183	20492
854.317	20533
854.451	20602
854.585	20469
854.72	20412
854.854	20427
854.988	20351
855.122	20438
855.256	20339
855.39	20461
855.524	20446
855.658	20415
855.792	20431
855.926	20434
856.06	20571
856.194	20484
856.327	20404
856.461	20358
856.595	20427
856.729	20503
856.862	20461
856.996	20499
857.13	20587
857.263	20404
857.397	20480
857.53	20415
857.664	20446
857.797	20454
857.931	20594
858.064	20450
858.197	20670
858.331	20343
858.464	20320
858.597	20377
858.731	20412
858.864	20415
858.997	20503
859.13	20370
859.263	20461
859.396	20427
859.529	20385
859.662	20385
859.795	20336
859.928	20427
860.061	20450
860.194	20629
860.327	20412
860.46	20374
860.592	20537
860.725	20579
860.858	20636
860.99	20465
861.123	20450
861.256	20419
861.388	20294
861.521	21085
861.653	20271
861.786	20240
861.918	20157
862.05	20362
862.183	20278
862.315	20404
862.447	20541
862.58	20305
862.712	20328
862.844	20130
862.976	20145
863.108	20301
863.24	20644
863.372	20282
863.504	20122
863.636	20031
863.768	20298
863.9	20195
864.032	20130
864.164	20161
864.296	20149
864.428	20301
864.559	20240
864.691	20199
864.823	20256
864.954	20050
865.086	20187
865.217	20191
865.349	19890
865.48	20031
865.612	20050
865.743	20176
865.875	20081
866.006	20077
866.137	20008
866.269	20050
866.4	20145
866.531	19989
866.662	19868
866.793	19986
866.924	19898
867.055	19989
867.186	20081
867.317	19974
867.448	19932
867.579	20050
867.71	19982
867.841	19826
867.972	19989
868.103	20020
868.233	20001
868.364	19978
868.495	20153
868.625	20206
868.756	20347
868.886	20183
869.017	20191
869.147	20347
869.278	20301
869.408	20206
869.539	20206
869.669	20180
869.799	20301
869.929	20457
870.06	20309
870.19	20503
870.32	20488
870.45	20560
870.58	20716
870.71	20693
870.84	20807
870.97	20651
871.1	20758
871.23	20842
871.36	20914
871.489	20746
871.619	20773
871.749	20887
871.879	20842
872.008	20975
872.138	20925
872.267	20720
872.397	20815
872.526	20708
872.656	20674
872.785	20697
872.915	20902
873.044	20902
873.173	21013
873.303	20956
873.432	20872
873.561	20899
873.69	20796
873.819	20994
873.948	20826
874.077	20948
874.206	20842
874.335	20823
874.464	20971
874.593	21127
874.722	21131
874.851	21024
874.979	21142
875.108	21173
875.237	21017
875.365	21028
875.494	20986
875.623	21127
875.751	21157
875.88	21264
876.008	21146
876.136	21355
876.265	21507
876.393	21682
876.521	21572
876.65	21587
876.778	21519
876.906	21367
877.034	21428
877.162	21641
877.29	21412
877.418	21466
877.546	21652
877.674	21561
877.802	21386
877.93	21412
878.058	21397
878.185	21336
878.313	21477
878.441	21435
878.568	21207
878.696	21481
878.824	21336
878.951	21572
879.079	21595
879.206	21724
879.333	21637
879.461	21500
879.588	21633
879.715	21736
879.842	21800
879.97	21587
880.097	21104
880.224	21195
880.351	21408
880.478	21317
880.605	21199
880.732	21351
880.859	21614
880.986	21233
881.112	21344
881.239	21135
881.366	21135
881.493	20857
881.619	20941
881.746	20872
881.872	20804
881.999	20880
882.125	20804
882.252	20906
882.378	20758
882.505	20975
882.631	20746
882.757	20575
882.883	20598
883.01	20587
883.136	20537
883.262	20415
883.388	20328
883.514	20697
883.64	20670
883.766	20522
883.892	20298
884.018	20377
884.143	20583
884.269	20606
884.395	20244
884.52	20195
884.646	20320
884.772	20206
884.897	20088
885.023	20275
885.148	20294
885.274	20533
885.399	20347
885.524	20218
885.65	20172
885.775	20294
885.9	20343
886.025	20225
886.15	20183
886.275	20218
886.4	20183
886.525	20172
886.65	20259
886.775	20206
886.9	20252
887.025	20465
887.149	20092
887.274	20130
887.399	19944
887.523	20088
887.648	19917
887.773	19951
887.897	20138
888.021	20016
888.146	19974
888.27	20164
888.395	20210
888.519	19986
888.643	20115
888.767	19963
888.891	19871
889.015	19845
889.139	19833
889.263	19826
889.387	19822
889.511	19959
889.635	20012
889.759	19868
889.883	19860
890.006	19871
890.13	19807
890.254	19647
890.377	19719
890.501	19647
890.624	19525
890.748	19609
890.871	19525
890.995	19388
891.118	19308
891.241	19324
891.364	19312
891.488	19514
891.611	19392
891.734	19369
891.857	19472
891.98	19430
892.103	19293
892.226	19354
892.349	19392
892.471	19285
892.594	19312
892.717	19415
892.839	19225
892.962	19339
893.085	19358
893.207	19266
893.33	19278
893.452	19270
893.575	19392
893.697	19270
893.819	19464
893.941	19483
894.064	19434
894.186	19301
894.308	19266
894.43	19369
894.552	19434
894.674	19453
894.796	19213
894.918	19285
895.04	19331
895.161	19403
895.283	19468
895.405	19247
895.526	19449
895.648	19335
895.769	19396
895.891	19373
896.012	19365
896.134	19419
896.255	19434
896.376	19343
896.498	19365
896.619	19362
896.74	19293
896.861	19316
896.982	19830
897.103	19822
897.224	19624
897.345	19693
897.466	19552
897.587	19544
897.708	19597
897.828	19620
897.949	19525
898.07	19430
898.19	19449
898.311	19567
898.431	19464
898.552	19529
898.672	19689
898.792	19609
898.913	19502
899.033	19487
899.153	19438
899.273	19407
899.393	19259
899.513	19343
899.633	19232
899.753	19263
899.873	19301
899.993	19358
900.113	19274
900.232	19293
900.352	19228
900.472	19145
900.591	19148
900.711	19198
900.83	19122
900.95	19240
901.069	19240
901.189	19027
901.308	18772
901.427	18726
901.546	18623
901.665	18878
901.784	18821
901.904	18551
902.023	18540
902.141	18334
902.26	18254
902.379	18289
902.498	18209
902.617	18213
902.735	18285
902.854	18201
902.973	18159
903.091	17954
903.21	17851
903.328	17923
903.446	17779
903.565	17836
903.683	17714
903.801	17596
903.919	17695
904.038	17707
904.156	17509
904.274	17676
904.392	17463
904.51	17512
904.627	17501
904.745	17512
904.863	17490
904.981	17337
905.098	17132
905.216	17197
905.334	17200
905.451	17170
905.569	17105
905.686	17280
905.803	17022
905.921	16946
906.038	17083
906.155	17010
906.272	16873
906.389	16866
906.506	16679
906.623	16717
906.74	16717
906.857	16615
906.974	16641
907.091	16828
907.208	16862
907.324	16797
907.441	16546
907.557	16428
907.674	16398
907.79	16421
907.907	16512
908.023	16500
908.139	16481
908.256	16375
908.372	16432
908.488	16299
908.604	16272
908.72	16093
908.836	16169
908.952	16166
909.068	16166
909.184	16253
909.3	16143
909.415	16207
909.531	16109
909.647	15960
909.762	15987
909.878	15797
909.993	15994
910.108	15819
910.224	15800
910.339	15800
910.454	15732
910.57	15690
910.685	15584
910.8	15899
910.915	15789
911.03	15671
911.145	15580
911.259	15397
911.374	15439
911.489	15439
911.604	15435
911.718	15245
911.833	15382
911.947	15176
912.062	15135
912.176	15233
912.291	15355
912.405	15298
912.519	15382
912.633	15325
912.748	15264
912.862	15222
912.976	15104
913.09	14994
913.204	14929
913.318	15024
913.431	15180
913.545	15100
913.659	15108
913.772	14998
913.886	14838
914	14857
914.113	14975
914.226	15047
914.34	14853
914.453	14716
914.566	14956
914.68	14769
914.793	14826
914.906	14492
915.019	14499
915.132	14438
915.245	14503
915.358	14480
915.47	14518
915.583	14560
915.696	14549
915.809	14610
915.921	14594
916.034	14423
916.146	14511
916.259	14431
916.371	14560
916.483	14393
916.595	14294
916.708	14377
916.82	14377
916.932	14278
917.044	14355
917.156	14256
917.268	14195
917.38	14168
917.491	14180
917.603	14301
917.715	14298
917.826	14271
917.938	14069
918.049	14092
918.161	14191
918.272	14259
918.384	14195
918.495	14088
918.606	13959
918.717	13928
918.828	13959
918.939	14043
919.05	13849
919.161	14024
919.272	13734
919.383	13822
919.494	14043
919.604	14161
919.715	13951
919.826	13902
919.936	13940
920.047	13986
920.157	13989
920.267	14206
920.378	13986
920.488	13925
920.598	14191
920.708	14252
920.818	14115
920.928	14103
921.038	14199
921.148	14244
921.258	13959
921.368	13826
921.477	13715
921.587	13723
921.697	13582
921.806	13727
921.916	13556
922.025	13419
922.134	13411
922.244	13293
922.353	13384
922.462	13236
922.571	13236
922.68	13107
922.789	12985
922.898	12996
923.007	12970
923.116	12973
923.224	13084
923.333	12920
923.442	12798
923.55	12867
923.659	12890
923.767	12973
923.876	12802
923.984	12894
924.092	12745
924.201	12719
924.309	12852
924.417	12840
924.525	12681
924.633	12719
924.741	13624
924.849	12494
924.956	12726
925.064	12498
925.172	12414
925.279	12399
925.387	12403
925.494	12460
925.602	12612
925.709	12452
925.816	12213
925.924	12422
926.031	12517
926.138	12350
926.245	12369
926.352	12350
926.459	12464
926.566	12513
926.673	12296
926.779	12228
926.886	12182
926.993	12205
927.099	12003
927.206	12015
927.312	11950
927.419	12041
927.525	12011
927.631	12083
927.737	11988
927.843	11908
927.95	11794
928.056	11855
928.162	11897
928.267	11939
928.373	12490
928.479	11935
928.585	11790
928.69	11843
928.796	11882
928.901	11726
929.007	11627
929.112	11783
929.218	11726
929.323	11627
929.428	11649
929.533	11775
929.638	11467
929.743	11619
929.848	11611
929.953	11585
930.058	11414
930.163	11284
930.267	11288
930.372	11497
930.477	11334
930.581	11433
930.685	11353
930.79	11227
930.894	11189
930.998	11170
931.103	11296
931.207	10984
931.311	10873
931.415	10774
931.519	10611
931.623	10550
