Data from test_V78500241_314.txt Node
Date: Fri Mar 25 15:12:02 CST 2022
User: usil
Spectrometer: V785-0024
Trigger mode: 0
Integration Time (sec): 4.000000E-1
Scans to average: 1
Nonlinearity correction enabled: false
Boxcar width: 0
Storing dark spectrum: false
XAxis mode: Wavelengths
Number of Pixels in Spectrum: 1024
>>>>>Begin Spectral Data<<<<<
801.071	27854
801.214	27770
801.356	27652
801.499	27583
801.641	27340
801.783	27378
801.926	27561
802.068	27397
802.211	27348
802.353	27272
802.496	27176
802.638	26986
802.78	26895
802.923	26986
803.065	26986
803.208	26944
803.35	27081
803.492	27180
803.635	27195
803.777	27146
803.919	27150
804.061	27401
804.204	27104
804.346	27180
804.488	26979
804.63	27154
804.773	27036
804.915	27176
805.057	27195
805.199	27146
805.341	27127
805.483	27195
805.626	27237
805.768	27142
805.91	27192
806.052	27241
806.194	27150
806.336	27431
806.478	27127
806.62	27180
806.762	27374
806.904	27462
807.046	27701
807.188	27648
807.33	27538
807.472	27720
807.614	27542
807.756	27648
807.898	27469
808.04	27367
808.182	27416
808.324	27382
808.465	27370
808.607	27641
808.749	27774
808.891	27983
809.033	28017
809.174	27876
809.316	27800
809.458	27926
809.6	27682
809.741	27914
809.883	27835
810.025	28036
810.166	28112
810.308	28139
810.45	27960
810.591	28029
810.733	27846
810.875	27922
811.016	27660
811.158	27709
811.299	27861
811.441	27934
811.582	27812
811.724	27812
811.865	27911
812.007	27732
812.148	27838
812.29	27793
812.431	28002
812.573	28128
812.714	28242
812.855	28219
812.997	28386
813.138	28470
813.279	28466
813.421	28325
813.562	28268
813.703	28204
813.845	27991
813.986	27804
814.127	27549
814.268	27534
814.41	27488
814.551	27542
814.692	27568
814.833	27424
814.974	27401
815.115	27477
815.256	27256
815.397	27416
815.539	27344
815.68	27233
815.821	27089
815.962	27268
816.103	27203
816.244	27127
816.385	27039
816.526	26990
816.666	26853
816.807	26598
816.948	26720
817.089	26864
817.23	26697
817.371	26617
817.512	26811
817.653	26632
817.793	26629
817.934	26754
818.075	26697
818.216	26693
818.356	26598
818.497	26571
818.638	26488
818.778	26343
818.919	26336
819.06	26442
819.2	26575
819.341	26693
819.481	26629
819.622	26788
819.762	27043
819.903	26811
820.043	26861
820.184	26849
820.324	26727
820.465	26857
820.605	26769
820.746	26727
820.886	26522
821.026	26644
821.167	26686
821.307	26659
821.447	26579
821.588	26465
821.728	26434
821.868	26313
822.008	26172
822.149	26081
822.289	26096
822.429	25837
822.569	25852
822.709	25651
822.849	25635
822.99	25594
823.13	25609
823.27	25510
823.41	25373
823.55	25407
823.69	25362
823.83	25354
823.97	25282
824.11	25194
824.25	25266
824.389	25190
824.529	25289
824.669	25160
824.809	25335
824.949	25316
825.089	25301
825.228	25244
825.368	25050
825.508	25099
825.648	25031
825.787	25194
825.927	25072
826.067	25000
826.206	25118
826.346	25046
826.485	25126
826.625	25080
826.765	25171
826.904	25095
827.044	24779
827.183	24890
827.323	24677
827.462	24882
827.601	24867
827.741	24783
827.88	24817
828.02	24650
828.159	24665
828.298	24806
828.437	24863
828.577	24817
828.716	24646
828.855	24749
828.994	24502
829.134	24574
829.273	24456
829.412	24502
829.551	24452
829.69	24498
829.829	24601
829.968	24521
830.107	24494
830.246	24399
830.385	24471
830.524	24399
830.663	24220
830.802	24167
830.941	24068
831.08	23958
831.219	24095
831.357	24213
831.496	24426
831.635	23977
831.774	24022
831.913	23882
832.051	23878
832.19	23920
832.329	23916
832.467	23748
832.606	23760
832.744	23672
832.883	23745
833.022	23668
833.16	23691
833.299	23779
833.437	23741
833.576	23775
833.714	23805
833.852	23798
833.991	23863
834.129	23942
834.267	23866
834.406	23809
834.544	23889
834.682	23790
834.821	23828
834.959	23961
835.097	23813
835.235	23752
835.373	23767
835.511	23657
835.65	23661
835.788	23642
835.926	23474
836.064	23368
836.202	23379
836.34	23543
836.478	23695
836.615	23551
836.753	23771
836.891	23665
837.029	23551
837.167	23611
837.305	23589
837.443	23535
837.58	23551
837.718	23691
837.856	23448
837.993	23326
838.131	23417
838.269	23406
838.406	23326
838.544	23280
838.681	23128
838.819	22999
838.956	23014
839.094	22866
839.231	22908
839.369	23086
839.506	23383
839.643	23147
839.781	22847
839.918	22801
840.055	22942
840.193	22877
840.33	22885
840.467	22923
840.604	22889
840.742	23193
840.879	22717
841.016	22725
841.153	22729
841.29	22942
841.427	22919
841.564	22786
841.701	22782
841.838	22850
841.975	22706
842.112	22786
842.249	22641
842.385	22557
842.522	22858
842.659	22615
842.796	22493
842.933	22527
843.069	22493
843.206	22504
843.343	22649
843.479	22584
843.616	22500
843.752	22360
843.889	22375
844.025	22428
844.162	22379
844.298	22394
844.435	22341
844.571	22188
844.708	22356
844.844	22516
844.98	22481
845.117	22390
845.253	22322
845.389	22246
845.525	22135
845.661	22226
845.798	22063
845.934	22204
846.07	22044
846.206	22090
846.342	22291
846.478	21945
846.614	21899
846.75	21873
846.886	21747
847.022	21835
847.158	21835
847.294	21724
847.429	21861
847.565	21880
847.701	21941
847.837	21553
847.972	21504
848.108	21614
848.244	21595
848.379	21454
848.515	21389
848.65	21412
848.786	21431
848.921	21367
849.057	21458
849.192	21454
849.328	21325
849.463	21313
849.598	21401
849.734	21249
849.869	21264
850.004	21173
850.14	21176
850.275	21207
850.41	21020
850.545	21108
850.68	21085
850.815	21188
850.95	20986
851.085	21245
851.22	21195
851.355	21138
851.49	21249
851.625	21119
851.76	21058
851.895	20990
852.03	21108
852.165	21085
852.299	21146
852.434	21192
852.569	21199
852.703	21096
852.838	21119
852.973	21173
853.107	21291
853.242	21013
853.376	20941
853.511	20842
853.645	20933
853.78	21085
853.914	20994
854.048	20849
854.183	20921
854.317	20986
854.451	21066
854.585	20823
854.72	20838
854.854	20982
854.988	20769
855.122	20914
855.256	20929
855.39	20960
855.524	20956
855.658	21047
855.792	20918
855.926	20899
856.06	21020
856.194	21028
856.327	20887
856.461	20830
856.595	20868
856.729	20906
856.862	21135
856.996	20895
857.13	20971
857.263	21020
857.397	21009
857.53	20910
857.664	20982
857.797	20963
857.931	21013
858.064	20990
858.197	20933
858.331	20948
858.464	20845
858.597	20914
858.731	20815
858.864	20834
858.997	20845
859.13	20918
859.263	20811
859.396	21028
859.529	20895
859.662	20857
859.795	20861
859.928	20872
860.061	21017
860.194	20990
860.327	20914
860.46	20952
860.592	21070
860.725	21066
860.858	21032
860.99	20918
861.123	20853
861.256	20807
861.388	21020
861.521	21492
861.653	20857
861.786	20686
861.918	20800
862.05	20861
862.183	20826
862.315	20838
862.447	20868
862.58	20781
862.712	20552
862.844	20522
862.976	20796
863.108	20659
863.24	21100
863.372	20587
863.504	20781
863.636	20655
863.768	20629
863.9	20762
864.032	20537
864.164	20503
864.296	20655
864.428	20644
864.559	20667
864.691	20708
864.823	20587
864.954	20587
865.086	20663
865.217	20564
865.349	20492
865.48	20564
865.612	20575
865.743	20727
865.875	20476
866.006	20484
866.137	20465
866.269	20609
866.4	20473
866.531	20423
866.662	20351
866.793	20568
866.924	20484
867.055	20442
867.186	20461
867.317	20450
867.448	20290
867.579	20385
867.71	20419
867.841	20427
867.972	20537
868.103	20434
868.233	20503
868.364	20461
868.495	20568
868.625	20765
868.756	20750
868.886	20575
869.017	20708
869.147	20811
869.278	20724
869.408	20777
869.539	20613
869.669	20815
869.799	20655
869.929	20826
870.06	20701
870.19	21005
870.32	20979
870.45	21074
870.58	21165
870.71	21302
870.84	21237
870.97	21047
871.1	21096
871.23	21161
871.36	21389
871.489	21123
871.619	21211
871.749	21241
871.879	21287
872.008	21336
872.138	21355
872.267	21302
872.397	21116
872.526	21157
872.656	21195
872.785	21176
872.915	21264
873.044	21367
873.173	21378
873.303	21268
873.432	21199
873.561	21523
873.69	21344
873.819	21408
873.948	21477
874.077	21199
874.206	21249
874.335	21359
874.464	21519
874.593	21572
874.722	21443
874.851	21633
874.979	21568
875.108	21644
875.237	21557
875.365	21458
875.494	21564
875.623	21682
875.751	21473
875.88	21610
876.008	21762
876.136	21774
876.265	21937
876.393	22082
876.521	22063
876.65	21987
876.778	21987
876.906	21960
877.034	21865
877.162	21930
877.29	21766
877.418	21907
877.546	21892
877.674	21911
877.802	22048
877.93	21899
878.058	21930
878.185	21778
878.313	21888
878.441	21892
878.568	21812
878.696	21831
878.824	21975
878.951	21922
879.079	22143
879.206	22177
879.333	21979
879.461	21945
879.588	21991
879.715	21983
879.842	22078
879.97	21979
880.097	21717
880.224	21759
880.351	21842
880.478	21755
880.605	21682
880.732	21724
880.859	22032
880.986	21724
881.112	21747
881.239	21625
881.366	21447
881.493	21272
881.619	21386
881.746	21268
881.872	21408
881.999	21340
882.125	21218
882.252	21500
882.378	21260
882.505	21382
882.631	21279
882.757	20963
882.883	21161
883.01	21036
883.136	20979
883.262	21017
883.388	20842
883.514	21005
883.64	21146
883.766	20956
883.892	20788
884.018	20842
884.143	21039
884.269	21032
884.395	20701
884.52	20670
884.646	20708
884.772	20621
884.897	20609
885.023	20583
885.148	20773
885.274	20826
885.399	20762
885.524	20720
885.65	20682
885.775	20785
885.9	20621
886.025	20765
886.15	20682
886.275	20785
886.4	20598
886.525	20663
886.65	20594
886.775	20533
886.9	20731
887.025	20807
887.149	20583
887.274	20419
887.399	20545
887.523	20385
887.648	20370
887.773	20385
887.897	20492
888.021	20537
888.146	20381
888.27	20552
888.395	20541
888.519	20499
888.643	20503
888.767	20454
888.891	20377
889.015	20206
889.139	20381
889.263	20317
889.387	20404
889.511	20583
889.635	20240
889.759	20263
889.883	20240
890.006	20259
890.13	20157
890.254	20100
890.377	20115
890.501	19997
890.624	19940
890.748	20092
890.871	19811
890.995	19731
891.118	19658
891.241	19830
891.364	19860
891.488	20001
891.611	19883
891.734	19685
891.857	19883
891.98	19830
892.103	19875
892.226	19681
892.349	19696
892.471	19594
892.594	19670
892.717	19788
892.839	19708
892.962	19757
893.085	19811
893.207	19719
893.33	19616
893.452	19635
893.575	19780
893.697	19715
893.819	19822
893.941	19902
894.064	19879
894.186	19651
894.308	19624
894.43	19772
894.552	19894
894.674	19830
894.796	19734
894.918	19620
895.04	19586
895.161	19769
895.283	19742
895.405	19742
895.526	19830
895.648	19624
895.769	19769
895.891	19814
896.012	19769
896.134	19830
896.255	19727
896.376	19635
896.498	19757
896.619	19715
896.74	19719
896.861	19845
896.982	20088
897.103	20172
897.224	19986
897.345	19978
897.466	19841
897.587	20016
897.708	20126
897.828	19986
897.949	19906
898.07	19833
898.19	19833
898.311	19951
898.431	19894
898.552	19963
898.672	19887
898.792	20081
898.913	20043
899.033	19750
899.153	19719
899.273	19670
899.393	19677
899.513	19761
899.633	19719
899.753	19537
899.873	19643
899.993	19708
900.113	19628
900.232	19681
900.352	19666
900.472	19529
900.591	19377
900.711	19415
900.83	19362
900.95	19628
901.069	19514
901.189	19411
901.308	19126
901.427	19103
901.546	19084
901.665	19080
901.784	19076
901.904	18939
902.023	18772
902.141	18544
902.26	18593
902.379	18665
902.498	18639
902.617	18582
902.735	18506
902.854	18467
902.973	18540
903.091	18308
903.21	18235
903.328	18292
903.446	18125
903.565	18045
903.683	17988
903.801	17882
903.919	18076
904.038	17965
904.156	17855
904.274	17893
904.392	17783
904.51	17824
904.627	17687
904.745	17828
904.863	17855
904.981	17653
905.098	17551
905.216	17543
905.334	17547
905.451	17516
905.569	17459
905.686	17497
905.803	17414
905.921	17284
906.038	17307
906.155	17326
906.272	17143
906.389	17124
906.506	17052
906.623	16942
906.74	16930
906.857	16805
906.974	16946
907.091	17033
907.208	17189
907.324	17064
907.441	16919
907.557	16805
907.674	16710
907.79	16672
907.907	16713
908.023	16759
908.139	16778
908.256	16660
908.372	16634
908.488	16611
908.604	16462
908.72	16436
908.836	16390
908.952	16337
909.068	16413
909.184	16569
909.3	16481
909.415	16474
909.531	16367
909.647	16158
909.762	16124
909.878	16128
909.993	16181
910.108	16166
910.224	16090
910.339	16192
910.454	16029
910.57	15934
910.685	15835
910.8	16150
910.915	16166
911.03	15934
911.145	15804
911.259	15804
911.374	15717
911.489	15717
911.604	15557
911.718	15500
911.833	15496
911.947	15370
912.062	15355
912.176	15549
912.291	15553
912.405	15553
912.519	15641
912.633	15644
912.748	15408
912.862	15405
912.976	15237
913.09	15100
913.204	15287
913.318	15367
913.431	15374
913.545	15298
913.659	15462
913.772	15310
913.886	15169
914	15100
914.113	15226
914.226	15264
914.34	15214
914.453	15028
914.566	15222
914.68	15005
914.793	14929
914.906	14815
915.019	14701
915.132	14617
915.245	14777
915.358	14796
915.47	14838
915.583	14689
915.696	14819
915.809	14815
915.921	14762
916.034	14705
916.146	14678
916.259	14708
916.371	14667
916.483	14682
916.595	14598
916.708	14697
916.82	14640
916.932	14480
917.044	14617
917.156	14556
917.268	14351
917.38	14396
917.491	14427
917.603	14427
917.715	14476
917.826	14492
917.938	14286
918.049	14294
918.161	14301
918.272	14495
918.384	14366
918.495	14309
918.606	14218
918.717	14077
918.828	14138
918.939	14267
919.05	14100
919.161	14191
919.272	13982
919.383	14012
919.494	14221
919.604	14313
919.715	14153
919.826	14062
919.936	14145
920.047	14103
920.157	14115
920.267	14339
920.378	14142
920.488	14043
920.598	14244
920.708	14419
920.818	14168
920.928	14336
921.038	14514
921.148	14423
921.258	14050
921.368	14039
921.477	13811
921.587	13955
921.697	13757
921.806	13864
921.916	13712
922.025	13552
922.134	13483
922.244	13548
922.353	13575
922.462	13441
922.571	13312
922.68	13179
922.789	13209
922.898	13228
923.007	13050
923.116	13095
923.224	13118
923.333	13164
923.442	13069
923.55	13019
923.659	12985
923.767	12985
923.876	12951
923.984	13038
924.092	12829
924.201	12996
924.309	12958
924.417	12897
924.525	12875
924.633	12867
924.741	13681
924.849	12673
924.956	12673
925.064	12631
925.172	12585
925.279	12627
925.387	12585
925.494	12646
925.602	12821
925.709	12696
925.816	12490
925.924	12566
926.031	12650
926.138	12566
926.245	12540
926.352	12479
926.459	12620
926.566	12597
926.673	12483
926.779	12407
926.886	12308
926.993	12296
927.099	12171
927.206	12228
927.312	12159
927.419	12235
927.525	12171
927.631	12216
927.737	12045
927.843	12038
927.95	11901
928.056	11977
928.162	12015
928.267	12144
928.373	12692
928.479	12110
928.585	11828
928.69	11927
928.796	11916
928.901	11931
929.007	11691
929.112	11775
929.218	11882
929.323	11771
929.428	11794
929.533	11813
929.638	11623
929.743	11646
929.848	11809
929.953	11733
930.058	11554
930.163	11349
930.267	11421
930.372	11501
930.477	11353
930.581	11672
930.685	11395
930.79	11273
930.894	11303
930.998	11277
931.103	11360
931.207	10991
931.311	10934
931.415	10923
931.519	10759
931.623	10672
