Data from test_V78500241_2620.txt Node
Date: Fri Mar 25 15:28:06 CST 2022
User: usil
Spectrometer: V785-0024
Trigger mode: 0
Integration Time (sec): 4.000000E-1
Scans to average: 1
Nonlinearity correction enabled: false
Boxcar width: 0
Storing dark spectrum: false
XAxis mode: Wavelengths
Number of Pixels in Spectrum: 1024
>>>>>Begin Spectral Data<<<<<
801.071	27157
801.214	27070
801.356	27028
801.499	26937
801.641	26541
801.783	26640
801.926	26849
802.068	26644
802.211	26518
802.353	26541
802.496	26511
802.638	26476
802.78	26370
802.923	26343
803.065	26271
803.208	26187
803.35	26339
803.492	26476
803.635	26503
803.777	26317
803.919	26533
804.061	26834
804.204	26602
804.346	26530
804.488	26545
804.63	26522
804.773	26503
804.915	26469
805.057	26644
805.199	26564
805.341	26469
805.483	26674
805.626	26571
805.768	26526
805.91	26473
806.052	26648
806.194	26530
806.336	26659
806.478	26579
806.62	26476
806.762	26731
806.904	26895
807.046	27104
807.188	27032
807.33	26952
807.472	27020
807.614	27017
807.756	26967
807.898	26857
808.04	26785
808.182	26750
808.324	26762
808.465	27051
808.607	27135
808.749	27119
808.891	27237
809.033	27317
809.174	27298
809.316	27089
809.458	27184
809.6	27188
809.741	27245
809.883	27332
810.025	27568
810.166	27530
810.308	27454
810.45	27401
810.591	27447
810.733	27211
810.875	27074
811.016	27104
811.158	27112
811.299	27260
811.441	27241
811.582	27332
811.724	27199
811.865	27214
812.007	27310
812.148	27013
812.29	27252
812.431	27313
812.573	27454
812.714	27591
812.855	27599
812.997	27774
813.138	27892
813.279	27751
813.421	27515
813.562	27660
813.703	27500
813.845	27439
813.986	26998
814.127	26921
814.268	26910
814.41	26864
814.551	26785
814.692	26971
814.833	26857
814.974	26708
815.115	26971
815.256	26735
815.397	26743
815.539	26735
815.68	26663
815.821	26480
815.962	26670
816.103	26636
816.244	26404
816.385	26511
816.526	26450
816.666	26195
816.807	26172
816.948	26100
817.089	26259
817.23	26024
817.371	26024
817.512	26164
817.653	26126
817.793	26077
817.934	26096
818.075	26126
818.216	26168
818.356	25909
818.497	25989
818.638	25814
818.778	25849
818.919	25780
819.06	25898
819.2	25959
819.341	26130
819.481	25997
819.622	26328
819.762	26362
819.903	26446
820.043	26286
820.184	26187
820.324	26256
820.465	26317
820.605	26225
820.746	26073
820.886	26035
821.026	26199
821.167	26100
821.307	26168
821.447	26130
821.588	26016
821.728	25966
821.868	25696
822.008	25510
822.149	25578
822.289	25632
822.429	25251
822.569	25213
822.709	25373
822.849	24954
822.99	25175
823.13	25133
823.27	25072
823.41	24985
823.55	24753
823.69	24939
823.83	24852
823.97	24776
824.11	24665
824.25	24559
824.389	24795
824.529	24757
824.669	24760
824.809	24878
824.949	24840
825.089	24871
825.228	24620
825.368	24696
825.508	24582
825.648	24528
825.787	24585
825.927	24623
826.067	24563
826.206	24597
826.346	24627
826.485	24707
826.625	24612
826.765	24665
826.904	24601
827.044	24319
827.183	24327
827.323	24224
827.462	24361
827.601	24266
827.741	24190
827.88	24319
828.02	24121
828.159	24372
828.298	24311
828.437	24365
828.577	24201
828.716	24380
828.855	24220
828.994	24026
829.134	23939
829.273	24030
829.412	23942
829.551	23969
829.69	23874
829.829	23961
829.968	23980
830.107	24163
830.246	24026
830.385	23920
830.524	23855
830.663	23779
830.802	23805
830.941	23649
831.08	23596
831.219	23695
831.357	23710
831.496	23726
831.635	23638
831.774	23490
831.913	23535
832.051	23474
832.19	23395
832.329	23376
832.467	23315
832.606	23303
832.744	23261
832.883	23318
833.022	23288
833.16	23296
833.299	23398
833.437	23425
833.576	23360
833.714	23341
833.852	23547
833.991	23436
834.129	23497
834.267	23463
834.406	23482
834.544	23398
834.682	23318
834.821	23387
834.959	23528
835.097	23337
835.235	23478
835.373	23395
835.511	23360
835.65	23292
835.788	23284
835.926	23151
836.064	23060
836.202	23143
836.34	23246
836.478	23368
836.615	23178
836.753	23288
836.891	23368
837.029	23235
837.167	23105
837.305	23239
837.443	23143
837.58	23136
837.718	23227
837.856	23124
837.993	23155
838.131	23155
838.269	22858
838.406	23022
838.544	22816
838.681	22675
838.819	22869
838.956	22649
839.094	22615
839.231	22679
839.369	22839
839.506	22957
839.643	22763
839.781	22698
839.918	22546
840.055	22618
840.193	22626
840.33	22569
840.467	22500
840.604	22603
840.742	22752
840.879	22451
841.016	22478
841.153	22375
841.29	22645
841.427	22561
841.564	22626
841.701	22459
841.838	22447
841.975	22413
842.112	22424
842.249	22318
842.385	22322
842.522	22443
842.659	22466
842.796	22303
842.933	22348
843.069	22204
843.206	22200
843.343	22310
843.479	22185
843.616	22371
843.752	22059
843.889	22101
844.025	22215
844.162	21960
844.298	22169
844.435	22074
844.571	21956
844.708	22055
844.844	22185
844.98	22150
845.117	22124
845.253	22017
845.389	21865
845.525	21842
845.661	21857
845.798	21854
845.934	21861
846.07	21774
846.206	21808
846.342	21857
846.478	21660
846.614	21534
846.75	21431
846.886	21625
847.022	21652
847.158	21443
847.294	21564
847.429	21557
847.565	21485
847.701	21774
847.837	21272
847.972	21291
848.108	21367
848.244	21340
848.379	21157
848.515	21108
848.65	21184
848.786	21138
848.921	21108
849.057	21195
849.192	21249
849.328	21096
849.463	21154
849.598	20933
849.734	21058
849.869	21032
850.004	20963
850.14	20929
850.275	20937
850.41	20823
850.545	20811
850.68	20762
850.815	20921
850.95	20857
851.085	21127
851.22	20979
851.355	21024
851.49	20918
851.625	20796
851.76	20864
851.895	20773
852.03	20804
852.165	20975
852.299	20838
852.434	20872
852.569	20838
852.703	20887
852.838	20872
852.973	20902
853.107	20971
853.242	20906
853.376	20750
853.511	20598
853.645	20678
853.78	20758
853.914	20708
854.048	20583
854.183	20655
854.317	20750
854.451	20994
854.585	20640
854.72	20648
854.854	20765
854.988	20716
855.122	20682
855.256	20663
855.39	20686
855.524	20720
855.658	20731
855.792	20667
855.926	20792
856.06	20834
856.194	20712
856.327	20697
856.461	20648
856.595	20731
856.729	20636
856.862	20929
856.996	20655
857.13	20811
857.263	20785
857.397	20769
857.53	20769
857.664	20746
857.797	20750
857.931	20826
858.064	20678
858.197	20838
858.331	20609
858.464	20678
858.597	20625
858.731	20667
858.864	20648
858.997	20552
859.13	20762
859.263	20697
859.396	20705
859.529	20640
859.662	20708
859.795	20651
859.928	20670
860.061	20872
860.194	20861
860.327	20735
860.46	20644
860.592	20788
860.725	20800
860.858	20811
860.99	20598
861.123	20693
861.256	20644
861.388	20746
861.521	21382
861.653	20530
861.786	20526
861.918	20636
862.05	20530
862.183	20625
862.315	20579
862.447	20621
862.58	20613
862.712	20381
862.844	20336
862.976	20564
863.108	20511
863.24	20868
863.372	20286
863.504	20385
863.636	20366
863.768	20434
863.9	20530
864.032	20438
864.164	20317
864.296	20480
864.428	20533
864.559	20469
864.691	20351
864.823	20400
864.954	20412
865.086	20400
865.217	20450
865.349	20278
865.48	20389
865.612	20362
865.743	20412
865.875	20362
866.006	20275
866.137	20290
866.269	20290
866.4	20374
866.531	20244
866.662	20301
866.793	20263
866.924	20256
867.055	20320
867.186	20366
867.317	20126
867.448	20218
867.579	20149
867.71	20134
867.841	20115
867.972	20195
868.103	20202
868.233	20298
868.364	20271
868.495	20442
868.625	20400
868.756	20625
868.886	20370
869.017	20545
869.147	20541
869.278	20724
869.408	20549
869.539	20556
869.669	20564
869.799	20507
869.929	20720
870.06	20564
870.19	20826
870.32	20765
870.45	20918
870.58	20815
870.71	20967
870.84	20975
870.97	20819
871.1	20902
871.23	21032
871.36	21032
871.489	21001
871.619	20990
871.749	21112
871.879	21020
872.008	21195
872.138	21195
872.267	21020
872.397	20895
872.526	20834
872.656	21032
872.785	20895
872.915	21074
873.044	21142
873.173	21157
873.303	21157
873.432	21222
873.561	21283
873.69	21180
873.819	21169
873.948	21241
874.077	21081
874.206	21138
874.335	21180
874.464	21264
874.593	21450
874.722	21336
874.851	21355
874.979	21412
875.108	21466
875.237	21329
875.365	21298
875.494	21310
875.623	21450
875.751	21241
875.88	21382
876.008	21450
876.136	21526
876.265	21838
876.393	21816
876.521	21842
876.65	21892
876.778	21854
876.906	21641
877.034	21675
877.162	21717
877.29	21682
877.418	21728
877.546	21675
877.674	21694
877.802	21686
877.93	21618
878.058	21679
878.185	21637
878.313	21614
878.441	21701
878.568	21641
878.696	21542
878.824	21694
878.951	21766
879.079	21941
879.206	22048
879.333	21831
879.461	21812
879.588	21835
879.715	21831
879.842	21972
879.97	21846
880.097	21682
880.224	21530
880.351	21595
880.478	21580
880.605	21523
880.732	21576
880.859	21831
880.986	21591
881.112	21591
881.239	21439
881.366	21389
881.493	21214
881.619	21127
881.746	21249
881.872	21211
881.999	20990
882.125	21001
882.252	21169
882.378	21020
882.505	21260
882.631	21077
882.757	20826
882.883	20929
883.01	20925
883.136	20849
883.262	20674
883.388	20731
883.514	20872
883.64	20788
883.766	20788
883.892	20556
884.018	20667
884.143	20895
884.269	20918
884.395	20537
884.52	20480
884.646	20469
884.772	20454
884.897	20408
885.023	20469
885.148	20579
885.274	20568
885.399	20636
885.524	20518
885.65	20415
885.775	20412
885.9	20412
886.025	20560
886.15	20568
886.275	20446
886.4	20476
886.525	20431
886.65	20427
886.775	20419
886.9	20541
887.025	20587
887.149	20457
887.274	20267
887.399	20305
887.523	20164
887.648	20328
887.773	20084
887.897	20355
888.021	20412
888.146	20149
888.27	20351
888.395	20343
888.519	20218
888.643	20107
888.767	20221
888.891	20172
889.015	20130
889.139	20164
889.263	20062
889.387	20100
889.511	20202
889.635	20202
889.759	20092
889.883	20065
890.006	20084
890.13	20157
890.254	19932
890.377	19875
890.501	19826
890.624	19803
890.748	19818
890.871	19708
890.995	19563
891.118	19643
891.241	19681
891.364	19658
891.488	19807
891.611	19734
891.734	19613
891.857	19696
891.98	19632
892.103	19674
892.226	19624
892.349	19563
892.471	19453
892.594	19651
892.717	19597
892.839	19548
892.962	19521
893.085	19609
893.207	19514
893.33	19480
893.452	19575
893.575	19548
893.697	19575
893.819	19811
893.941	19742
894.064	19784
894.186	19483
894.308	19339
894.43	19696
894.552	19689
894.674	19605
894.796	19438
894.918	19460
895.04	19597
895.161	19635
895.283	19658
895.405	19430
895.526	19552
895.648	19563
895.769	19620
895.891	19506
896.012	19662
896.134	19632
896.255	19487
896.376	19575
896.498	19586
896.619	19533
896.74	19613
896.861	19624
896.982	19826
897.103	20016
897.224	19811
897.345	19837
897.466	19799
897.587	19837
897.708	19959
897.828	19830
897.949	19776
898.07	19632
898.19	19795
898.311	19769
898.431	19738
898.552	19750
898.672	19799
898.792	19811
898.913	19738
899.033	19677
899.153	19426
899.273	19559
899.393	19544
899.513	19590
899.633	19468
899.753	19552
899.873	19476
899.993	19548
900.113	19476
900.232	19487
900.352	19445
900.472	19358
900.591	19407
900.711	19457
900.83	19228
900.95	19381
901.069	19411
901.189	19282
901.308	18985
901.427	18806
901.546	18901
901.665	18897
901.784	18935
901.904	18730
902.023	18665
902.141	18509
902.26	18593
902.379	18471
902.498	18467
902.617	18361
902.735	18506
902.854	18410
902.973	18437
903.091	18155
903.21	18144
903.328	18133
903.446	18152
903.565	17961
903.683	17927
903.801	17817
903.919	17939
904.038	17874
904.156	17722
904.274	17908
904.392	17741
904.51	17771
904.627	17741
904.745	17771
904.863	17726
904.981	17493
905.098	17406
905.216	17334
905.334	17406
905.451	17436
905.569	17345
905.686	17391
905.803	17452
905.921	17124
906.038	17277
906.155	17181
906.272	17117
906.389	17083
906.506	16953
906.623	17014
906.74	16942
906.857	16873
906.974	16793
907.091	16961
907.208	16999
907.324	16949
907.441	16896
907.557	16580
907.674	16580
907.79	16554
907.907	16538
908.023	16683
908.139	16554
908.256	16675
908.372	16622
908.488	16573
908.604	16394
908.72	16344
908.836	16325
908.952	16356
909.068	16295
909.184	16409
909.3	16382
909.415	16413
909.531	16318
909.647	16166
909.762	16150
909.878	15998
909.993	16109
910.108	15994
910.224	15975
910.339	16013
910.454	15869
910.57	15880
910.685	15827
910.8	16116
910.915	15937
911.03	15873
911.145	15701
911.259	15641
911.374	15614
911.489	15591
911.604	15610
911.718	15397
911.833	15431
911.947	15302
912.062	15363
912.176	15595
912.291	15477
912.405	15450
912.519	15720
912.633	15568
912.748	15530
912.862	15294
912.976	15184
913.09	15104
913.204	15233
913.318	15188
913.431	15298
913.545	15325
913.659	15298
913.772	15157
913.886	15108
914	15001
914.113	15108
914.226	15237
914.34	15165
914.453	14861
914.566	15154
914.68	14937
914.793	14895
914.906	14765
915.019	14659
915.132	14568
915.245	14613
915.358	14632
915.47	14659
915.583	14724
915.696	14659
915.809	14750
915.921	14727
916.034	14625
916.146	14488
916.259	14415
916.371	14613
916.483	14571
916.595	14454
916.708	14393
916.82	14438
916.932	14469
917.044	14522
917.156	14419
917.268	14301
917.38	14286
917.491	14305
917.603	14305
917.715	14366
917.826	14518
917.938	14355
918.049	14145
918.161	14404
918.272	14469
918.384	14381
918.495	14336
918.606	14092
918.717	14062
918.828	14069
918.939	14153
919.05	14126
919.161	14035
919.272	13818
919.383	13902
919.494	14191
919.604	14206
919.715	14103
919.826	14096
919.936	14031
920.047	14161
920.157	14046
920.267	14233
920.378	14012
920.488	13936
920.598	14240
920.708	14412
920.818	14187
920.928	14119
921.038	14355
921.148	14225
921.258	13951
921.368	13849
921.477	13799
921.587	13814
921.697	13704
921.806	13898
921.916	13636
922.025	13575
922.134	13487
922.244	13480
922.353	13502
922.462	13350
922.571	13365
922.68	13072
922.789	13088
922.898	13160
923.007	13042
923.116	13107
923.224	13042
923.333	13072
923.442	12973
923.55	12993
923.659	12993
923.767	13050
923.876	12779
923.984	12985
924.092	12867
924.201	12916
924.309	12932
924.417	12810
924.525	12776
924.633	12848
924.741	13742
924.849	12612
924.956	12627
925.064	12608
925.172	12467
925.279	12578
925.387	12551
925.494	12486
925.602	12722
925.709	12570
925.816	12407
925.924	12528
926.031	12551
926.138	12494
926.245	12528
926.352	12479
926.459	12532
926.566	12612
926.673	12525
926.779	12346
926.886	12304
926.993	12213
927.099	12178
927.206	12106
927.312	12129
927.419	12209
927.525	12034
927.631	12125
927.737	12076
927.843	12091
927.95	11973
928.056	11988
928.162	12019
928.267	12133
928.373	12563
928.479	11980
928.585	11699
928.69	11904
928.796	11973
928.901	11840
929.007	11684
929.112	11786
929.218	11779
929.323	11668
929.428	11634
929.533	11824
929.638	11543
929.743	11630
929.848	11695
929.953	11642
930.058	11577
930.163	11406
930.267	11448
930.372	11562
930.477	11406
930.581	11558
930.685	11387
930.79	11345
930.894	11334
930.998	11265
931.103	11391
931.207	11090
931.311	11022
931.415	10866
931.519	10748
931.623	10763
