Data from test_V78500241_2138.txt Node
Date: Fri Mar 25 15:24:44 CST 2022
User: usil
Spectrometer: V785-0024
Trigger mode: 0
Integration Time (sec): 4.000000E-1
Scans to average: 1
Nonlinearity correction enabled: false
Boxcar width: 0
Storing dark spectrum: false
XAxis mode: Wavelengths
Number of Pixels in Spectrum: 1024
>>>>>Begin Spectral Data<<<<<
801.071	27785
801.214	27652
801.356	27412
801.499	27332
801.641	27207
801.783	27169
801.926	27264
802.068	27184
802.211	27184
802.353	27230
802.496	26998
802.638	26868
802.78	26902
802.923	26849
803.065	26792
803.208	26838
803.35	26800
803.492	27005
803.635	27089
803.777	27020
803.919	27074
804.061	27408
804.204	27142
804.346	26998
804.488	27005
804.63	26975
804.773	26921
804.915	27176
805.057	27230
805.199	26982
805.341	27131
805.483	27188
805.626	27237
805.768	27131
805.91	27211
806.052	27188
806.194	27161
806.336	27256
806.478	27192
806.62	27218
806.762	27321
806.904	27439
807.046	27610
807.188	27667
807.33	27644
807.472	27572
807.614	27458
807.756	27561
807.898	27576
808.04	27473
808.182	27443
808.324	27454
808.465	27656
808.607	27728
808.749	27827
808.891	27842
809.033	28097
809.174	27903
809.316	27713
809.458	27743
809.6	27709
809.741	27873
809.883	27911
810.025	28116
810.166	28158
810.308	28226
810.45	28025
810.591	27922
810.733	27808
810.875	27724
811.016	27591
811.158	27637
811.299	27842
811.441	27857
811.582	27907
811.724	27717
811.865	27694
812.007	27797
812.148	27705
812.29	27956
812.431	27991
812.573	28188
812.714	28257
812.855	28276
812.997	28421
813.138	28622
813.279	28440
813.421	28280
813.562	28207
813.703	28021
813.845	28044
813.986	27823
814.127	27492
814.268	27447
814.41	27443
814.551	27401
814.692	27625
814.833	27416
814.974	27348
815.115	27466
815.256	27393
815.397	27348
815.539	27462
815.68	27336
815.821	27226
815.962	27283
816.103	27173
816.244	27116
816.385	27058
816.526	27150
816.666	26861
816.807	26739
816.948	26857
817.089	26762
817.23	26670
817.371	26746
817.512	26754
817.653	26701
817.793	26712
817.934	26735
818.075	26750
818.216	26857
818.356	26644
818.497	26606
818.638	26476
818.778	26434
818.919	26644
819.06	26499
819.2	26629
819.341	26785
819.481	26750
819.622	26823
819.762	27131
819.903	27058
820.043	26853
820.184	26857
820.324	26788
820.465	26948
820.605	26880
820.746	26815
820.886	26765
821.026	26785
821.167	26857
821.307	26937
821.447	26724
821.588	26617
821.728	26552
821.868	26396
822.008	26233
822.149	26290
822.289	26130
822.429	25921
822.569	25826
822.709	25788
822.849	25674
822.99	25689
823.13	25670
823.27	25613
823.41	25556
823.55	25449
823.69	25567
823.83	25468
823.97	25479
824.11	25263
824.25	25179
824.389	25293
824.529	25518
824.669	25293
824.809	25499
824.949	25460
825.089	25426
825.228	25400
825.368	25065
825.508	25270
825.648	25304
825.787	25145
825.927	25217
826.067	25278
826.206	25088
826.346	25133
826.485	25187
826.625	25232
826.765	25259
826.904	25251
827.044	24947
827.183	24856
827.323	24848
827.462	25042
827.601	25015
827.741	24890
827.88	25042
828.02	24863
828.159	24894
828.298	24894
828.437	25015
828.577	24856
828.716	24989
828.855	24859
828.994	24612
829.134	24639
829.273	24661
829.412	24604
829.551	24525
829.69	24479
829.829	24688
829.968	24730
830.107	24658
830.246	24547
830.385	24490
830.524	24551
830.663	24365
830.802	24452
830.941	24155
831.08	24247
831.219	24197
831.357	24190
831.496	24407
831.635	24220
831.774	24213
831.913	24045
832.051	24053
832.19	24087
832.329	23996
832.467	23908
832.606	23885
832.744	23863
832.883	23828
833.022	23855
833.16	23836
833.299	23885
833.437	23954
833.576	23882
833.714	23939
833.852	23950
833.991	23889
834.129	23942
834.267	23965
834.406	24045
834.544	23916
834.682	23992
834.821	23969
834.959	24053
835.097	23760
835.235	23901
835.373	23855
835.511	23942
835.65	23813
835.788	23733
835.926	23630
836.064	23573
836.202	23573
836.34	23760
836.478	23832
836.615	23684
836.753	23794
836.891	23756
837.029	23703
837.167	23741
837.305	23680
837.443	23592
837.58	23570
837.718	23733
837.856	23551
837.993	23619
838.131	23573
838.269	23417
838.406	23436
838.544	23425
838.681	23296
838.819	23235
838.956	23185
839.094	23056
839.231	23075
839.369	23147
839.506	23486
839.643	23383
839.781	23113
839.918	23029
840.055	23044
840.193	22949
840.33	22972
840.467	23105
840.604	23025
840.742	23212
840.879	22873
841.016	22927
841.153	22831
841.29	23048
841.427	23090
841.564	23075
841.701	22968
841.838	22965
841.975	22881
842.112	22911
842.249	22850
842.385	22748
842.522	22847
842.659	22820
842.796	22748
842.933	22797
843.069	22812
843.206	22675
843.343	22694
843.479	22675
843.616	22759
843.752	22535
843.889	22497
844.025	22599
844.162	22615
844.298	22706
844.435	22402
844.571	22546
844.708	22611
844.844	22744
844.98	22675
845.117	22607
845.253	22390
845.389	22375
845.525	22535
845.661	22356
845.798	22207
845.934	22371
846.07	22158
846.206	22303
846.342	22341
846.478	22181
846.614	22029
846.75	21846
846.886	21979
847.022	22128
847.158	22032
847.294	22048
847.429	22013
847.565	21930
847.701	22158
847.837	21629
847.972	21633
848.108	21842
848.244	21766
848.379	21561
848.515	21538
848.65	21534
848.786	21644
848.921	21610
849.057	21781
849.192	21732
849.328	21519
849.463	21599
849.598	21572
849.734	21469
849.869	21462
850.004	21313
850.14	21435
850.275	21367
850.41	21249
850.545	21287
850.68	21291
850.815	21526
850.95	21298
851.085	21599
851.22	21538
851.355	21450
851.49	21412
851.625	21378
851.76	21348
851.895	21397
852.03	21264
852.165	21473
852.299	21393
852.434	21405
852.569	21431
852.703	21355
852.838	21481
852.973	21507
853.107	21523
853.242	21268
853.376	21039
853.511	21066
853.645	21165
853.78	21203
853.914	21245
854.048	21195
854.183	21173
854.317	21188
854.451	21268
854.585	21230
854.72	21203
854.854	21302
854.988	21142
855.122	21260
855.256	21024
855.39	21138
855.524	21135
855.658	21199
855.792	21176
855.926	21161
856.06	21340
856.194	21207
856.327	21138
856.461	21096
856.595	21119
856.729	21123
856.862	21176
856.996	21256
857.13	21291
857.263	21241
857.397	21313
857.53	21138
857.664	21211
857.797	21207
857.931	21245
858.064	21268
858.197	21291
858.331	21127
858.464	21112
858.597	21036
858.731	21260
858.864	21104
858.997	21058
859.13	21062
859.263	21207
859.396	21332
859.529	21108
859.662	21165
859.795	21211
859.928	21135
860.061	21332
860.194	21416
860.327	21294
860.46	21138
860.592	21317
860.725	21378
860.858	21336
860.99	21252
861.123	21017
861.256	21032
861.388	21127
861.521	21739
861.653	21116
861.786	21081
861.918	21032
862.05	21036
862.183	21009
862.315	21077
862.447	21127
862.58	21058
862.712	20929
862.844	20921
862.976	20883
863.108	20990
863.24	21340
863.372	20853
863.504	20914
863.636	20838
863.768	20921
863.9	20944
864.032	20750
864.164	20929
864.296	20834
864.428	20941
864.559	21085
864.691	20925
864.823	20914
864.954	20960
865.086	20906
865.217	20765
865.349	20746
865.48	20762
865.612	20883
865.743	20914
865.875	20838
866.006	20693
866.137	20830
866.269	20697
866.4	20849
866.531	20765
866.662	20667
866.793	20815
866.924	20674
867.055	20640
867.186	20617
867.317	20746
867.448	20629
867.579	20727
867.71	20727
867.841	20625
867.972	20739
868.103	20765
868.233	20785
868.364	20735
868.495	20842
868.625	20891
868.756	20990
868.886	21001
869.017	21001
869.147	21222
869.278	21112
869.408	20925
869.539	20910
869.669	21154
869.799	21020
869.929	21131
870.06	21062
870.19	21264
870.32	21249
870.45	21294
870.58	21302
870.71	21458
870.84	21420
870.97	21447
871.1	21370
871.23	21580
871.36	21561
871.489	21424
871.619	21507
871.749	21656
871.879	21466
872.008	21713
872.138	21633
872.267	21435
872.397	21405
872.526	21363
872.656	21306
872.785	21454
872.915	21534
873.044	21679
873.173	21633
873.303	21603
873.432	21526
873.561	21610
873.69	21663
873.819	21553
873.948	21641
874.077	21576
874.206	21553
874.335	21610
874.464	21698
874.593	21778
874.722	21686
874.851	21827
874.979	21876
875.108	21865
875.237	21797
875.365	21682
875.494	21739
875.623	21915
875.751	21724
875.88	21812
876.008	21968
876.136	22082
876.265	22154
876.393	22230
876.521	22268
876.65	22310
876.778	22177
876.906	22150
877.034	22139
877.162	22158
877.29	22044
877.418	22070
877.546	22196
877.674	22078
877.802	22059
877.93	22150
878.058	22112
878.185	22032
878.313	22116
878.441	22143
878.568	22002
878.696	22086
878.824	22029
878.951	22135
879.079	22162
879.206	22481
879.333	22325
879.461	22067
879.588	22055
879.715	22314
879.842	22375
879.97	22204
880.097	21922
880.224	21956
880.351	21934
880.478	22059
880.605	21873
880.732	21983
880.859	22135
880.986	22010
881.112	21987
881.239	21812
881.366	21682
881.493	21603
881.619	21690
881.746	21393
881.872	21568
881.999	21564
882.125	21412
882.252	21496
882.378	21545
882.505	21610
882.631	21367
882.757	21279
882.883	21272
883.01	21226
883.136	21176
883.262	21173
883.388	21100
883.514	21408
883.64	21195
883.766	21195
883.892	21070
884.018	20918
884.143	21146
884.269	21214
884.395	20899
884.52	20876
884.646	20804
884.772	20838
884.897	20823
885.023	20868
885.148	20952
885.274	21043
885.399	20899
885.524	20857
885.65	20910
885.775	20838
885.9	20864
886.025	20952
886.15	21036
886.275	20819
886.4	20933
886.525	20815
886.65	20883
886.775	20785
886.9	21032
887.025	21055
887.149	20872
887.274	20560
887.399	20621
887.523	20697
887.648	20663
887.773	20503
887.897	20735
888.021	20674
888.146	20575
888.27	20655
888.395	20727
888.519	20727
888.643	20758
888.767	20674
888.891	20617
889.015	20492
889.139	20606
889.263	20358
889.387	20530
889.511	20640
889.635	20476
889.759	20404
889.883	20480
890.006	20400
890.13	20587
890.254	20351
890.377	20442
890.501	20221
890.624	20103
890.748	20225
890.871	20145
890.995	20012
891.118	20031
891.241	19970
891.364	19963
891.488	20176
891.611	19978
891.734	19986
891.857	20024
891.98	20016
892.103	20111
892.226	19997
892.349	20001
892.471	19940
892.594	20031
892.717	20020
892.839	19963
892.962	19986
893.085	20054
893.207	19932
893.33	19894
893.452	19750
893.575	19890
893.697	19871
893.819	20012
893.941	20024
894.064	20100
894.186	19902
894.308	19769
894.43	19917
894.552	20069
894.674	19970
894.796	19913
894.918	19959
895.04	19799
895.161	20058
895.283	20058
895.405	19947
895.526	19875
895.648	19868
895.769	20050
895.891	20077
896.012	19997
896.134	19928
896.255	19978
896.376	19906
896.498	20012
896.619	20103
896.74	19921
896.861	19974
896.982	20252
897.103	20256
897.224	20172
897.345	20233
897.466	20157
897.587	20142
897.708	20259
897.828	20122
897.949	20130
898.07	19997
898.19	20107
898.311	20248
898.431	20058
898.552	20138
898.672	20180
898.792	20202
898.913	20142
899.033	20081
899.153	19993
899.273	19978
899.393	19970
899.513	19944
899.633	19826
899.753	19997
899.873	19860
899.993	19951
900.113	19883
900.232	19989
900.352	19849
900.472	19715
900.591	19597
900.711	19791
900.83	19552
900.95	19845
901.069	19769
901.189	19613
901.308	19411
901.427	19297
901.546	19358
901.665	19293
901.784	19270
901.904	19148
902.023	19183
902.141	18878
902.26	18806
902.379	18867
902.498	18833
902.617	18795
902.735	18844
902.854	18734
902.973	18749
903.091	18574
903.21	18479
903.328	18483
903.446	18483
903.565	18346
903.683	18251
903.801	18102
903.919	18167
904.038	18308
904.156	18060
904.274	18136
904.392	18057
904.51	18064
904.627	18022
904.745	18015
904.863	18178
904.981	17771
905.098	17619
905.216	17676
905.334	17756
905.451	17642
905.569	17592
905.686	17729
905.803	17649
905.921	17551
906.038	17573
906.155	17459
906.272	17448
906.389	17532
906.506	17223
906.623	17307
906.74	17200
906.857	17025
906.974	17212
907.091	17318
907.208	17391
907.324	17242
907.441	17117
907.557	16961
907.674	17018
907.79	16946
907.907	16877
908.023	16938
908.139	16980
908.256	16911
908.372	16797
908.488	16774
908.604	16755
908.72	16618
908.836	16630
908.952	16710
909.068	16744
909.184	16782
909.3	16694
909.415	16767
909.531	16626
909.647	16440
909.762	16367
909.878	16318
909.993	16382
910.108	16314
910.224	16299
910.339	16386
910.454	16223
910.57	16242
910.685	16150
910.8	16432
910.915	16417
911.03	16173
911.145	15964
911.259	15994
911.374	15991
911.489	15869
911.604	15949
911.718	15759
911.833	15781
911.947	15652
912.062	15561
912.176	15515
912.291	15656
912.405	15728
912.519	15880
912.633	15846
912.748	15865
912.862	15709
912.976	15606
913.09	15462
913.204	15542
913.318	15591
913.431	15724
913.545	15633
913.659	15599
913.772	15454
913.886	15332
914	15294
914.113	15348
914.226	15511
914.34	15359
914.453	15195
914.566	15359
914.68	15207
914.793	15230
914.906	15013
915.019	15009
915.132	14979
915.245	14963
915.358	14986
915.47	14967
915.583	15005
915.696	14887
915.809	15127
915.921	15108
916.034	14933
916.146	14861
916.259	14800
916.371	14914
916.483	14952
916.595	14838
916.708	14834
916.82	14800
916.932	14693
917.044	14655
917.156	14724
917.268	14629
917.38	14606
917.491	14674
917.603	14575
917.715	14765
917.826	14727
917.938	14552
918.049	14465
918.161	14590
918.272	14674
918.384	14727
918.495	14518
918.606	14415
918.717	14339
918.828	14431
918.939	14495
919.05	14164
919.161	14366
919.272	14161
919.383	14218
919.494	14518
919.604	14541
919.715	14438
919.826	14195
919.936	14366
920.047	14339
920.157	14320
920.267	14499
920.378	14362
920.488	14328
920.598	14495
920.708	14587
920.818	14492
920.928	14415
921.038	14606
921.148	14590
921.258	14263
921.368	14176
921.477	14062
921.587	14081
921.697	14008
921.806	14058
921.916	13830
922.025	13734
922.134	13738
922.244	13715
922.353	13658
922.462	13586
922.571	13571
922.68	13438
922.789	13388
922.898	13411
923.007	13304
923.116	13388
923.224	13388
923.333	13339
923.442	13312
923.55	13343
923.659	13221
923.767	13217
923.876	13183
923.984	13274
924.092	13069
924.201	13175
924.309	13122
924.417	13042
924.525	13012
924.633	13012
924.741	13814
924.849	12913
924.956	12928
925.064	12859
925.172	12730
925.279	12787
925.387	12776
925.494	12795
925.602	12833
925.709	12829
925.816	12703
925.924	12711
926.031	12909
926.138	12753
926.245	12764
926.352	12642
926.459	12833
926.566	12814
926.673	12631
926.779	12578
926.886	12646
926.993	12471
927.099	12369
927.206	12384
927.312	12323
927.419	12464
927.525	12327
927.631	12361
927.737	12296
927.843	12277
927.95	12106
928.056	12216
928.162	12258
928.267	12330
928.373	12856
928.479	12292
928.585	11988
928.69	12159
928.796	12175
928.901	12053
929.007	11851
929.112	12072
929.218	12060
929.323	11984
929.428	11992
929.533	12068
929.638	11840
929.743	11866
929.848	11893
929.953	11912
930.058	11813
930.163	11611
930.267	11600
930.372	11783
930.477	11634
930.581	11843
930.685	11638
930.79	11551
930.894	11532
930.998	11493
931.103	11623
931.207	11269
931.311	11147
931.415	11113
931.519	10862
931.623	10930
