Data from test_V78500241_3546.txt Node
Date: Fri Mar 25 15:34:33 CST 2022
User: usil
Spectrometer: V785-0024
Trigger mode: 0
Integration Time (sec): 4.000000E-1
Scans to average: 1
Nonlinearity correction enabled: false
Boxcar width: 0
Storing dark spectrum: false
XAxis mode: Wavelengths
Number of Pixels in Spectrum: 1024
>>>>>Begin Spectral Data<<<<<
801.071	27302
801.214	27249
801.356	27005
801.499	26982
801.641	26853
801.783	26777
801.926	26876
802.068	26777
802.211	26769
802.353	26758
802.496	26651
802.638	26594
802.78	26476
802.923	26248
803.065	26290
803.208	26366
803.35	26412
803.492	26670
803.635	26602
803.777	26457
803.919	26640
804.061	26960
804.204	26758
804.346	26606
804.488	26583
804.63	26549
804.773	26541
804.915	26659
805.057	26750
805.199	26568
805.341	26640
805.483	26819
805.626	26796
805.768	26716
805.91	26644
806.052	26785
806.194	26511
806.336	26868
806.478	26800
806.62	26796
806.762	26758
806.904	26857
807.046	27252
807.188	27192
807.33	27017
807.472	27176
807.614	27085
807.756	27074
807.898	26960
808.04	26982
808.182	27009
808.324	26948
808.465	27039
808.607	27165
808.749	27192
808.891	27431
809.033	27496
809.174	27431
809.316	27230
809.458	27245
809.6	27256
809.741	27481
809.883	27549
810.025	27641
810.166	27682
810.308	27610
810.45	27530
810.591	27504
810.733	27279
810.875	27218
811.016	27241
811.158	27218
811.299	27568
811.441	27576
811.582	27447
811.724	27294
811.865	27249
812.007	27306
812.148	27264
812.29	27256
812.431	27439
812.573	27644
812.714	27610
812.855	27914
812.997	27918
813.138	28013
813.279	27949
813.421	27736
813.562	27766
813.703	27572
813.845	27462
813.986	27340
814.127	27055
814.268	27108
814.41	27013
814.551	26979
814.692	27036
814.833	26876
814.974	26830
815.115	26967
815.256	26781
815.397	26746
815.539	26788
815.68	26830
815.821	26735
815.962	26781
816.103	26800
816.244	26590
816.385	26480
816.526	26499
816.666	26229
816.807	26278
816.948	26298
817.089	26336
817.23	26309
817.371	26195
817.512	26210
817.653	26225
817.793	26206
817.934	26267
818.075	26320
818.216	26313
818.356	26214
818.497	26008
818.638	25871
818.778	26096
818.919	25887
819.06	26058
819.2	26221
819.341	26240
819.481	26332
819.622	26400
819.762	26476
819.903	26469
820.043	26366
820.184	26339
820.324	26377
820.465	26480
820.605	26377
820.746	26252
820.886	26218
821.026	26282
821.167	26351
821.307	26404
821.447	26206
821.588	26130
821.728	26046
821.868	25879
822.008	25776
822.149	25693
822.289	25582
822.429	25563
822.569	25441
822.709	25422
822.849	25308
822.99	25270
823.13	25156
823.27	25244
823.41	25065
823.55	24905
823.69	25076
823.83	25072
823.97	24909
824.11	24837
824.25	24783
824.389	24825
824.529	25065
824.669	24977
824.809	24977
824.949	25061
825.089	24985
825.228	24871
825.368	24722
825.508	24856
825.648	24719
825.787	24749
825.927	24753
826.067	24833
826.206	24661
826.346	24859
826.485	24806
826.625	24749
826.765	24787
826.904	24856
827.044	24521
827.183	24483
827.323	24494
827.462	24578
827.601	24429
827.741	24498
827.88	24384
828.02	24403
828.159	24464
828.298	24410
828.437	24570
828.577	24426
828.716	24642
828.855	24334
828.994	24232
829.134	24133
829.273	24224
829.412	24068
829.551	24140
829.69	24262
829.829	24136
829.968	24258
830.107	24285
830.246	24251
830.385	24174
830.524	24194
830.663	23946
830.802	23965
830.941	23775
831.08	23703
831.219	23954
831.357	23840
831.496	24087
831.635	23931
831.774	23619
831.913	23726
832.051	23581
832.19	23493
832.329	23600
832.467	23417
832.606	23353
832.744	23383
832.883	23505
833.022	23463
833.16	23642
833.299	23414
833.437	23414
833.576	23558
833.714	23562
833.852	23676
833.991	23493
834.129	23646
834.267	23573
834.406	23604
834.544	23604
834.682	23627
834.821	23497
834.959	23699
835.097	23554
835.235	23703
835.373	23512
835.511	23486
835.65	23520
835.788	23353
835.926	23246
836.064	23216
836.202	23109
836.34	23455
836.478	23455
836.615	23398
836.753	23318
836.891	23452
837.029	23398
837.167	23197
837.305	23410
837.443	23265
837.58	23239
837.718	23395
837.856	23166
837.993	23216
838.131	23200
838.269	23044
838.406	23128
838.544	23056
838.681	22976
838.819	22828
838.956	22820
839.094	22702
839.231	22793
839.369	22976
839.506	23185
839.643	22984
839.781	22702
839.918	22630
840.055	22793
840.193	22626
840.33	22550
840.467	22698
840.604	22656
840.742	22850
840.879	22554
841.016	22672
841.153	22519
841.29	22691
841.427	22649
841.564	22679
841.701	22702
841.838	22653
841.975	22618
842.112	22603
842.249	22455
842.385	22550
842.522	22675
842.659	22519
842.796	22504
842.933	22481
843.069	22291
843.206	22424
843.343	22455
843.479	22341
843.616	22485
843.752	22185
843.889	22162
844.025	22238
844.162	22253
844.298	22371
844.435	22120
844.571	22158
844.708	22196
844.844	22360
844.98	22223
845.117	22291
845.253	22196
845.389	22044
845.525	22082
845.661	21903
845.798	22010
845.934	22109
846.07	21865
846.206	21907
846.342	21956
846.478	21770
846.614	21720
846.75	21709
846.886	21713
847.022	21789
847.158	21759
847.294	21679
847.429	21682
847.565	21724
847.701	21937
847.837	21447
847.972	21389
848.108	21542
848.244	21500
848.379	21161
848.515	21306
848.65	21199
848.786	21169
848.921	21207
849.057	21298
849.192	21393
849.328	21317
849.463	21207
849.598	21302
849.734	21237
849.869	21161
850.004	20975
850.14	21013
850.275	21009
850.41	20937
850.545	20937
850.68	20914
850.815	21055
850.95	21157
851.085	21123
851.22	21127
851.355	21005
851.49	21100
851.625	21081
851.76	20960
851.895	20937
852.03	20952
852.165	21020
852.299	21135
852.434	21131
852.569	21131
852.703	20937
852.838	21157
852.973	21081
853.107	21074
853.242	21066
853.376	20769
853.511	20743
853.645	20823
853.78	20937
853.914	20823
854.048	20861
854.183	20792
854.317	20979
854.451	21112
854.585	20838
854.72	20845
854.854	20914
854.988	20853
855.122	20876
855.256	20804
855.39	20857
855.524	20826
855.658	21013
855.792	20914
855.926	20823
856.06	20960
856.194	21036
856.327	20796
856.461	20720
856.595	20689
856.729	20849
856.862	20868
856.996	20842
857.13	20910
857.263	20944
857.397	20986
857.53	20785
857.664	20834
857.797	20815
857.931	20925
858.064	20842
858.197	20861
858.331	20769
858.464	20838
858.597	20617
858.731	20830
858.864	20781
858.997	20705
859.13	20807
859.263	20849
859.396	20914
859.529	20815
859.662	20735
859.795	20674
859.928	20743
860.061	21017
860.194	21009
860.327	20853
860.46	20948
860.592	21032
860.725	20941
860.858	20986
860.99	20906
861.123	20815
861.256	20697
861.388	20838
861.521	21675
861.653	20727
861.786	20670
861.918	20712
862.05	20743
862.183	20705
862.315	20876
862.447	20788
862.58	20765
862.712	20579
862.844	20495
862.976	20579
863.108	20636
863.24	20883
863.372	20526
863.504	20590
863.636	20587
863.768	20640
863.9	20598
864.032	20469
864.164	20587
864.296	20587
864.428	20765
864.559	20571
864.691	20636
864.823	20556
864.954	20629
865.086	20613
865.217	20469
865.349	20492
865.48	20389
865.612	20503
865.743	20621
865.875	20393
866.006	20400
866.137	20454
866.269	20488
866.4	20389
866.531	20400
866.662	20404
866.793	20503
866.924	20282
867.055	20488
867.186	20419
867.317	20461
867.448	20324
867.579	20434
867.71	20358
867.841	20362
867.972	20465
868.103	20442
868.233	20454
868.364	20446
868.495	20503
868.625	20640
868.756	20724
868.886	20507
869.017	20640
869.147	20838
869.278	20861
869.408	20727
869.539	20579
869.669	20754
869.799	20705
869.929	20823
870.06	20785
870.19	20979
870.32	20864
870.45	20998
870.58	21085
870.71	21036
870.84	21024
870.97	21028
871.1	21047
871.23	21207
871.36	21222
871.489	21123
871.619	21203
871.749	21214
871.879	21287
872.008	21405
872.138	21321
872.267	21203
872.397	21127
872.526	21043
872.656	21150
872.785	21142
872.915	21275
873.044	21279
873.173	21260
873.303	21310
873.432	21374
873.561	21336
873.69	21355
873.819	21329
873.948	21291
874.077	21310
874.206	21252
874.335	21214
874.464	21367
874.593	21629
874.722	21447
874.851	21572
874.979	21481
875.108	21614
875.237	21485
875.365	21340
875.494	21500
875.623	21431
875.751	21648
875.88	21549
876.008	21606
876.136	21781
876.265	21819
876.393	22097
876.521	21968
876.65	21972
876.778	21857
876.906	21937
877.034	21823
877.162	21888
877.29	21701
877.418	21968
877.546	21846
877.674	21873
877.802	21842
877.93	22006
878.058	21717
878.185	21854
878.313	21797
878.441	21873
878.568	21663
878.696	21835
878.824	21804
878.951	21983
879.079	22093
879.206	22223
879.333	22017
879.461	21899
879.588	21972
879.715	21972
879.842	22063
879.97	21937
880.097	21629
880.224	21675
880.351	21648
880.478	21587
880.605	21747
880.732	21747
880.859	21987
880.986	21747
881.112	21717
881.239	21583
881.366	21454
881.493	21272
881.619	21321
881.746	21397
881.872	21321
881.999	21180
882.125	21207
882.252	21218
882.378	21321
882.505	21393
882.631	21009
882.757	20960
882.883	21036
883.01	20952
883.136	20826
883.262	20845
883.388	20906
883.514	21028
883.64	21039
883.766	20929
883.892	20701
884.018	20792
884.143	20857
884.269	21104
884.395	20788
884.52	20511
884.646	20571
884.772	20621
884.897	20499
885.023	20613
885.148	20701
885.274	20651
885.399	20651
885.524	20663
885.65	20617
885.775	20648
885.9	20503
886.025	20781
886.15	20739
886.275	20598
886.4	20484
886.525	20499
886.65	20473
886.775	20530
886.9	20758
887.025	20937
887.149	20602
887.274	20404
887.399	20366
887.523	20294
887.648	20244
887.773	20339
887.897	20442
888.021	20434
888.146	20415
888.27	20522
888.395	20514
888.519	20400
888.643	20511
888.767	20564
888.891	20408
889.015	20343
889.139	20244
889.263	20199
889.387	20263
889.511	20469
889.635	20336
889.759	20199
889.883	20153
890.006	20336
890.13	20282
890.254	20111
890.377	20100
890.501	19959
890.624	19807
890.748	20050
890.871	19894
890.995	19837
891.118	19742
891.241	19746
891.364	19826
891.488	19894
891.611	19788
891.734	19772
891.857	19814
891.98	19826
892.103	19738
892.226	19807
892.349	19784
892.471	19632
892.594	19723
892.717	19723
892.839	19601
892.962	19662
893.085	19757
893.207	19761
893.33	19578
893.452	19495
893.575	19727
893.697	19658
893.819	19795
893.941	19719
894.064	19822
894.186	19647
894.308	19616
894.43	19753
894.552	19932
894.674	19693
894.796	19662
894.918	19635
895.04	19609
895.161	19769
895.283	19784
895.405	19651
895.526	19799
895.648	19655
895.769	19776
895.891	19784
896.012	19818
896.134	19818
896.255	19784
896.376	19571
896.498	19624
896.619	19704
896.74	19670
896.861	19784
896.982	20050
897.103	20214
897.224	20016
897.345	19833
897.466	19803
897.587	19871
897.708	20050
897.828	19849
897.949	19799
898.07	19674
898.19	19913
898.311	19982
898.431	19772
898.552	19841
898.672	20058
898.792	19940
898.913	19970
899.033	19772
899.153	19708
899.273	19670
899.393	19647
899.513	19772
899.633	19689
899.753	19635
899.873	19586
899.993	19670
900.113	19605
900.232	19647
900.352	19655
900.472	19499
900.591	19293
900.711	19556
900.83	19350
900.95	19544
901.069	19601
901.189	19411
901.308	19255
901.427	19004
901.546	19004
901.665	19061
901.784	19008
901.904	18932
902.023	18817
902.141	18582
902.26	18509
902.379	18604
902.498	18460
902.617	18456
902.735	18612
902.854	18506
902.973	18544
903.091	18232
903.21	18239
903.328	18247
903.446	18197
903.565	18068
903.683	18083
903.801	18049
903.919	17965
904.038	17893
904.156	17870
904.274	17866
904.392	17745
904.51	17680
904.627	17817
904.745	17847
904.863	17828
904.981	17551
905.098	17417
905.216	17490
905.334	17490
905.451	17486
905.569	17398
905.686	17524
905.803	17459
905.921	17227
906.038	17383
906.155	17318
906.272	17246
906.389	17178
906.506	17003
906.623	17121
906.74	16957
906.857	16919
906.974	16904
907.091	17102
907.208	17273
907.324	17022
907.441	16953
907.557	16793
907.674	16797
907.79	16706
907.907	16824
908.023	16786
908.139	16725
908.256	16679
908.372	16630
908.488	16702
908.604	16538
908.72	16516
908.836	16550
908.952	16417
909.068	16436
909.184	16527
909.3	16402
909.415	16474
909.531	16443
909.647	16181
909.762	16287
909.878	16188
909.993	16131
910.108	16162
910.224	16105
910.339	16188
910.454	16105
910.57	15983
910.685	16044
910.8	16188
910.915	16124
911.03	15983
911.145	15854
911.259	15819
911.374	15762
911.489	15724
911.604	15663
911.718	15557
911.833	15610
911.947	15439
912.062	15431
912.176	15492
912.291	15561
912.405	15595
912.519	15732
912.633	15690
912.748	15576
912.862	15416
912.976	15382
913.09	15336
913.204	15313
913.318	15386
913.431	15344
913.545	15454
913.659	15545
913.772	15237
913.886	15264
914	15203
914.113	15336
914.226	15294
914.34	15192
914.453	15032
914.566	15252
914.68	15074
914.793	15051
914.906	14941
915.019	14640
915.132	14845
915.245	14762
915.358	14887
915.47	14724
915.583	14697
915.696	14880
915.809	14773
915.921	14842
916.034	14739
916.146	14739
916.259	14522
916.371	14678
916.483	14781
916.595	14594
916.708	14640
916.82	14575
916.932	14522
917.044	14579
917.156	14583
917.268	14415
917.38	14396
917.491	14427
917.603	14366
917.715	14492
917.826	14602
917.938	14442
918.049	14298
918.161	14317
918.272	14632
918.384	14511
918.495	14362
918.606	14172
918.717	14168
918.828	14195
918.939	14164
919.05	14054
919.161	14221
919.272	14027
919.383	14008
919.494	14229
919.604	14415
919.715	14195
919.826	14096
919.936	14180
920.047	14199
920.157	14218
920.267	14298
920.378	14088
920.488	14180
920.598	14347
920.708	14393
920.818	14267
920.928	14294
921.038	14393
921.148	14431
921.258	14092
921.368	14119
921.477	13986
921.587	13894
921.697	13852
921.806	13845
921.916	13803
922.025	13559
922.134	13552
922.244	13506
922.353	13563
922.462	13354
922.571	13320
922.68	13297
922.789	13221
922.898	13236
923.007	13213
923.116	13194
923.224	13137
923.333	13141
923.442	13133
923.55	13088
923.659	12996
923.767	13080
923.876	13065
923.984	13084
924.092	12909
924.201	12943
924.309	13034
924.417	12962
924.525	12901
924.633	12856
924.741	13643
924.849	12623
924.956	12802
925.064	12798
925.172	12536
925.279	12722
925.387	12696
925.494	12673
925.602	12726
925.709	12665
925.816	12551
925.924	12627
926.031	12764
926.138	12570
926.245	12650
926.352	12528
926.459	12692
926.566	12692
926.673	12479
926.779	12391
926.886	12467
926.993	12254
927.099	12213
927.206	12125
927.312	12251
927.419	12247
927.525	12277
927.631	12197
927.737	12182
927.843	12045
927.95	11942
928.056	11901
928.162	12083
928.267	12079
928.373	12635
928.479	12129
928.585	11935
928.69	11999
928.796	12064
928.901	11901
929.007	11767
929.112	12026
929.218	11870
929.323	11775
929.428	11745
929.533	11961
929.638	11684
929.743	11748
929.848	11756
929.953	11741
930.058	11619
930.163	11493
930.267	11516
930.372	11638
930.477	11402
930.581	11775
930.685	11528
930.79	11368
930.894	11345
930.998	11337
931.103	11474
931.207	11143
931.311	10961
931.415	10934
931.519	10729
931.623	10755
