Data from test_V78500241_1220.txt Node
Date: Fri Mar 25 15:18:21 CST 2022
User: usil
Spectrometer: V785-0024
Trigger mode: 0
Integration Time (sec): 4.000000E-1
Scans to average: 1
Nonlinearity correction enabled: false
Boxcar width: 0
Storing dark spectrum: false
XAxis mode: Wavelengths
Number of Pixels in Spectrum: 1024
>>>>>Begin Spectral Data<<<<<
801.071	28352
801.214	28181
801.356	28112
801.499	27846
801.641	27789
801.783	27812
801.926	27827
802.068	27770
802.211	27698
802.353	27709
802.496	27523
802.638	27504
802.78	27488
802.923	27420
803.065	27317
803.208	27367
803.35	27397
803.492	27580
803.635	27724
803.777	27500
803.919	27633
804.061	28025
804.204	27770
804.346	27591
804.488	27511
804.63	27625
804.773	27717
804.915	27705
805.057	27751
805.199	27816
805.341	27675
805.483	27827
805.626	27812
805.768	27785
805.91	27831
806.052	27797
806.194	27759
806.336	27903
806.478	27812
806.62	27888
806.762	27720
806.904	28029
807.046	28276
807.188	28192
807.33	28382
807.472	28204
807.614	28169
807.756	28230
807.898	28204
808.04	28086
808.182	28032
808.324	28093
808.465	28055
808.607	28276
808.749	28405
808.891	28607
809.033	28557
809.174	28512
809.316	28375
809.458	28394
809.6	28447
809.741	28630
809.883	28717
810.025	28767
810.166	28698
810.308	28679
810.45	28759
810.591	28752
810.733	28580
810.875	28535
811.016	28478
811.158	28409
811.299	28577
811.441	28516
811.582	28527
811.724	28455
811.865	28329
812.007	28561
812.148	28565
812.29	28573
812.431	28748
812.573	28653
812.714	28767
812.855	29075
812.997	28976
813.138	29208
813.279	29102
813.421	29143
813.562	28858
813.703	28824
813.845	28599
813.986	28432
814.127	28268
814.268	28215
814.41	28185
814.551	28109
814.692	28196
814.833	28139
814.974	28128
815.115	28333
815.256	28025
815.397	28051
815.539	27987
815.68	27941
815.821	27857
815.962	28040
816.103	27960
816.244	27953
816.385	27819
816.526	27568
816.666	27557
816.807	27679
816.948	27500
817.089	27614
817.23	27447
817.371	27481
817.512	27542
817.653	27389
817.793	27485
817.934	27500
818.075	27622
818.216	27538
818.356	27389
818.497	27313
818.638	27176
818.778	27161
818.919	27123
819.06	27287
819.2	27332
819.341	27534
819.481	27439
819.622	27580
819.762	27964
819.903	27800
820.043	27633
820.184	27656
820.324	27576
820.465	27599
820.605	27637
820.746	27507
820.886	27401
821.026	27553
821.167	27580
821.307	27759
821.447	27583
821.588	27469
821.728	27313
821.868	27017
822.008	27017
822.149	27119
822.289	26975
822.429	26754
822.569	26617
822.709	26598
822.849	26415
822.99	26427
823.13	26434
823.27	26351
823.41	26199
823.55	26168
823.69	26366
823.83	26290
823.97	26119
824.11	26054
824.25	26088
824.389	26069
824.529	26199
824.669	25944
824.809	26328
824.949	26240
825.089	26404
825.228	26164
825.368	26107
825.508	25993
825.648	25989
825.787	25932
825.927	26020
826.067	26046
826.206	26008
826.346	26092
826.485	25978
826.625	25982
826.765	26172
826.904	26119
827.044	25791
827.183	25814
827.323	25712
827.462	25772
827.601	25776
827.741	25655
827.88	25624
828.02	25666
828.159	25734
828.298	25750
828.437	25746
828.577	25647
828.716	25830
828.855	25689
828.994	25365
829.134	25449
829.273	25525
829.412	25533
829.551	25445
829.69	25453
829.829	25335
829.968	25624
830.107	25358
830.246	25422
830.385	25316
830.524	25308
830.663	25301
830.802	25061
830.941	25088
831.08	24958
831.219	25065
831.357	25183
831.496	25247
831.635	25141
831.774	24913
831.913	24875
832.051	24844
832.19	24890
832.329	24726
832.467	24696
832.606	24623
832.744	24669
832.883	24741
833.022	24703
833.16	24760
833.299	24764
833.437	24707
833.576	24776
833.714	24722
833.852	24829
833.991	24837
834.129	24897
834.267	24719
834.406	24802
834.544	24798
834.682	24859
834.821	24627
834.959	24833
835.097	24631
835.235	24802
835.373	24802
835.511	24768
835.65	24669
835.788	24650
835.926	24593
836.064	24467
836.202	24494
836.34	24642
836.478	24726
836.615	24707
836.753	24620
836.891	24544
837.029	24582
837.167	24528
837.305	24502
837.443	24505
837.58	24251
837.718	24483
837.856	24486
837.993	24300
838.131	24448
838.269	24391
838.406	24292
838.544	24285
838.681	24140
838.819	24095
838.956	23843
839.094	23939
839.231	23912
839.369	24114
839.506	24178
839.643	24159
839.781	23889
839.918	23859
840.055	23889
840.193	24011
840.33	23843
840.467	23961
840.604	23939
840.742	24030
840.879	23699
841.016	23775
841.153	23836
841.29	23927
841.427	23802
841.564	23961
841.701	23748
841.838	23707
841.975	23885
842.112	23805
842.249	23676
842.385	23653
842.522	23859
842.659	23771
842.796	23638
842.933	23596
843.069	23653
843.206	23486
843.343	23623
843.479	23566
843.616	23551
843.752	23452
843.889	23440
844.025	23505
844.162	23303
844.298	23398
844.435	23395
844.571	23410
844.708	23398
844.844	23448
844.98	23440
845.117	23665
845.253	23246
845.389	23315
845.525	23220
845.661	23250
845.798	22961
845.934	23162
846.07	23067
846.206	23102
846.342	23204
846.478	23151
846.614	22953
846.75	22736
846.886	22953
847.022	22850
847.158	22949
847.294	22919
847.429	22885
847.565	22656
847.701	23025
847.837	22493
847.972	22443
848.108	22538
848.244	22603
848.379	22375
848.515	22344
848.65	22337
848.786	22474
848.921	22352
849.057	22409
849.192	22455
849.328	22436
849.463	22474
849.598	22314
849.734	22238
849.869	22333
850.004	22207
850.14	22185
850.275	22211
850.41	22055
850.545	22124
850.68	22128
850.815	22116
850.95	22196
851.085	22223
851.22	22459
851.355	22238
851.49	22215
851.625	22234
851.76	22112
851.895	21892
852.03	22116
852.165	22192
852.299	22215
852.434	22242
852.569	22276
852.703	22211
852.838	22226
852.973	22287
853.107	22363
853.242	22211
853.376	21949
853.511	21880
853.645	21907
853.78	22105
853.914	22036
854.048	21888
854.183	21949
854.317	22010
854.451	22200
854.585	21983
854.72	22059
854.854	21991
854.988	22017
855.122	22082
855.256	21861
855.39	21956
855.524	22192
855.658	22036
855.792	21983
855.926	21960
856.06	22032
856.194	22036
856.327	21953
856.461	21953
856.595	21895
856.729	22051
856.862	22120
856.996	21979
857.13	22090
857.263	22128
857.397	22082
857.53	21968
857.664	21956
857.797	22036
857.931	22120
858.064	22059
858.197	22158
858.331	21934
858.464	21937
858.597	21842
858.731	21899
858.864	21998
858.997	21945
859.13	21842
859.263	22078
859.396	21991
859.529	22040
859.662	21842
859.795	21983
859.928	22017
860.061	22128
860.194	22234
860.327	22070
860.46	22036
860.592	22120
860.725	22230
860.858	22185
860.99	22078
861.123	21922
861.256	21956
861.388	22093
861.521	22748
861.653	21739
861.786	21709
861.918	21861
862.05	21930
862.183	21865
862.315	21907
862.447	21991
862.58	21876
862.712	21732
862.844	21637
862.976	21778
863.108	21747
863.24	21994
863.372	21660
863.504	21614
863.636	21755
863.768	21739
863.9	21739
864.032	21671
864.164	21751
864.296	21717
864.428	21785
864.559	21682
864.691	21827
864.823	21812
864.954	21751
865.086	21504
865.217	21625
865.349	21469
865.48	21637
865.612	21690
865.743	21709
865.875	21591
866.006	21625
866.137	21564
866.269	21698
866.4	21523
866.531	21447
866.662	21462
866.793	21412
866.924	21568
867.055	21466
867.186	21534
867.317	21405
867.448	21336
867.579	21553
867.71	21477
867.841	21332
867.972	21545
868.103	21393
868.233	21504
868.364	21485
868.495	21618
868.625	21648
868.756	21831
868.886	21504
869.017	21747
869.147	21991
869.278	21838
869.408	21751
869.539	21785
869.669	21823
869.799	21679
869.929	21823
870.06	21800
870.19	21956
870.32	22090
870.45	22090
870.58	22139
870.71	22219
870.84	22223
870.97	22105
871.1	22093
871.23	22246
871.36	22341
871.489	22318
871.619	22356
871.749	22299
871.879	22329
872.008	22386
872.138	22390
872.267	22348
872.397	22219
872.526	22177
872.656	22177
872.785	22192
872.915	22318
873.044	22341
873.173	22348
873.303	22394
873.432	22459
873.561	22493
873.69	22379
873.819	22432
873.948	22440
874.077	22409
874.206	22382
874.335	22417
874.464	22440
874.593	22618
874.722	22538
874.851	22500
874.979	22611
875.108	22725
875.237	22538
875.365	22462
875.494	22660
875.623	22656
875.751	22405
875.88	22470
876.008	22767
876.136	22733
876.265	23067
876.393	23094
876.521	23025
876.65	22999
876.778	22877
876.906	22995
877.034	22877
877.162	22965
877.29	22862
877.418	22942
877.546	22892
877.674	22930
877.802	22877
877.93	22797
878.058	23029
878.185	22862
878.313	22850
878.441	22934
878.568	22771
878.696	22972
878.824	23102
878.951	22900
879.079	22987
879.206	23079
879.333	23170
879.461	22953
879.588	22995
879.715	23170
879.842	23162
879.97	22942
880.097	22675
880.224	22653
880.351	22763
880.478	22763
880.605	22603
880.732	22759
880.859	22946
880.986	22786
881.112	22797
881.239	22531
881.366	22481
881.493	22386
881.619	22390
881.746	22432
881.872	22333
881.999	22306
882.125	22299
882.252	22325
882.378	22143
882.505	22402
882.631	22101
882.757	22116
882.883	21964
883.01	21960
883.136	21884
883.262	21934
883.388	21903
883.514	22021
883.64	22029
883.766	21892
883.892	21793
884.018	21717
884.143	21915
884.269	22025
884.395	21671
884.52	21534
884.646	21686
884.772	21549
884.897	21614
885.023	21580
885.148	21633
885.274	21816
885.399	21713
885.524	21656
885.65	21564
885.775	21751
885.9	21580
886.025	21717
886.15	21614
886.275	21576
886.4	21408
886.525	21568
886.65	21603
886.775	21534
886.9	21591
887.025	21869
887.149	21572
887.274	21492
887.399	21378
887.523	21466
887.648	21287
887.773	21218
887.897	21389
888.021	21466
888.146	21340
888.27	21462
888.395	21439
888.519	21321
888.643	21393
888.767	21431
888.891	21336
889.015	21157
889.139	21230
889.263	21214
889.387	21313
889.511	21317
889.635	21230
889.759	21203
889.883	21123
890.006	21131
890.13	21264
890.254	21104
890.377	20956
890.501	20960
890.624	20864
890.748	20948
890.871	20910
890.995	20674
891.118	20609
891.241	20731
891.364	20830
891.488	20868
891.611	20788
891.734	20762
891.857	20746
891.98	20762
892.103	20769
892.226	20800
892.349	20629
892.471	20495
892.594	20693
892.717	20606
892.839	20568
892.962	20663
893.085	20678
893.207	20670
893.33	20609
893.452	20533
893.575	20625
893.697	20724
893.819	20781
893.941	20727
894.064	20720
894.186	20454
894.308	20522
894.43	20788
894.552	20857
894.674	20762
894.796	20682
894.918	20609
895.04	20533
895.161	20823
895.283	20648
895.405	20526
895.526	20575
895.648	20556
895.769	20640
895.891	20579
896.012	20648
896.134	20735
896.255	20590
896.376	20648
896.498	20598
896.619	20663
896.74	20602
896.861	20560
896.982	20952
897.103	21070
897.224	20895
897.345	20861
897.466	20701
897.587	20796
897.708	20883
897.828	20864
897.949	20689
898.07	20625
898.19	20826
898.311	21036
898.431	20724
898.552	20785
898.672	20891
898.792	20838
898.913	20849
899.033	20583
899.153	20659
899.273	20552
899.393	20431
899.513	20492
899.633	20533
899.753	20606
899.873	20446
899.993	20590
900.113	20438
900.232	20533
900.352	20499
900.472	20457
900.591	20282
900.711	20290
900.83	20286
900.95	20396
901.069	20473
901.189	20271
901.308	19860
901.427	19841
901.546	19822
901.665	20062
901.784	19845
901.904	19765
902.023	19578
902.141	19548
902.26	19392
902.379	19487
902.498	19373
902.617	19335
902.735	19419
902.854	19384
902.973	19198
903.091	19012
903.21	19008
903.328	18977
903.446	18875
903.565	18909
903.683	18962
903.801	18719
903.919	18715
904.038	18829
904.156	18692
904.274	18711
904.392	18627
904.51	18566
904.627	18627
904.745	18707
904.863	18719
904.981	18346
905.098	18251
905.216	18357
905.334	18319
905.451	18357
905.569	18384
905.686	18315
905.803	18330
905.921	18114
906.038	18178
906.155	18155
906.272	18038
906.389	18060
906.506	17851
906.623	17851
906.74	17855
906.857	17722
906.974	17668
907.091	17901
907.208	17916
907.324	17798
907.441	17703
907.557	17627
907.674	17566
907.79	17467
907.907	17619
908.023	17608
908.139	17543
908.256	17429
908.372	17509
908.488	17368
908.604	17455
908.72	17299
908.836	17349
908.952	17315
909.068	17288
909.184	17341
909.3	17254
909.415	17364
909.531	17258
909.647	17060
909.762	17105
909.878	16984
909.993	16946
910.108	17121
910.224	16919
910.339	16991
910.454	16877
910.57	16752
910.685	16668
910.8	16999
910.915	16900
911.03	16881
911.145	16618
911.259	16573
911.374	16569
911.489	16519
911.604	16424
911.718	16413
911.833	16261
911.947	16196
912.062	16173
912.176	16230
912.291	16386
912.405	16299
912.519	16485
912.633	16382
912.748	16329
912.862	16219
912.976	16071
913.09	16032
913.204	15922
913.318	16188
913.431	16185
913.545	16280
913.659	16166
913.772	16112
913.886	15907
914	15861
914.113	16090
914.226	16006
914.34	15991
914.453	15812
914.566	15975
914.68	15835
914.793	15732
914.906	15652
915.019	15523
915.132	15485
915.245	15492
915.358	15496
915.47	15473
915.583	15439
915.696	15450
915.809	15637
915.921	15633
916.034	15504
916.146	15363
916.259	15275
916.371	15313
916.483	15416
916.595	15317
916.708	15344
916.82	15264
916.932	15325
917.044	15249
917.156	15252
917.268	15138
917.38	15268
917.491	15245
917.603	15108
917.715	15256
917.826	15268
917.938	15104
918.049	15001
918.161	14963
918.272	15199
918.384	15195
918.495	15062
918.606	14918
918.717	14750
918.828	14975
918.939	14963
919.05	14811
919.161	14842
919.272	14800
919.383	14792
919.494	14963
919.604	15043
919.715	14929
919.826	14819
919.936	14788
920.047	14838
920.157	14880
920.267	15005
920.378	14914
920.488	14773
920.598	15108
920.708	15199
920.818	15024
920.928	15039
921.038	15100
921.148	15157
921.258	14906
921.368	14587
921.477	14648
921.587	14541
921.697	14469
921.806	14583
921.916	14317
922.025	14229
922.134	14157
922.244	14176
922.353	14233
922.462	14157
922.571	13989
922.68	13879
922.789	13864
922.898	13864
923.007	13879
923.116	13845
923.224	13757
923.333	13898
923.442	13757
923.55	13613
923.659	13742
923.767	13655
923.876	13620
923.984	13727
924.092	13597
924.201	13533
924.309	13590
924.417	13578
924.525	13529
924.633	13441
924.741	14294
924.849	13274
924.956	13419
925.064	13327
925.172	13187
925.279	13209
925.387	13217
925.494	13301
925.602	13354
925.709	13289
925.816	13122
925.924	13232
926.031	13247
926.138	13168
926.245	13156
926.352	13076
926.459	13145
926.566	13263
926.673	13099
926.779	13015
926.886	13042
926.993	12741
927.099	12764
927.206	12810
927.312	12768
927.419	12837
927.525	12711
927.631	12821
927.737	12719
927.843	12627
927.95	12673
928.056	12566
928.162	12654
928.267	12719
928.373	13145
928.479	12692
928.585	12452
928.69	12574
928.796	12601
928.901	12513
929.007	12327
929.112	12388
929.218	12384
929.323	12311
929.428	12270
929.533	12403
929.638	12270
929.743	12247
929.848	12296
929.953	12262
930.058	12125
930.163	12045
930.267	12064
930.372	12136
930.477	11992
930.581	12159
930.685	12053
930.79	11897
930.894	11847
930.998	11779
931.103	12064
931.207	11661
931.311	11600
931.415	11398
931.519	11261
931.623	11258
