Data from test_V78500241_523.txt Node
Date: Fri Mar 25 15:13:30 CST 2022
User: usil
Spectrometer: V785-0024
Trigger mode: 0
Integration Time (sec): 4.000000E-1
Scans to average: 1
Nonlinearity correction enabled: false
Boxcar width: 0
Storing dark spectrum: false
XAxis mode: Wavelengths
Number of Pixels in Spectrum: 1024
>>>>>Begin Spectral Data<<<<<
801.071	27485
801.214	27443
801.356	27222
801.499	27161
801.641	26986
801.783	26914
801.926	27036
802.068	27085
802.211	26906
802.353	27043
802.496	26792
802.638	26609
802.78	26636
802.923	26674
803.065	26617
803.208	26625
803.35	26648
803.492	26785
803.635	26762
803.777	26781
803.919	26876
804.061	27085
804.204	26819
804.346	26948
804.488	26800
804.63	26678
804.773	26807
804.915	26815
805.057	26933
805.199	26720
805.341	26864
805.483	26967
805.626	26868
805.768	26880
805.91	26940
806.052	26891
806.194	26925
806.336	27013
806.478	26940
806.62	26990
806.762	27032
806.904	27348
807.046	27431
807.188	27378
807.33	27306
807.472	27378
807.614	27321
807.756	27310
807.898	27233
808.04	27119
808.182	27180
808.324	27142
808.465	27233
808.607	27454
808.749	27481
808.891	27549
809.033	27614
809.174	27641
809.316	27618
809.458	27545
809.6	27606
809.741	27686
809.883	27759
810.025	27819
810.166	27884
810.308	27774
810.45	27842
810.591	27831
810.733	27599
810.875	27633
811.016	27260
811.158	27534
811.299	27583
811.441	27755
811.582	27819
811.724	27587
811.865	27447
812.007	27519
812.148	27454
812.29	27568
812.431	27736
812.573	27728
812.714	28040
812.855	28048
812.997	28185
813.138	28284
813.279	28272
813.421	28215
813.562	28048
813.703	28048
813.845	27930
813.986	27564
814.127	27367
814.268	27382
814.41	27313
814.551	27207
814.692	27317
814.833	27237
814.974	27218
815.115	27325
815.256	27077
815.397	27154
815.539	27127
815.68	27081
815.821	26883
815.962	26967
816.103	27013
816.244	26937
816.385	26735
816.526	26758
816.666	26815
816.807	26473
816.948	26526
817.089	26617
817.23	26606
817.371	26465
817.512	26598
817.653	26488
817.793	26355
817.934	26533
818.075	26374
818.216	26609
818.356	26503
818.497	26278
818.638	26252
818.778	26320
818.919	26309
819.06	26362
819.2	26374
819.341	26655
819.481	26415
819.622	26564
819.762	26765
819.903	26769
820.043	26670
820.184	26716
820.324	26560
820.465	26826
820.605	26579
820.746	26606
820.886	26400
821.026	26594
821.167	26571
821.307	26606
821.447	26499
821.588	26423
821.728	26282
821.868	26092
822.008	25970
822.149	25978
822.289	25818
822.429	25677
822.569	25795
822.709	25643
822.849	25578
822.99	25502
823.13	25381
823.27	25540
823.41	25274
823.55	25202
823.69	25346
823.83	25255
823.97	25206
824.11	25122
824.25	25061
824.389	25171
824.529	25152
824.669	25168
824.809	25247
824.949	25141
825.089	25171
825.228	25160
825.368	25084
825.508	24863
825.648	24916
825.787	25171
825.927	25072
826.067	24985
826.206	24985
826.346	25080
826.485	25023
826.625	24894
826.765	25076
826.904	24909
827.044	24707
827.183	24692
827.323	24681
827.462	24806
827.601	24703
827.741	24711
827.88	24658
828.02	24608
828.159	24700
828.298	24665
828.437	24719
828.577	24798
828.716	24703
828.855	24563
828.994	24342
829.134	24448
829.273	24456
829.412	24414
829.551	24388
829.69	24311
829.829	24532
829.968	24407
830.107	24410
830.246	24350
830.385	24353
830.524	24220
830.663	24220
830.802	24095
830.941	24041
831.08	23939
831.219	24011
831.357	24152
831.496	24270
831.635	24022
831.774	24018
831.913	23847
832.051	23813
832.19	23779
832.329	23760
832.467	23805
832.606	23596
832.744	23676
832.883	23802
833.022	23657
833.16	23657
833.299	23855
833.437	23764
833.576	23722
833.714	23767
833.852	23722
833.991	23813
834.129	23973
834.267	23748
834.406	23775
834.544	23764
834.682	23870
834.821	23756
834.959	24068
835.097	23687
835.235	23836
835.373	23821
835.511	23695
835.65	23615
835.788	23524
835.926	23600
836.064	23398
836.202	23436
836.34	23596
836.478	23661
836.615	23604
836.753	23501
836.891	23764
837.029	23619
837.167	23528
837.305	23387
837.443	23482
837.58	23486
837.718	23497
837.856	23535
837.993	23440
838.131	23440
838.269	23364
838.406	23398
838.544	23258
838.681	23102
838.819	23029
838.956	22965
839.094	22843
839.231	22987
839.369	23018
839.506	23273
839.643	23140
839.781	22915
839.918	22854
840.055	22923
840.193	23003
840.33	22790
840.467	22877
840.604	22991
840.742	23181
840.879	22767
841.016	22763
841.153	22786
841.29	23010
841.427	22847
841.564	22850
841.701	22801
841.838	22812
841.975	22748
842.112	22744
842.249	22748
842.385	22516
842.522	22725
842.659	22752
842.796	22523
842.933	22512
843.069	22603
843.206	22538
843.343	22481
843.479	22763
843.616	22527
843.752	22375
843.889	22417
844.025	22565
844.162	22455
844.298	22523
844.435	22322
844.571	22280
844.708	22466
844.844	22554
844.98	22641
845.117	22375
845.253	22356
845.389	22287
845.525	22333
845.661	22299
845.798	22002
845.934	22287
846.07	22002
846.206	22070
846.342	22135
846.478	22162
846.614	21972
846.75	21808
846.886	21941
847.022	21956
847.158	21797
847.294	21835
847.429	21930
847.565	21888
847.701	22097
847.837	21610
847.972	21633
848.108	21656
848.244	21888
848.379	21469
848.515	21412
848.65	21443
848.786	21416
848.921	21481
849.057	21675
849.192	21644
849.328	21530
849.463	21485
849.598	21405
849.734	21348
849.869	21329
850.004	21272
850.14	21351
850.275	21184
850.41	21104
850.545	21203
850.68	21188
850.815	21154
850.95	21272
851.085	21367
851.22	21275
851.355	21211
851.49	21214
851.625	21214
851.76	21093
851.895	21108
852.03	21127
852.165	21302
852.299	21298
852.434	21226
852.569	21275
852.703	21055
852.838	21169
852.973	21428
853.107	21256
853.242	21176
853.376	21119
853.511	20967
853.645	20986
853.78	21104
853.914	21058
854.048	21024
854.183	21013
854.317	21093
854.451	21226
854.585	21017
854.72	20971
854.854	21066
854.988	21055
855.122	21104
855.256	20861
855.39	21017
855.524	21062
855.658	21070
855.792	21096
855.926	21036
856.06	21142
856.194	21036
856.327	21123
856.461	20948
856.595	20868
856.729	20929
856.862	21081
856.996	20960
857.13	21077
857.263	21252
857.397	21108
857.53	20986
857.664	21157
857.797	20956
857.931	21150
858.064	20975
858.197	21104
858.331	21020
858.464	20963
858.597	20887
858.731	20971
858.864	21066
858.997	20994
859.13	20868
859.263	21013
859.396	21017
859.529	21043
859.662	20990
859.795	20887
859.928	20937
860.061	21135
860.194	21237
860.327	21154
860.46	21089
860.592	21108
860.725	21066
860.858	21127
860.99	21051
861.123	20910
861.256	21013
861.388	21135
861.521	21831
861.653	20921
861.786	20918
861.918	20853
862.05	20781
862.183	21020
862.315	20994
862.447	20941
862.58	20902
862.712	20845
862.844	20838
862.976	20861
863.108	20758
863.24	21169
863.372	20625
863.504	20708
863.636	20735
863.768	20853
863.9	20785
864.032	20617
864.164	20701
864.296	20838
864.428	20895
864.559	20773
864.691	20716
864.823	20872
864.954	20708
865.086	20731
865.217	20651
865.349	20526
865.48	20609
865.612	20514
865.743	20769
865.875	20727
866.006	20552
866.137	20606
866.269	20727
866.4	20533
866.531	20480
866.662	20606
866.793	20457
866.924	20617
867.055	20511
867.186	20537
867.317	20488
867.448	20511
867.579	20621
867.71	20450
867.841	20434
867.972	20575
868.103	20552
868.233	20434
868.364	20587
868.495	20765
868.625	20686
868.756	20979
868.886	20693
869.017	20861
869.147	21047
869.278	20933
869.408	20872
869.539	20891
869.669	20899
869.799	20853
869.929	20937
870.06	21013
870.19	21138
870.32	21058
870.45	21157
870.58	21123
870.71	21298
870.84	21370
870.97	21211
871.1	21237
871.23	21294
871.36	21397
871.489	21260
871.619	21443
871.749	21420
871.879	21332
872.008	21466
872.138	21382
872.267	21389
872.397	21336
872.526	21226
872.656	21233
872.785	21176
872.915	21416
873.044	21542
873.173	21408
873.303	21447
873.432	21416
873.561	21530
873.69	21393
873.819	21443
873.948	21511
874.077	21428
874.206	21412
874.335	21473
874.464	21542
874.593	21629
874.722	21580
874.851	21648
874.979	21633
875.108	21736
875.237	21637
875.365	21583
875.494	21720
875.623	21633
875.751	21496
875.88	21648
876.008	21812
876.136	21831
876.265	22021
876.393	22173
876.521	22070
876.65	22090
876.778	21941
876.906	22006
877.034	21861
877.162	22044
877.29	22040
877.418	22029
877.546	22078
877.674	22021
877.802	22036
877.93	21911
878.058	22002
878.185	21941
878.313	21907
878.441	21903
878.568	21873
878.696	21926
878.824	22131
878.951	22074
879.079	22246
879.206	22249
879.333	22166
879.461	22082
879.588	22036
879.715	22143
879.842	22333
879.97	22059
880.097	21861
880.224	21827
880.351	21835
880.478	21865
880.605	21800
880.732	21819
880.859	22013
880.986	21804
881.112	21857
881.239	21717
881.366	21553
881.493	21348
881.619	21424
881.746	21507
881.872	21447
881.999	21485
882.125	21283
882.252	21572
882.378	21454
882.505	21515
882.631	21287
882.757	21241
882.883	21272
883.01	21146
883.136	21028
883.262	20944
883.388	21047
883.514	21123
883.64	21104
883.766	21150
883.892	20914
884.018	20925
884.143	21085
884.269	21260
884.395	20845
884.52	20838
884.646	20678
884.772	20750
884.897	20773
885.023	20788
885.148	20918
885.274	20944
885.399	20880
885.524	20701
885.65	20769
885.775	20788
885.9	20701
886.025	20842
886.15	20891
886.275	20758
886.4	20754
886.525	20819
886.65	20739
886.775	20682
886.9	20906
887.025	21013
887.149	20712
887.274	20663
887.399	20545
887.523	20613
887.648	20629
887.773	20484
887.897	20625
888.021	20556
888.146	20499
888.27	20568
888.395	20594
888.519	20632
888.643	20568
888.767	20583
888.891	20339
889.015	20309
889.139	20396
889.263	20229
889.387	20362
889.511	20617
889.635	20408
889.759	20347
889.883	20286
890.006	20374
890.13	20374
890.254	20202
890.377	20259
890.501	20035
890.624	20111
890.748	20077
890.871	19970
890.995	19826
891.118	19864
891.241	20005
891.364	19818
891.488	20088
891.611	19902
891.734	19898
891.857	19963
891.98	19959
892.103	19955
892.226	19978
892.349	19917
892.471	19738
892.594	19883
892.717	19845
892.839	19879
892.962	19795
893.085	19860
893.207	19814
893.33	19746
893.452	19727
893.575	19898
893.697	19704
893.819	19913
893.941	19928
894.064	19967
894.186	19837
894.308	19875
894.43	19871
894.552	19928
894.674	19875
894.796	19696
894.918	19776
895.04	19833
895.161	19917
895.283	19860
895.405	19723
895.526	19826
895.648	19864
895.769	19928
895.891	19871
896.012	19932
896.134	19883
896.255	19795
896.376	19761
896.498	19856
896.619	19921
896.74	19780
896.861	19769
896.982	20244
897.103	20199
897.224	20103
897.345	19982
897.466	20115
897.587	20008
897.708	20100
897.828	19997
897.949	20103
898.07	19883
898.19	19986
898.311	20130
898.431	20058
898.552	19963
898.672	20043
898.792	20252
898.913	19993
899.033	19898
899.153	19898
899.273	19651
899.393	19830
899.513	19917
899.633	19837
899.753	19765
899.873	19731
899.993	19890
900.113	19814
900.232	19788
900.352	19639
900.472	19594
900.591	19632
900.711	19586
900.83	19483
900.95	19655
901.069	19635
901.189	19445
901.308	19316
901.427	19183
901.546	19179
901.665	19228
901.784	19168
901.904	19015
902.023	18993
902.141	18711
902.26	18703
902.379	18806
902.498	18741
902.617	18692
902.735	18661
902.854	18681
902.973	18658
903.091	18369
903.21	18342
903.328	18273
903.446	18232
903.565	18136
903.683	18197
903.801	18019
903.919	18049
904.038	18095
904.156	17897
904.274	17874
904.392	17824
904.51	17882
904.627	17908
904.745	17992
904.863	17946
904.981	17764
905.098	17653
905.216	17554
905.334	17733
905.451	17634
905.569	17570
905.686	17699
905.803	17547
905.921	17417
906.038	17478
906.155	17254
906.272	17364
906.389	17220
906.506	17269
906.623	17216
906.74	17197
906.857	16987
906.974	17052
907.091	17231
907.208	17246
907.324	17178
907.441	17128
907.557	16968
907.674	16885
907.79	16763
907.907	16820
908.023	16812
908.139	16938
908.256	16809
908.372	16820
908.488	16748
908.604	16626
908.72	16584
908.836	16573
908.952	16588
909.068	16599
909.184	16698
909.3	16565
909.415	16649
909.531	16554
909.647	16386
909.762	16390
909.878	16238
909.993	16234
910.108	16291
910.224	16272
910.339	16295
910.454	16169
910.57	16101
910.685	15960
910.8	16265
910.915	16363
911.03	16078
911.145	15945
911.259	15915
911.374	15934
911.489	15816
911.604	15747
911.718	15606
911.833	15660
911.947	15542
912.062	15496
912.176	15488
912.291	15629
912.405	15633
912.519	15781
912.633	15838
912.748	15576
912.862	15671
912.976	15450
913.09	15344
913.204	15408
913.318	15511
913.431	15534
913.545	15538
913.659	15481
913.772	15393
913.886	15313
914	15332
914.113	15374
914.226	15443
914.34	15302
914.453	15180
914.566	15344
914.68	15252
914.793	15180
914.906	14975
915.019	14914
915.132	14880
915.245	14849
915.358	14861
915.47	14895
915.583	14952
915.696	14880
915.809	14918
915.921	14998
916.034	14914
916.146	14804
916.259	14701
916.371	14826
916.483	14925
916.595	14731
916.708	14682
916.82	14720
916.932	14636
917.044	14640
917.156	14651
917.268	14492
917.38	14610
917.491	14560
917.603	14469
917.715	14602
917.826	14526
917.938	14473
918.049	14355
918.161	14499
918.272	14602
918.384	14648
918.495	14526
918.606	14377
918.717	14351
918.828	14324
918.939	14377
919.05	14191
919.161	14275
919.272	14054
919.383	14077
919.494	14294
919.604	14434
919.715	14355
919.826	14225
919.936	14259
920.047	14320
920.157	14294
920.267	14446
920.378	14347
920.488	14252
920.598	14396
920.708	14560
920.818	14454
920.928	14419
921.038	14537
921.148	14518
921.258	14180
921.368	14123
921.477	14031
921.587	13982
921.697	13947
921.806	13986
921.916	13849
922.025	13750
922.134	13670
922.244	13590
922.353	13662
922.462	13533
922.571	13453
922.68	13430
922.789	13270
922.898	13282
923.007	13209
923.116	13274
923.224	13301
923.333	13255
923.442	13194
923.55	13103
923.659	13190
923.767	13244
923.876	13084
923.984	13209
924.092	13084
924.201	13080
924.309	13099
924.417	13053
924.525	12993
924.633	13008
924.741	13719
924.849	12859
924.956	12939
925.064	12802
925.172	12734
925.279	12662
925.387	12749
925.494	12722
925.602	12901
925.709	12795
925.816	12635
925.924	12757
926.031	12779
926.138	12658
926.245	12730
926.352	12662
926.459	12745
926.566	12749
926.673	12585
926.779	12464
926.886	12486
926.993	12388
927.099	12300
927.206	12266
927.312	12296
927.419	12311
927.525	12262
927.631	12353
927.737	12289
927.843	12228
927.95	12057
928.056	12148
928.162	12213
928.267	12194
928.373	12726
928.479	12194
928.585	12026
928.69	12125
928.796	12228
928.901	11920
929.007	11889
929.112	12003
929.218	11939
929.323	11889
929.428	11889
929.533	12072
929.638	11813
929.743	11828
929.848	11843
929.953	11824
930.058	11695
930.163	11535
930.267	11570
930.372	11657
930.477	11558
930.581	11707
930.685	11604
930.79	11368
930.894	11452
930.998	11455
931.103	11543
931.207	11239
931.311	11121
931.415	11064
931.519	10858
931.623	10816
