Data from test_V78500241_1137.txt Node
Date: Fri Mar 25 15:17:46 CST 2022
User: usil
Spectrometer: V785-0024
Trigger mode: 0
Integration Time (sec): 4.000000E-1
Scans to average: 1
Nonlinearity correction enabled: false
Boxcar width: 0
Storing dark spectrum: false
XAxis mode: Wavelengths
Number of Pixels in Spectrum: 1024
>>>>>Begin Spectral Data<<<<<
801.071	28086
801.214	28040
801.356	27819
801.499	27797
801.641	27694
801.783	27648
801.926	27762
802.068	27656
802.211	27652
802.353	27492
802.496	27298
802.638	27359
802.78	27302
802.923	27310
803.065	27424
803.208	27218
803.35	27218
803.492	27427
803.635	27519
803.777	27378
803.919	27568
804.061	27842
804.204	27557
804.346	27454
804.488	27504
804.63	27473
804.773	27500
804.915	27591
805.057	27553
805.199	27557
805.341	27481
805.483	27679
805.626	27637
805.768	27606
805.91	27724
806.052	27641
806.194	27675
806.336	27797
806.478	27705
806.62	27663
806.762	27762
806.904	27880
807.046	28067
807.188	28093
807.33	28109
807.472	28173
807.614	27991
807.756	28040
807.898	27956
808.04	27766
808.182	27941
808.324	28040
808.465	27895
808.607	28196
808.749	28265
808.891	28367
809.033	28348
809.174	28272
809.316	28322
809.458	28325
809.6	28291
809.741	28421
809.883	28504
810.025	28687
810.166	28554
810.308	28618
810.45	28634
810.591	28588
810.733	28386
810.875	28329
811.016	28207
811.158	28177
811.299	28382
811.441	28462
811.582	28436
811.724	28318
811.865	28234
812.007	28344
812.148	28265
812.29	28314
812.431	28557
812.573	28645
812.714	28702
812.855	28839
812.997	28885
813.138	29064
813.279	28961
813.421	28892
813.562	28828
813.703	28561
813.845	28596
813.986	28352
814.127	28200
814.268	28139
814.41	27994
814.551	27979
814.692	28116
814.833	28002
814.974	27918
815.115	27972
815.256	27861
815.397	27785
815.539	27842
815.68	27717
815.821	27720
815.962	27926
816.103	27842
816.244	27808
816.385	27583
816.526	27709
816.666	27557
816.807	27351
816.948	27298
817.089	27447
817.23	27374
817.371	27374
817.512	27298
817.653	27291
817.793	27279
817.934	27241
818.075	27313
818.216	27184
818.356	27382
818.497	27131
818.638	27077
818.778	27142
818.919	27039
819.06	27226
819.2	27184
819.341	27325
819.481	27313
819.622	27519
819.762	27656
819.903	27576
820.043	27576
820.184	27367
820.324	27424
820.465	27515
820.605	27469
820.746	27473
820.886	27310
821.026	27393
821.167	27355
821.307	27378
821.447	27367
821.588	27355
821.728	27150
821.868	27020
822.008	26823
822.149	26727
822.289	26826
822.429	26522
822.569	26507
822.709	26484
822.849	26237
822.99	26290
823.13	26240
823.27	26191
823.41	26024
823.55	26065
823.69	26126
823.83	26081
823.97	25993
824.11	25887
824.25	25970
824.389	26035
824.529	25997
824.669	25947
824.809	26199
824.949	26142
825.089	26065
825.228	25940
825.368	25879
825.508	25871
825.648	25864
825.787	25928
825.927	25928
826.067	25879
826.206	25978
826.346	25883
826.485	25944
826.625	25852
826.765	25974
826.904	25875
827.044	25674
827.183	25757
827.323	25594
827.462	25597
827.601	25563
827.741	25575
827.88	25601
828.02	25479
828.159	25518
828.298	25704
828.437	25708
828.577	25567
828.716	25708
828.855	25613
828.994	25297
829.134	25327
829.273	25339
829.412	25285
829.551	25301
829.69	25278
829.829	25407
829.968	25354
830.107	25247
830.246	25293
830.385	25213
830.524	25164
830.663	25046
830.802	25042
830.941	24909
831.08	24962
831.219	25069
831.357	25046
831.496	25072
831.635	24871
831.774	24783
831.913	24867
832.051	24700
832.19	24722
832.329	24787
832.467	24604
832.606	24517
832.744	24456
832.883	24547
833.022	24635
833.16	24654
833.299	24642
833.437	24673
833.576	24700
833.714	24734
833.852	24840
833.991	24669
834.129	24764
834.267	24768
834.406	24707
834.544	24623
834.682	24810
834.821	24631
834.959	24787
835.097	24627
835.235	24711
835.373	24715
835.511	24544
835.65	24597
835.788	24456
835.926	24452
836.064	24304
836.202	24262
836.34	24460
836.478	24593
836.615	24464
836.753	24422
836.891	24555
837.029	24555
837.167	24513
837.305	24353
837.443	24471
837.58	24292
837.718	24483
837.856	24433
837.993	24350
838.131	24266
838.269	24201
838.406	24235
838.544	24030
838.681	24007
838.819	23923
838.956	23821
839.094	23790
839.231	23859
839.369	23817
839.506	24060
839.643	23996
839.781	23847
839.918	23874
840.055	23889
840.193	23798
840.33	23627
840.467	23760
840.604	23767
840.742	24038
840.879	23687
841.016	23707
841.153	23596
841.29	23790
841.427	23687
841.564	23684
841.701	23729
841.838	23608
841.975	23691
842.112	23615
842.249	23436
842.385	23535
842.522	23668
842.659	23585
842.796	23448
842.933	23547
843.069	23356
843.206	23539
843.343	23516
843.479	23486
843.616	23414
843.752	23258
843.889	23258
844.025	23406
844.162	23284
844.298	23345
844.435	23296
844.571	23216
844.708	23250
844.844	23448
844.98	23414
845.117	23318
845.253	23212
845.389	23189
845.525	23250
845.661	23128
845.798	23086
845.934	23079
846.07	22961
846.206	23086
846.342	23079
846.478	23014
846.614	22702
846.75	22664
846.886	22710
847.022	22763
847.158	22778
847.294	22649
847.429	22736
847.565	22649
847.701	22938
847.837	22577
847.972	22538
848.108	22512
848.244	22538
848.379	22367
848.515	22299
848.65	22230
848.786	22417
848.921	22390
849.057	22367
849.192	22504
849.328	22352
849.463	22310
849.598	22257
849.734	22261
849.869	22166
850.004	22063
850.14	22070
850.275	22070
850.41	22055
850.545	21930
850.68	22086
850.815	22105
850.95	22063
851.085	22382
851.22	22177
851.355	22204
851.49	22116
851.625	22017
851.76	22013
851.895	21983
852.03	21991
852.165	22162
852.299	22109
852.434	22090
852.569	22120
852.703	22147
852.838	22147
852.973	22200
853.107	22276
853.242	22116
853.376	21945
853.511	21789
853.645	21736
853.78	22021
853.914	21880
854.048	21876
854.183	21888
854.317	21956
854.451	22105
854.585	21850
854.72	21892
854.854	21968
854.988	21892
855.122	22013
855.256	21789
855.39	21835
855.524	21987
855.658	21907
855.792	21953
855.926	21945
856.06	21937
856.194	21869
856.327	21972
856.461	21759
856.595	21884
856.729	21873
856.862	21953
856.996	21930
857.13	22013
857.263	22063
857.397	22025
857.53	21785
857.664	22025
857.797	21804
857.931	21956
858.064	21854
858.197	21884
858.331	21876
858.464	21880
858.597	21808
858.731	21686
858.864	21846
858.997	21831
859.13	21968
859.263	21846
859.396	22090
859.529	21873
859.662	21835
859.795	21816
859.928	22067
860.061	22006
860.194	22249
860.327	21960
860.46	21903
860.592	22021
860.725	22109
860.858	21960
860.99	21964
861.123	21785
861.256	21899
861.388	21903
861.521	22599
861.653	21770
861.786	21553
861.918	21774
862.05	21759
862.183	21800
862.315	21846
862.447	21827
862.58	21728
862.712	21553
862.844	21564
862.976	21720
863.108	21724
863.24	22078
863.372	21534
863.504	21576
863.636	21679
863.768	21686
863.9	21614
864.032	21538
864.164	21606
864.296	21561
864.428	21633
864.559	21701
864.691	21629
864.823	21595
864.954	21625
865.086	21519
865.217	21507
865.349	21363
865.48	21507
865.612	21496
865.743	21599
865.875	21663
866.006	21492
866.137	21511
866.269	21473
866.4	21454
866.531	21511
866.662	21397
866.793	21393
866.924	21485
867.055	21431
867.186	21428
867.317	21462
867.448	21370
867.579	21336
867.71	21310
867.841	21272
867.972	21382
868.103	21408
868.233	21401
868.364	21363
868.495	21511
868.625	21641
868.756	21781
868.886	21663
869.017	21709
869.147	21846
869.278	21713
869.408	21759
869.539	21751
869.669	21724
869.799	21736
869.929	21865
870.06	21812
870.19	21968
870.32	21975
870.45	22002
870.58	22120
870.71	22131
870.84	22204
870.97	22116
871.1	22120
871.23	22086
871.36	22200
871.489	22059
871.619	22078
871.749	22124
871.879	22352
872.008	22356
872.138	22379
872.267	22200
872.397	22090
872.526	22040
872.656	22093
872.785	22063
872.915	22459
873.044	22322
873.173	22348
873.303	22268
873.432	22200
873.561	22371
873.69	22344
873.819	22230
873.948	22249
874.077	22329
874.206	22169
874.335	22272
874.464	22363
874.593	22409
874.722	22390
874.851	22417
874.979	22462
875.108	22649
875.237	22341
875.365	22451
875.494	22459
875.623	22592
875.751	22493
875.88	22565
876.008	22611
876.136	22565
876.265	22908
876.393	22949
876.521	22953
876.65	22934
876.778	22782
876.906	22824
877.034	22820
877.162	22828
877.29	22755
877.418	22885
877.546	22908
877.674	22752
877.802	22675
877.93	22862
878.058	22774
878.185	22740
878.313	22767
878.441	22858
878.568	22679
878.696	22729
878.824	22755
878.951	22919
879.079	22976
879.206	23064
879.333	22809
879.461	22889
879.588	22900
879.715	23044
879.842	22938
879.97	22843
880.097	22622
880.224	22622
880.351	22660
880.478	22729
880.605	22554
880.732	22725
880.859	22892
880.986	22618
881.112	22660
881.239	22641
881.366	22276
881.493	22257
881.619	22200
881.746	22329
881.872	22291
881.999	22219
882.125	22181
882.252	22261
882.378	22147
882.505	22310
882.631	22067
882.757	21956
882.883	22032
883.01	21979
883.136	21873
883.262	21732
883.388	21743
883.514	21949
883.64	22013
883.766	21797
883.892	21610
884.018	21686
884.143	21823
884.269	21907
884.395	21641
884.52	21606
884.646	21450
884.772	21462
884.897	21458
885.023	21603
885.148	21576
885.274	21762
885.399	21660
885.524	21564
885.65	21526
885.775	21511
885.9	21447
886.025	21679
886.15	21637
886.275	21614
886.4	21523
886.525	21492
886.65	21507
886.775	21462
886.9	21599
887.025	21743
887.149	21496
887.274	21416
887.399	21374
887.523	21393
887.648	21214
887.773	21291
887.897	21439
888.021	21393
888.146	21321
888.27	21351
888.395	21443
888.519	21355
888.643	21291
888.767	21279
888.891	21146
889.015	21150
889.139	21199
889.263	21074
889.387	21192
889.511	21306
889.635	21272
889.759	21036
889.883	21013
890.006	21116
890.13	21131
890.254	20990
890.377	21062
890.501	20891
890.624	20781
890.748	20823
890.871	20708
890.995	20606
891.118	20659
891.241	20632
891.364	20606
891.488	20769
891.611	20495
891.734	20670
891.857	20670
891.98	20651
892.103	20762
892.226	20674
892.349	20708
892.471	20461
892.594	20629
892.717	20522
892.839	20442
892.962	20575
893.085	20590
893.207	20446
893.33	20522
893.452	20488
893.575	20587
893.697	20579
893.819	20583
893.941	20724
894.064	20564
894.186	20507
894.308	20480
894.43	20659
894.552	20625
894.674	20632
894.796	20530
894.918	20476
895.04	20541
895.161	20640
895.283	20663
895.405	20438
895.526	20476
895.648	20488
895.769	20526
895.891	20552
896.012	20670
896.134	20507
896.255	20579
896.376	20450
896.498	20499
896.619	20575
896.74	20503
896.861	20632
896.982	20845
897.103	20933
897.224	20800
897.345	20769
897.466	20750
897.587	20765
897.708	20834
897.828	20807
897.949	20724
898.07	20556
898.19	20708
898.311	20883
898.431	20659
898.552	20807
898.672	20758
898.792	20876
898.913	20724
899.033	20629
899.153	20473
899.273	20389
899.393	20469
899.513	20450
899.633	20522
899.753	20549
899.873	20503
899.993	20476
900.113	20393
900.232	20522
900.352	20290
900.472	20339
900.591	20305
900.711	20324
900.83	20195
900.95	20263
901.069	20320
901.189	20043
901.308	19978
901.427	19791
901.546	19814
901.665	19795
901.784	19875
901.904	19635
902.023	19639
902.141	19362
902.26	19453
902.379	19499
902.498	19293
902.617	19335
902.735	19278
902.854	19270
902.973	19327
903.091	19133
903.21	19050
903.328	19004
903.446	18909
903.565	18852
903.683	18692
903.801	18623
903.919	18776
904.038	18840
904.156	18601
904.274	18661
904.392	18658
904.51	18517
904.627	18612
904.745	18582
904.863	18646
904.981	18384
905.098	18148
905.216	18213
905.334	18289
905.451	18243
905.569	18239
905.686	18167
905.803	18190
905.921	18003
906.038	18121
906.155	18072
906.272	17977
906.389	17992
906.506	17760
906.623	17786
906.74	17729
906.857	17665
906.974	17684
907.091	17908
907.208	17897
907.324	17817
907.441	17707
907.557	17505
907.674	17570
907.79	17383
907.907	17376
908.023	17478
908.139	17520
908.256	17440
908.372	17379
908.488	17398
908.604	17212
908.72	17216
908.836	17284
908.952	17223
909.068	17178
909.184	17239
909.3	17124
909.415	17277
909.531	17181
909.647	17025
909.762	16812
909.878	16828
909.993	16869
910.108	16896
910.224	16797
910.339	16809
910.454	16634
910.57	16774
910.685	16725
910.8	17010
910.915	16869
911.03	16675
911.145	16436
911.259	16523
911.374	16428
911.489	16455
911.604	16459
911.718	16291
911.833	16276
911.947	16131
912.062	16162
912.176	16204
912.291	16226
912.405	16291
912.519	16382
912.633	16417
912.748	16257
912.862	16291
912.976	15991
913.09	15930
913.204	16044
913.318	16112
913.431	16215
913.545	16097
913.659	16131
913.772	16051
913.886	15861
914	15804
914.113	15941
914.226	16010
914.34	15941
914.453	15759
914.566	15804
914.68	15785
914.793	15717
914.906	15534
915.019	15473
915.132	15458
915.245	15450
915.358	15488
915.47	15458
915.583	15310
915.696	15469
915.809	15587
915.921	15549
916.034	15268
916.146	15313
916.259	15279
916.371	15389
916.483	15401
916.595	15363
916.708	15382
916.82	15222
916.932	15207
917.044	15279
917.156	15161
917.268	15195
917.38	15066
917.491	15005
917.603	15123
917.715	15028
917.826	15275
917.938	14941
918.049	14887
918.161	14887
918.272	15176
918.384	15131
918.495	15028
918.606	14902
918.717	14857
918.828	14944
918.939	14910
919.05	14819
919.161	14849
919.272	14674
919.383	14724
919.494	14941
919.604	14982
919.715	14777
919.826	14712
919.936	14804
920.047	14906
920.157	14739
920.267	14948
920.378	14800
920.488	14735
920.598	14960
920.708	15085
920.818	14941
920.928	14906
921.038	15085
921.148	15001
921.258	14701
921.368	14712
921.477	14575
921.587	14507
921.697	14343
921.806	14492
921.916	14408
922.025	14317
922.134	14229
922.244	14046
922.353	14161
922.462	14069
922.571	13982
922.68	13841
922.789	13761
922.898	13871
923.007	13791
923.116	13837
923.224	13791
923.333	13712
923.442	13685
923.55	13742
923.659	13696
923.767	13712
923.876	13632
923.984	13586
924.092	13472
924.201	13529
924.309	13464
924.417	13540
924.525	13514
924.633	13537
924.741	14332
924.849	13324
924.956	13327
925.064	13270
925.172	13198
925.279	13225
925.387	13168
925.494	13179
925.602	13285
925.709	13274
925.816	13129
925.924	13168
926.031	13141
926.138	13061
926.245	13198
926.352	12970
926.459	13209
926.566	13129
926.673	13050
926.779	12951
926.886	12939
926.993	12776
927.099	12795
927.206	12662
927.312	12692
927.419	12787
927.525	12665
927.631	12703
927.737	12589
927.843	12578
927.95	12502
928.056	12502
928.162	12582
928.267	12665
928.373	13141
928.479	12604
928.585	12422
928.69	12532
928.796	12475
928.901	12388
929.007	12289
929.112	12467
929.218	12369
929.323	12228
929.428	12357
929.533	12319
929.638	12171
929.743	12315
929.848	12224
929.953	12300
930.058	12121
930.163	12019
930.267	11988
930.372	12136
930.477	11882
930.581	12152
930.685	11954
930.79	11870
930.894	11893
930.998	11832
931.103	11939
931.207	11539
931.311	11486
931.415	11414
931.519	11246
931.623	11288
