Data from test_V78500241_2479.txt Node
Date: Fri Mar 25 15:27:07 CST 2022
User: usil
Spectrometer: V785-0024
Trigger mode: 0
Integration Time (sec): 4.000000E-1
Scans to average: 1
Nonlinearity correction enabled: false
Boxcar width: 0
Storing dark spectrum: false
XAxis mode: Wavelengths
Number of Pixels in Spectrum: 1024
>>>>>Begin Spectral Data<<<<<
801.071	27203
801.214	27241
801.356	27009
801.499	26929
801.641	26731
801.783	26712
801.926	26819
802.068	26750
802.211	26651
802.353	26579
802.496	26305
802.638	26351
802.78	26366
802.923	26336
803.065	26225
803.208	26248
803.35	26366
803.492	26389
803.635	26560
803.777	26389
803.919	26476
804.061	26788
804.204	26541
804.346	26461
804.488	26488
804.63	26461
804.773	26446
804.915	26552
805.057	26609
805.199	26609
805.341	26663
805.483	26796
805.626	26587
805.768	26682
805.91	26609
806.052	26640
806.194	26590
806.336	26762
806.478	26602
806.62	26727
806.762	26762
806.904	26921
807.046	27135
807.188	27028
807.33	27028
807.472	27074
807.614	26960
807.756	27047
807.898	26788
808.04	26914
808.182	26811
808.324	26788
808.465	27116
808.607	27020
808.749	27157
808.891	27268
809.033	27336
809.174	27199
809.316	27135
809.458	27192
809.6	27249
809.741	27291
809.883	27340
810.025	27545
810.166	27599
810.308	27542
810.45	27549
810.591	27355
810.733	27211
810.875	27317
811.016	27032
811.158	27203
811.299	27492
811.441	27492
811.582	27348
811.724	27298
811.865	27176
812.007	27123
812.148	27085
812.29	27169
812.431	27226
812.573	27545
812.714	27401
812.855	27690
812.997	27759
813.138	27949
813.279	27865
813.421	27705
813.562	27622
813.703	27603
813.845	27313
813.986	27116
814.127	26948
814.268	26823
814.41	26956
814.551	26910
814.692	26899
814.833	26773
814.974	26845
815.115	26895
815.256	26632
815.397	26720
815.539	26743
815.68	26583
815.821	26495
815.962	26636
816.103	26575
816.244	26492
816.385	26317
816.526	26347
816.666	26248
816.807	26126
816.948	26145
817.089	26237
817.23	26088
817.371	26183
817.512	26062
817.653	26073
817.793	26050
817.934	26115
818.075	26153
818.216	26073
818.356	26035
818.497	26149
818.638	25925
818.778	25860
818.919	25791
819.06	25887
819.2	25959
819.341	26084
819.481	26035
819.622	26237
819.762	26415
819.903	26252
820.043	26332
820.184	26191
820.324	26252
820.465	26347
820.605	26161
820.746	26119
820.886	26119
821.026	26294
821.167	26119
821.307	26286
821.447	26161
821.588	25989
821.728	25868
821.868	25879
822.008	25499
822.149	25582
822.289	25525
822.429	25567
822.569	25301
822.709	25377
822.849	25099
822.99	25042
823.13	25019
823.27	24973
823.41	24992
823.55	24776
823.69	24951
823.83	24909
823.97	24779
824.11	24681
824.25	24639
824.389	24635
824.529	24768
824.669	24665
824.809	24703
824.949	24840
825.089	24909
825.228	24810
825.368	24544
825.508	24559
825.648	24642
825.787	24616
825.927	24681
826.067	24525
826.206	24604
826.346	24597
826.485	24551
826.625	24612
826.765	24878
826.904	24741
827.044	24388
827.183	24369
827.323	24243
827.462	24395
827.601	24270
827.741	24346
827.88	24422
828.02	24171
828.159	24319
828.298	24277
828.437	24479
828.577	24304
828.716	24456
828.855	24117
828.994	24068
829.134	24159
829.273	24114
829.412	23912
829.551	23942
829.69	24003
829.829	24015
829.968	24053
830.107	24064
830.246	23996
830.385	23931
830.524	23992
830.663	23832
830.802	23581
830.941	23623
831.08	23554
831.219	23783
831.357	23497
831.496	23935
831.635	23691
831.774	23615
831.913	23543
832.051	23444
832.19	23277
832.329	23349
832.467	23353
832.606	23220
832.744	23311
832.883	23280
833.022	23341
833.16	23200
833.299	23349
833.437	23337
833.576	23417
833.714	23383
833.852	23360
833.991	23482
834.129	23410
834.267	23471
834.406	23360
834.544	23505
834.682	23349
834.821	23330
834.959	23516
835.097	23280
835.235	23368
835.373	23322
835.511	23349
835.65	23303
835.788	23174
835.926	23102
836.064	23071
836.202	23083
836.34	23216
836.478	23383
836.615	23166
836.753	23223
836.891	23356
837.029	23292
837.167	23223
837.305	23227
837.443	23189
837.58	23056
837.718	23132
837.856	23155
837.993	23044
838.131	23083
838.269	22984
838.406	23052
838.544	23014
838.681	22698
838.819	22561
838.956	22550
839.094	22546
839.231	22607
839.369	22702
839.506	22843
839.643	22854
839.781	22519
839.918	22637
840.055	22634
840.193	22565
840.33	22508
840.467	22561
840.604	22592
840.742	22858
840.879	22306
841.016	22379
841.153	22344
841.29	22508
841.427	22497
841.564	22577
841.701	22584
841.838	22508
841.975	22462
842.112	22322
842.249	22386
842.385	22341
842.522	22557
842.659	22318
842.796	22318
842.933	22249
843.069	22135
843.206	22082
843.343	22310
843.479	22246
843.616	22390
843.752	21972
843.889	21888
844.025	22207
844.162	22082
844.298	22124
844.435	22029
844.571	21956
844.708	22105
844.844	22116
844.98	22013
845.117	22090
845.253	22051
845.389	21876
845.525	21888
845.661	21865
845.798	21785
845.934	21797
846.07	21694
846.206	21808
846.342	21838
846.478	21873
846.614	21663
846.75	21412
846.886	21500
847.022	21583
847.158	21492
847.294	21420
847.429	21557
847.565	21477
847.701	21739
847.837	21230
847.972	21321
848.108	21340
848.244	21230
848.379	21207
848.515	21058
848.65	21070
848.786	21051
848.921	21093
849.057	21275
849.192	21112
849.328	21138
849.463	21093
849.598	21047
849.734	20952
849.869	20857
850.004	20929
850.14	20861
850.275	20906
850.41	20845
850.545	20910
850.68	20765
850.815	20899
850.95	20982
851.085	20937
851.22	20891
851.355	20849
851.49	20925
851.625	20697
851.76	20880
851.895	20762
852.03	20765
852.165	20971
852.299	20883
852.434	20899
852.569	21009
852.703	20876
852.838	20891
852.973	21032
853.107	21024
853.242	20746
853.376	20743
853.511	20629
853.645	20648
853.78	20804
853.914	20708
854.048	20678
854.183	20777
854.317	20655
854.451	20819
854.585	20686
854.72	20743
854.854	20712
854.988	20621
855.122	20606
855.256	20495
855.39	20632
855.524	20682
855.658	20724
855.792	20785
855.926	20659
856.06	20807
856.194	20769
856.327	20796
856.461	20636
856.595	20583
856.729	20663
856.862	20796
856.996	20727
857.13	20842
857.263	20765
857.397	20811
857.53	20667
857.664	20712
857.797	20792
857.931	20910
858.064	20663
858.197	20815
858.331	20625
858.464	20568
858.597	20716
858.731	20689
858.864	20579
858.997	20663
859.13	20712
859.263	20762
859.396	20800
859.529	20667
859.662	20777
859.795	20648
859.928	20712
860.061	20773
860.194	20773
860.327	20773
860.46	20735
860.592	20800
860.725	20868
860.858	20830
860.99	20693
861.123	20583
861.256	20602
861.388	20670
861.521	21192
861.653	20533
861.786	20446
861.918	20514
862.05	20602
862.183	20545
862.315	20636
862.447	20625
862.58	20667
862.712	20408
862.844	20324
862.976	20412
863.108	20476
863.24	20902
863.372	20339
863.504	20419
863.636	20362
863.768	20366
863.9	20454
864.032	20301
864.164	20343
864.296	20488
864.428	20503
864.559	20454
864.691	20313
864.823	20328
864.954	20400
865.086	20412
865.217	20457
865.349	20351
865.48	20237
865.612	20457
865.743	20431
865.875	20358
866.006	20290
866.137	20294
866.269	20305
866.4	20355
866.531	20187
866.662	20195
866.793	20298
866.924	20267
867.055	20248
867.186	20320
867.317	20176
867.448	20115
867.579	20191
867.71	20126
867.841	20084
867.972	20271
868.103	20202
868.233	20229
868.364	20210
868.495	20278
868.625	20507
868.756	20549
868.886	20427
869.017	20488
869.147	20609
869.278	20556
869.408	20499
869.539	20507
869.669	20514
869.799	20545
869.929	20552
870.06	20712
870.19	20773
870.32	20769
870.45	20804
870.58	20937
870.71	20921
870.84	21009
870.97	20826
871.1	21066
871.23	21119
871.36	21009
871.489	20857
871.619	21089
871.749	21058
871.879	21192
872.008	21169
872.138	21157
872.267	21127
872.397	21013
872.526	20880
872.656	20918
872.785	20861
872.915	21188
873.044	21165
873.173	21058
873.303	21233
873.432	21146
873.561	21351
873.69	21230
873.819	21195
873.948	21104
874.077	21104
874.206	21192
874.335	21085
874.464	21291
874.593	21462
874.722	21355
874.851	21329
874.979	21332
875.108	21363
875.237	21340
875.365	21157
875.494	21321
875.623	21367
875.751	21272
875.88	21260
876.008	21469
876.136	21576
876.265	21743
876.393	21915
876.521	21778
876.65	21789
876.778	21827
876.906	21660
877.034	21800
877.162	21724
877.29	21599
877.418	21819
877.546	21774
877.674	21724
877.802	21633
877.93	21652
878.058	21694
878.185	21667
878.313	21603
878.441	21618
878.568	21466
878.696	21641
878.824	21705
878.951	21705
879.079	21781
879.206	22029
879.333	21937
879.461	21816
879.588	21755
879.715	21762
879.842	21941
879.97	21717
880.097	21523
880.224	21557
880.351	21599
880.478	21542
880.605	21412
880.732	21553
880.859	21724
880.986	21485
881.112	21477
881.239	21435
881.366	21321
881.493	21264
881.619	21104
881.746	21104
881.872	21199
881.999	21142
882.125	21001
882.252	21135
882.378	21032
882.505	21233
882.631	20960
882.757	20887
882.883	20807
883.01	20754
883.136	20804
883.262	20708
883.388	20602
883.514	20792
883.64	20853
883.766	20693
883.892	20602
884.018	20583
884.143	20823
884.269	20861
884.395	20602
884.52	20480
884.646	20625
884.772	20499
884.897	20476
885.023	20454
885.148	20579
885.274	20651
885.399	20594
885.524	20396
885.65	20484
885.775	20476
885.9	20328
886.025	20632
886.15	20609
886.275	20362
886.4	20362
886.525	20480
886.65	20355
886.775	20465
886.9	20545
887.025	20674
887.149	20480
887.274	20305
887.399	20233
887.523	20229
887.648	20168
887.773	20240
887.897	20221
888.021	20191
888.146	20328
888.27	20408
888.395	20343
888.519	20328
888.643	20278
888.767	20278
888.891	20206
889.015	20096
889.139	20168
889.263	20035
889.387	20233
889.511	20271
889.635	20233
889.759	20043
889.883	19997
890.006	19974
890.13	20062
890.254	19925
890.377	20016
890.501	19845
890.624	19894
890.748	19734
890.871	19624
890.995	19537
891.118	19601
891.241	19628
891.364	19529
891.488	19788
891.611	19651
891.734	19651
891.857	19670
891.98	19620
892.103	19693
892.226	19635
892.349	19670
892.471	19403
892.594	19590
892.717	19658
892.839	19445
892.962	19548
893.085	19734
893.207	19567
893.33	19434
893.452	19476
893.575	19655
893.697	19601
893.819	19658
893.941	19693
894.064	19677
894.186	19552
894.308	19491
894.43	19533
894.552	19704
894.674	19708
894.796	19365
894.918	19426
895.04	19472
895.161	19666
895.283	19674
895.405	19392
895.526	19613
895.648	19544
895.769	19567
895.891	19655
896.012	19639
896.134	19605
896.255	19575
896.376	19544
896.498	19499
896.619	19719
896.74	19514
896.861	19529
896.982	19997
897.103	19982
897.224	19776
897.345	19791
897.466	19757
897.587	19860
897.708	20008
897.828	19837
897.949	19685
898.07	19559
898.19	19639
898.311	19852
898.431	19799
898.552	19791
898.672	19742
898.792	19902
898.913	19788
899.033	19723
899.153	19658
899.273	19468
899.393	19438
899.513	19575
899.633	19525
899.753	19483
899.873	19358
899.993	19502
900.113	19453
900.232	19548
900.352	19419
900.472	19453
900.591	19331
900.711	19255
900.83	19202
900.95	19392
901.069	19232
901.189	19126
901.308	18970
901.427	19019
901.546	18935
901.665	18825
901.784	18913
901.904	18707
902.023	18703
902.141	18498
902.26	18464
902.379	18506
902.498	18372
902.617	18376
902.735	18426
902.854	18372
902.973	18300
903.091	18167
903.21	18117
903.328	18121
903.446	17996
903.565	17916
903.683	17984
903.801	17821
903.919	17783
904.038	17786
904.156	17695
904.274	17786
904.392	17665
904.51	17630
904.627	17630
904.745	17695
904.863	17680
904.981	17497
905.098	17402
905.216	17391
905.334	17376
905.451	17288
905.569	17284
905.686	17414
905.803	17242
905.921	17242
906.038	17258
906.155	17159
906.272	17094
906.389	17060
906.506	16972
906.623	16858
906.74	16866
906.857	16790
906.974	16824
907.091	16961
907.208	16984
907.324	16908
907.441	16752
907.557	16755
907.674	16649
907.79	16466
907.907	16558
908.023	16630
908.139	16603
908.256	16485
908.372	16584
908.488	16519
908.604	16394
908.72	16310
908.836	16341
908.952	16318
909.068	16341
909.184	16436
909.3	16310
909.415	16325
909.531	16367
909.647	16128
909.762	16040
909.878	16006
909.993	16097
910.108	15983
910.224	16036
910.339	16025
910.454	15953
910.57	15869
910.685	15770
910.8	15983
910.915	15911
911.03	15762
911.145	15663
911.259	15652
911.374	15641
911.489	15633
911.604	15534
911.718	15450
911.833	15511
911.947	15363
912.062	15363
912.176	15519
912.291	15515
912.405	15500
912.519	15770
912.633	15526
912.748	15393
912.862	15351
912.976	15294
913.09	15154
913.204	15211
913.318	15256
913.431	15291
913.545	15344
913.659	15367
913.772	15176
913.886	15081
914	14880
914.113	15127
914.226	15100
914.34	15142
914.453	14982
914.566	14975
914.68	14921
914.793	14891
914.906	14712
915.019	14667
915.132	14526
915.245	14712
915.358	14625
915.47	14701
915.583	14621
915.696	14697
915.809	14804
915.921	14815
916.034	14724
916.146	14533
916.259	14492
916.371	14594
916.483	14655
916.595	14503
916.708	14431
916.82	14488
916.932	14461
917.044	14419
917.156	14434
917.268	14400
917.38	14358
917.491	14309
917.603	14355
917.715	14431
917.826	14374
917.938	14221
918.049	14187
918.161	14301
918.272	14454
918.384	14393
918.495	14237
918.606	14180
918.717	14107
918.828	14069
918.939	14172
919.05	13940
919.161	14103
919.272	13837
919.383	13947
919.494	14096
919.604	14355
919.715	14153
919.826	14024
919.936	14096
920.047	14149
920.157	14058
920.267	14313
920.378	14081
920.488	13993
920.598	14229
920.708	14309
920.818	14096
920.928	14183
921.038	14324
921.148	14275
921.258	13997
921.368	13928
921.477	13883
921.587	13776
921.697	13769
921.806	13913
921.916	13738
922.025	13540
922.134	13510
922.244	13457
922.353	13563
922.462	13415
922.571	13289
922.68	13255
922.789	13122
922.898	13084
923.007	13027
923.116	13183
923.224	13145
923.333	13168
923.442	12970
923.55	12943
923.659	12913
923.767	13046
923.876	12989
923.984	12985
924.092	12867
924.201	12875
924.309	12745
924.417	12890
924.525	12764
924.633	12783
924.741	13708
924.849	12684
924.956	12764
925.064	12589
925.172	12528
925.279	12563
925.387	12627
925.494	12563
925.602	12650
925.709	12570
925.816	12528
925.924	12509
926.031	12612
926.138	12456
926.245	12521
926.352	12456
926.459	12597
926.566	12658
926.673	12445
926.779	12311
926.886	12228
926.993	12213
927.099	12167
927.206	12045
927.312	12087
927.419	12102
927.525	12106
927.631	12133
927.737	12053
927.843	11942
927.95	11847
928.056	11939
928.162	11950
928.267	11946
928.373	12658
928.479	12148
928.585	11794
928.69	11935
928.796	11973
928.901	11809
929.007	11592
929.112	11855
929.218	11752
929.323	11764
929.428	11710
929.533	11813
929.638	11558
929.743	11657
929.848	11649
929.953	11627
930.058	11566
930.163	11406
930.267	11372
930.372	11623
930.477	11372
930.581	11532
930.685	11459
930.79	11208
930.894	11356
930.998	11387
931.103	11383
931.207	11083
931.311	10968
931.415	10866
931.519	10668
931.623	10683
