Data from test_V78500241_2111.txt Node
Date: Fri Mar 25 15:24:33 CST 2022
User: usil
Spectrometer: V785-0024
Trigger mode: 0
Integration Time (sec): 4.000000E-1
Scans to average: 1
Nonlinearity correction enabled: false
Boxcar width: 0
Storing dark spectrum: false
XAxis mode: Wavelengths
Number of Pixels in Spectrum: 1024
>>>>>Begin Spectral Data<<<<<
801.071	27747
801.214	27895
801.356	27663
801.499	27622
801.641	27382
801.783	27477
801.926	27405
802.068	27424
802.211	27458
802.353	27188
802.496	27123
802.638	27108
802.78	26994
802.923	27051
803.065	27047
803.208	27055
803.35	27104
803.492	27070
803.635	27275
803.777	27180
803.919	27169
804.061	27606
804.204	27306
804.346	27260
804.488	27199
804.63	27195
804.773	27112
804.915	27359
805.057	27321
805.199	27298
805.341	27477
805.483	27374
805.626	27492
805.768	27272
805.91	27336
806.052	27416
806.194	27340
806.336	27454
806.478	27488
806.62	27367
806.762	27488
806.904	27618
807.046	28048
807.188	27812
807.33	27846
807.472	27922
807.614	27842
807.756	27682
807.898	27694
808.04	27701
808.182	27656
808.324	27785
808.465	27679
808.607	27804
808.749	27964
808.891	28135
809.033	28063
809.174	27972
809.316	27945
809.458	27975
809.6	28040
809.741	28090
809.883	28105
810.025	28398
810.166	28295
810.308	28234
810.45	28200
810.591	28143
810.733	28109
810.875	28074
811.016	27968
811.158	27914
811.299	28070
811.441	28249
811.582	28181
811.724	27937
811.865	27854
812.007	28044
812.148	28124
812.29	28070
812.431	28348
812.573	28249
812.714	28527
812.855	28557
812.997	28607
813.138	28809
813.279	28698
813.421	28478
813.562	28531
813.703	28356
813.845	28291
813.986	28013
814.127	27816
814.268	27785
814.41	27759
814.551	27709
814.692	27736
814.833	27770
814.974	27682
815.115	27838
815.256	27488
815.397	27549
815.539	27652
815.68	27500
815.821	27477
815.962	27599
816.103	27336
816.244	27466
816.385	27249
816.526	27287
816.666	27180
816.807	26967
816.948	27123
817.089	27055
817.23	26975
817.371	27024
817.512	27005
817.653	26986
817.793	26960
817.934	26948
818.075	26986
818.216	26940
818.356	26899
818.497	26902
818.638	26842
818.778	26785
818.919	26640
819.06	26861
819.2	26880
819.341	27058
819.481	27036
819.622	27077
819.762	27237
819.903	27233
820.043	27013
820.184	27142
820.324	27245
820.465	27096
820.605	27116
820.746	27055
820.886	26952
821.026	27077
821.167	27036
821.307	27150
821.447	26956
821.588	26933
821.728	26891
821.868	26686
822.008	26507
822.149	26514
822.289	26503
822.429	26248
822.569	26138
822.709	26149
822.849	26103
822.99	25913
823.13	25864
823.27	25898
823.41	25799
823.55	25628
823.69	25868
823.83	25826
823.97	25753
824.11	25563
824.25	25620
824.389	25529
824.529	25578
824.669	25594
824.809	25594
824.949	25708
825.089	25620
825.228	25738
825.368	25430
825.508	25464
825.648	25430
825.787	25426
825.927	25426
826.067	25441
826.206	25521
826.346	25586
826.485	25529
826.625	25441
826.765	25430
826.904	25472
827.044	25221
827.183	25209
827.323	25076
827.462	25362
827.601	25251
827.741	25255
827.88	25244
828.02	25088
828.159	25255
828.298	25327
828.437	25255
828.577	25069
828.716	25289
828.855	25053
828.994	24920
829.134	24856
829.273	24977
829.412	24886
829.551	24783
829.69	24867
829.829	24897
829.968	24962
830.107	24970
830.246	24871
830.385	24802
830.524	24840
830.663	24711
830.802	24570
830.941	24490
831.08	24483
831.219	24464
831.357	24532
831.496	24684
831.635	24517
831.774	24330
831.913	24460
832.051	24388
832.19	24178
832.329	24224
832.467	24194
832.606	24049
832.744	24155
832.883	24121
833.022	24125
833.16	24194
833.299	24201
833.437	24190
833.576	24155
833.714	24216
833.852	24266
833.991	24171
834.129	24258
834.267	24258
834.406	24258
834.544	24308
834.682	24285
834.821	24133
834.959	24369
835.097	24182
835.235	24178
835.373	24213
835.511	24182
835.65	24159
835.788	24121
835.926	23927
836.064	23824
836.202	23931
836.34	24079
836.478	24087
836.615	23950
836.753	24068
836.891	24087
837.029	24144
837.167	24064
837.305	24053
837.443	23897
837.58	23920
837.718	23855
837.856	23996
837.993	23805
838.131	23836
838.269	23745
838.406	23824
838.544	23817
838.681	23596
838.819	23448
838.956	23383
839.094	23425
839.231	23429
839.369	23433
839.506	23737
839.643	23570
839.781	23315
839.918	23277
840.055	23315
840.193	23258
840.33	23368
840.467	23318
840.604	23220
840.742	23554
840.879	23212
841.016	23151
841.153	23166
841.29	23349
841.427	23296
841.564	23296
841.701	23227
841.838	23231
841.975	23132
842.112	23098
842.249	23052
842.385	23102
842.522	23250
842.659	23124
842.796	23060
842.933	22938
843.069	23044
843.206	22991
843.343	23098
843.479	22968
843.616	23121
843.752	22801
843.889	22790
844.025	22927
844.162	22755
844.298	22930
844.435	22729
844.571	22790
844.708	22938
844.844	22889
844.98	22885
845.117	22984
845.253	22744
845.389	22641
845.525	22649
845.661	22557
845.798	22607
845.934	22550
846.07	22493
846.206	22519
846.342	22660
846.478	22489
846.614	22177
846.75	22215
846.886	22253
847.022	22367
847.158	22295
847.294	22268
847.429	22284
847.565	22226
847.701	22451
847.837	22059
847.972	21960
848.108	22029
848.244	22226
848.379	21903
848.515	21926
848.65	21690
848.786	21941
848.921	21884
849.057	21861
849.192	21880
849.328	21945
849.463	21854
849.598	21812
849.734	21873
849.869	21755
850.004	21534
850.14	21675
850.275	21576
850.41	21595
850.545	21553
850.68	21477
850.815	21568
850.95	21583
851.085	21816
851.22	21751
851.355	21625
851.49	21652
851.625	21580
851.76	21648
851.895	21553
852.03	21591
852.165	21507
852.299	21690
852.434	21675
852.569	21618
852.703	21637
852.838	21698
852.973	21603
853.107	21682
853.242	21633
853.376	21504
853.511	21313
853.645	21389
853.78	21641
853.914	21424
854.048	21348
854.183	21435
854.317	21428
854.451	21515
854.585	21389
854.72	21545
854.854	21511
854.988	21272
855.122	21431
855.256	21188
855.39	21317
855.524	21572
855.658	21515
855.792	21477
855.926	21469
856.06	21348
856.194	21538
856.327	21435
856.461	21329
856.595	21397
856.729	21545
856.862	21545
856.996	21393
857.13	21545
857.263	21599
857.397	21511
857.53	21519
857.664	21462
857.797	21534
857.931	21447
858.064	21538
858.197	21439
858.331	21355
858.464	21332
858.597	21351
858.731	21428
858.864	21469
858.997	21272
859.13	21408
859.263	21378
859.396	21450
859.529	21393
859.662	21374
859.795	21408
859.928	21382
860.061	21614
860.194	21553
860.327	21526
860.46	21408
860.592	21538
860.725	21603
860.858	21603
860.99	21466
861.123	21348
861.256	21310
861.388	21389
861.521	22128
861.653	21348
861.786	21237
861.918	21325
862.05	21374
862.183	21348
862.315	21351
862.447	21561
862.58	21386
862.712	21230
862.844	21062
862.976	21237
863.108	21089
863.24	21694
863.372	21108
863.504	21142
863.636	21074
863.768	21184
863.9	21089
864.032	21043
864.164	20994
864.296	21184
864.428	21321
864.559	21218
864.691	21287
864.823	21241
864.954	21218
865.086	20952
865.217	21047
865.349	20982
865.48	21024
865.612	21039
865.743	21096
865.875	21112
866.006	21074
866.137	21017
866.269	21123
866.4	21093
866.531	20887
866.662	20883
866.793	20937
866.924	21017
867.055	20921
867.186	20861
867.317	21047
867.448	21001
867.579	20807
867.71	20830
867.841	21013
867.972	20921
868.103	20887
868.233	20895
868.364	20929
868.495	20967
868.625	21100
868.756	21214
868.886	21077
869.017	21211
869.147	21321
869.278	21287
869.408	21237
869.539	21116
869.669	21275
869.799	21218
869.929	21382
870.06	21344
870.19	21469
870.32	21523
870.45	21462
870.58	21663
870.71	21728
870.84	21637
870.97	21614
871.1	21591
871.23	21755
871.36	21800
871.489	21595
871.619	21800
871.749	21785
871.879	21876
872.008	21876
872.138	21899
872.267	21861
872.397	21724
872.526	21545
872.656	21549
872.785	21690
872.915	21816
873.044	21850
873.173	21857
873.303	21926
873.432	21804
873.561	21876
873.69	21755
873.819	21816
873.948	21846
874.077	21888
874.206	21800
874.335	21770
874.464	21926
874.593	21998
874.722	22025
874.851	22044
874.979	22040
875.108	21998
875.237	22002
875.365	21907
875.494	22078
875.623	22044
875.751	21876
875.88	22086
876.008	22188
876.136	22310
876.265	22367
876.393	22618
876.521	22489
876.65	22550
876.778	22432
876.906	22329
877.034	22325
877.162	22443
877.29	22337
877.418	22398
877.546	22360
877.674	22447
877.802	22299
877.93	22386
878.058	22299
878.185	22268
878.313	22303
878.441	22382
878.568	22177
878.696	22284
878.824	22424
878.951	22436
879.079	22580
879.206	22668
879.333	22500
879.461	22390
879.588	22413
879.715	22630
879.842	22733
879.97	22424
880.097	22173
880.224	22272
880.351	22124
880.478	22204
880.605	22230
880.732	22303
880.859	22329
880.986	22181
881.112	22211
881.239	22048
881.366	21873
881.493	21873
881.619	21793
881.746	21850
881.872	21759
881.999	21709
882.125	21751
882.252	21797
882.378	21755
882.505	21945
882.631	21728
882.757	21618
882.883	21500
883.01	21458
883.136	21310
883.262	21378
883.388	21412
883.514	21538
883.64	21523
883.766	21610
883.892	21230
884.018	21150
884.143	21435
884.269	21553
884.395	21241
884.52	21089
884.646	21165
884.772	21096
884.897	21066
885.023	21176
885.148	21237
885.274	21203
885.399	21211
885.524	21017
885.65	21131
885.775	21081
885.9	21024
886.025	21195
886.15	21199
886.275	21104
886.4	20937
886.525	21077
886.65	21036
886.775	21039
886.9	21169
887.025	21272
887.149	21017
887.274	21043
887.399	20845
887.523	20937
887.648	20937
887.773	20727
887.897	20891
888.021	20963
888.146	20838
888.27	20883
888.395	20925
888.519	20845
888.643	20910
888.767	20918
888.891	20708
889.015	20625
889.139	20754
889.263	20606
889.387	20716
889.511	20910
889.635	20845
889.759	20686
889.883	20720
890.006	20659
890.13	20701
890.254	20724
890.377	20514
890.501	20454
890.624	20442
890.748	20438
890.871	20343
890.995	20271
891.118	20180
891.241	20259
891.364	20309
891.488	20317
891.611	20214
891.734	20164
891.857	20320
891.98	20275
892.103	20263
892.226	20206
892.349	20195
892.471	20054
892.594	20191
892.717	20153
892.839	20191
892.962	20298
893.085	20176
893.207	20111
893.33	20005
893.452	19970
893.575	20286
893.697	20073
893.819	20202
893.941	20282
894.064	20267
894.186	20088
894.308	20073
894.43	20278
894.552	20328
894.674	20187
894.796	20142
894.918	20119
895.04	20077
895.161	20164
895.283	20252
895.405	20077
895.526	20058
895.648	20161
895.769	20138
895.891	20088
896.012	20202
896.134	20298
896.255	20115
896.376	20069
896.498	20096
896.619	20229
896.74	20164
896.861	20244
896.982	20434
897.103	20522
897.224	20385
897.345	20324
897.466	20313
897.587	20336
897.708	20438
897.828	20351
897.949	20271
898.07	20092
898.19	20328
898.311	20457
898.431	20229
898.552	20256
898.672	20484
898.792	20469
898.913	20320
899.033	20202
899.153	20298
899.273	20084
899.393	20225
899.513	20161
899.633	20164
899.753	20054
899.873	20100
899.993	20073
900.113	20054
900.232	19989
900.352	19997
900.472	20031
900.591	19970
900.711	19959
900.83	19856
900.95	20024
901.069	20008
901.189	19704
901.308	19578
901.427	19525
901.546	19441
901.665	19502
901.784	19476
901.904	19339
902.023	19255
902.141	19141
902.26	18981
902.379	19065
902.498	19061
902.617	18905
902.735	19012
902.854	18943
902.973	18890
903.091	18661
903.21	18719
903.328	18681
903.446	18536
903.565	18403
903.683	18498
903.801	18471
903.919	18403
904.038	18456
904.156	18110
904.274	18407
904.392	18266
904.51	18235
904.627	18209
904.745	18289
904.863	18182
904.981	18019
905.098	17920
905.216	17745
905.334	17996
905.451	17988
905.569	17980
905.686	17901
905.803	17954
905.921	17707
906.038	17802
906.155	17771
906.272	17558
906.389	17653
906.506	17615
906.623	17524
906.74	17387
906.857	17261
906.974	17360
907.091	17482
907.208	17471
907.324	17486
907.441	17303
907.557	17147
907.674	17162
907.79	17143
907.907	17208
908.023	17216
908.139	17284
908.256	17227
908.372	17056
908.488	17105
908.604	16885
908.72	16946
908.836	16835
908.952	16885
909.068	16934
909.184	17006
909.3	16923
909.415	16976
909.531	16786
909.647	16558
909.762	16672
909.878	16508
909.993	16531
910.108	16432
910.224	16481
910.339	16546
910.454	16421
910.57	16367
910.685	16337
910.8	16546
910.915	16531
911.03	16325
911.145	16215
911.259	16192
911.374	16162
911.489	16139
911.604	16109
911.718	15941
911.833	15911
911.947	15842
912.062	15774
912.176	15857
912.291	15808
912.405	15930
912.519	16036
912.633	16078
912.748	15899
912.862	15918
912.976	15698
913.09	15633
913.204	15751
913.318	15660
913.431	15831
913.545	15876
913.659	15785
913.772	15724
913.886	15614
914	15542
914.113	15720
914.226	15629
914.34	15591
914.453	15363
914.566	15538
914.68	15355
914.793	15336
914.906	15173
915.019	15245
915.132	15081
915.245	15161
915.358	15176
915.47	15066
915.583	14998
915.696	15131
915.809	15233
915.921	15283
916.034	14956
916.146	15047
916.259	15055
916.371	15142
916.483	15081
916.595	14899
916.708	15001
916.82	15051
916.932	14929
917.044	14868
917.156	14868
917.268	14746
917.38	14815
917.491	14773
917.603	14792
917.715	14868
917.826	14956
917.938	14777
918.049	14568
918.161	14762
918.272	14868
918.384	14826
918.495	14674
918.606	14541
918.717	14484
918.828	14518
918.939	14651
919.05	14457
919.161	14552
919.272	14233
919.383	14408
919.494	14507
919.604	14746
919.715	14530
919.826	14476
919.936	14522
920.047	14533
920.157	14499
920.267	14571
920.378	14575
920.488	14404
920.598	14739
920.708	14823
920.818	14598
920.928	14613
921.038	14735
921.148	14758
921.258	14381
921.368	14309
921.477	14263
921.587	14252
921.697	14123
921.806	14248
921.916	14065
922.025	13993
922.134	13940
922.244	13898
922.353	13909
922.462	13761
922.571	13765
922.68	13552
922.789	13548
922.898	13677
923.007	13460
923.116	13533
923.224	13495
923.333	13544
923.442	13339
923.55	13312
923.659	13365
923.767	13384
923.876	13293
923.984	13343
924.092	13221
924.201	13384
924.309	13270
924.417	13331
924.525	13126
924.633	13206
924.741	13936
924.849	13038
924.956	13156
925.064	12996
925.172	13004
925.279	12894
925.387	12939
925.494	12935
925.602	13000
925.709	12943
925.816	12779
925.924	12871
926.031	12897
926.138	12802
926.245	12878
926.352	12802
926.459	12932
926.566	12996
926.673	12768
926.779	12585
926.886	12707
926.993	12578
927.099	12544
927.206	12456
927.312	12426
927.419	12612
927.525	12525
927.631	12483
927.737	12460
927.843	12338
927.95	12243
928.056	12296
928.162	12407
928.267	12361
928.373	12924
928.479	12407
928.585	12216
928.69	12163
928.796	12323
928.901	12144
929.007	12072
929.112	12194
929.218	12277
929.323	12087
929.428	12053
929.533	12194
929.638	11935
929.743	11935
929.848	12038
929.953	11977
930.058	11904
930.163	11699
930.267	11775
930.372	11817
930.477	11699
930.581	11923
930.685	11794
930.79	11558
930.894	11630
930.998	11570
931.103	11779
931.207	11436
931.311	11299
931.415	11261
931.519	11094
931.623	11033
