Data from test_V78500241_2180.txt Node
Date: Fri Mar 25 15:25:02 CST 2022
User: usil
Spectrometer: V785-0024
Trigger mode: 0
Integration Time (sec): 4.000000E-1
Scans to average: 1
Nonlinearity correction enabled: false
Boxcar width: 0
Storing dark spectrum: false
XAxis mode: Wavelengths
Number of Pixels in Spectrum: 1024
>>>>>Begin Spectral Data<<<<<
801.071	27762
801.214	27652
801.356	27481
801.499	27443
801.641	27184
801.783	27195
801.926	27389
802.068	27275
802.211	27211
802.353	27203
802.496	26960
802.638	26982
802.78	27024
802.923	27013
803.065	26918
803.208	26670
803.35	26994
803.492	27157
803.635	27043
803.777	27093
803.919	27180
804.061	27378
804.204	27161
804.346	27127
804.488	27100
804.63	27104
804.773	27058
804.915	27104
805.057	27203
805.199	27058
805.341	27195
805.483	27249
805.626	27252
805.768	27188
805.91	27218
806.052	27249
806.194	27081
806.336	27378
806.478	27268
806.62	27222
806.762	27237
806.904	27542
807.046	27766
807.188	27625
807.33	27610
807.472	27888
807.614	27663
807.756	27747
807.898	27427
808.04	27496
808.182	27538
808.324	27568
808.465	27583
808.607	27770
808.749	27914
808.891	27934
809.033	28090
809.174	28025
809.316	27937
809.458	27880
809.6	27880
809.741	28063
809.883	28025
810.025	28154
810.166	28280
810.308	28166
810.45	28204
810.591	28150
810.733	27846
810.875	27880
811.016	27633
811.158	27739
811.299	28025
811.441	28112
811.582	28128
811.724	27991
811.865	27865
812.007	27869
812.148	27831
812.29	27888
812.431	28101
812.573	28177
812.714	28318
812.855	28413
812.997	28462
813.138	28698
813.279	28474
813.421	28466
813.562	28360
813.703	28173
813.845	28112
813.986	27854
814.127	27652
814.268	27633
814.41	27568
814.551	27622
814.692	27606
814.833	27538
814.974	27610
815.115	27694
815.256	27504
815.397	27492
815.539	27393
815.68	27405
815.821	27241
815.962	27405
816.103	27344
816.244	27192
816.385	27108
816.526	27039
816.666	26975
816.807	26785
816.948	26994
817.089	26880
817.23	26899
817.371	26864
817.512	26929
817.653	26868
817.793	26830
817.934	26678
818.075	26845
818.216	26937
818.356	26872
818.497	26765
818.638	26609
818.778	26606
818.919	26686
819.06	26754
819.2	26682
819.341	26819
819.481	26891
819.622	27036
819.762	27104
819.903	27013
820.043	27005
820.184	26967
820.324	26895
820.465	27039
820.605	26948
820.746	27013
820.886	26792
821.026	26864
821.167	26823
821.307	27077
821.447	26781
821.588	26735
821.728	26659
821.868	26541
822.008	26362
822.149	26229
822.289	26442
822.429	25993
822.569	26081
822.709	25849
822.849	25898
822.99	25807
823.13	25826
823.27	25757
823.41	25772
823.55	25483
823.69	25723
823.83	25510
823.97	25624
824.11	25502
824.25	25426
824.389	25365
824.529	25533
824.669	25586
824.809	25639
824.949	25468
825.089	25483
825.228	25510
825.368	25240
825.508	25441
825.648	25415
825.787	25171
825.927	25285
826.067	25293
826.206	25441
826.346	25266
826.485	25441
826.625	25324
826.765	25327
826.904	25384
827.044	25076
827.183	25069
827.323	24905
827.462	25202
827.601	25053
827.741	25091
827.88	25042
828.02	25019
828.159	25053
828.298	25088
828.437	25012
828.577	24958
828.716	25095
828.855	25061
828.994	24722
829.134	24837
829.273	24627
829.412	24536
829.551	24650
829.69	24741
829.829	24734
829.968	24745
830.107	24696
830.246	24749
830.385	24703
830.524	24608
830.663	24620
830.802	24353
830.941	24323
831.08	24357
831.219	24384
831.357	24399
831.496	24631
831.635	24346
831.774	24251
831.913	24205
832.051	24106
832.19	24015
832.329	23984
832.467	23992
832.606	23863
832.744	23958
832.883	23958
833.022	23954
833.16	23927
833.299	24049
833.437	24057
833.576	24026
833.714	23996
833.852	23935
833.991	24091
834.129	24049
834.267	24030
834.406	24136
834.544	24106
834.682	24030
834.821	24030
834.959	24266
835.097	24053
835.235	24136
835.373	24117
835.511	24076
835.65	23961
835.788	23897
835.926	23817
836.064	23585
836.202	23733
836.34	24038
836.478	24022
836.615	23821
836.753	23756
836.891	23969
837.029	23889
837.167	23859
837.305	23821
837.443	23771
837.58	23638
837.718	23870
837.856	23775
837.993	23531
838.131	23668
838.269	23497
838.406	23543
838.544	23665
838.681	23280
838.819	23379
838.956	23121
839.094	23102
839.231	23284
839.369	23353
839.506	23611
839.643	23372
839.781	23124
839.918	23121
840.055	23193
840.193	23166
840.33	23258
840.467	23102
840.604	23166
840.742	23387
840.879	22942
841.016	23006
841.153	22991
841.29	23132
841.427	23159
841.564	23056
841.701	23200
841.838	22995
841.975	22999
842.112	23079
842.249	22957
842.385	22797
842.522	23090
842.659	22938
842.796	22812
842.933	22847
843.069	22900
843.206	22698
843.343	22991
843.479	22866
843.616	22824
843.752	22698
843.889	22580
844.025	22725
844.162	22580
844.298	22755
844.435	22580
844.571	22653
844.708	22664
844.844	22691
844.98	22687
845.117	22645
845.253	22470
845.389	22500
845.525	22535
845.661	22417
845.798	22341
845.934	22382
846.07	22257
846.206	22249
846.342	22504
846.478	22272
846.614	22230
846.75	22051
846.886	22101
847.022	22128
847.158	22112
847.294	22086
847.429	22162
847.565	22185
847.701	22337
847.837	21888
847.972	21778
848.108	21816
848.244	22032
848.379	21728
848.515	21656
848.65	21690
848.786	21717
848.921	21656
849.057	21785
849.192	21705
849.328	21603
849.463	21648
849.598	21603
849.734	21526
849.869	21576
850.004	21382
850.14	21496
850.275	21450
850.41	21393
850.545	21378
850.68	21389
850.815	21511
850.95	21488
851.085	21663
851.22	21603
851.355	21416
851.49	21351
851.625	21435
851.76	21435
851.895	21359
852.03	21355
852.165	21355
852.299	21481
852.434	21458
852.569	21488
852.703	21431
852.838	21374
852.973	21538
853.107	21519
853.242	21279
853.376	21306
853.511	21131
853.645	21325
853.78	21393
853.914	21374
854.048	21199
854.183	21249
854.317	21325
854.451	21462
854.585	21233
854.72	21260
854.854	21378
854.988	21302
855.122	21249
855.256	21051
855.39	21150
855.524	21367
855.658	21192
855.792	21325
855.926	21260
856.06	21310
856.194	21313
856.327	21245
856.461	21180
856.595	21351
856.729	21272
856.862	21336
856.996	21279
857.13	21256
857.263	21405
857.397	21424
857.53	21370
857.664	21393
857.797	21188
857.931	21363
858.064	21359
858.197	21408
858.331	21317
858.464	21089
858.597	21195
858.731	21298
858.864	21218
858.997	21184
859.13	21321
859.263	21351
859.396	21351
859.529	21237
859.662	21169
859.795	21138
859.928	21283
860.061	21321
860.194	21580
860.327	21332
860.46	21287
860.592	21405
860.725	21367
860.858	21298
860.99	21355
861.123	21306
861.256	21157
861.388	21275
861.521	21964
861.653	21047
861.786	20960
861.918	21161
862.05	20986
862.183	21146
862.315	21161
862.447	21230
862.58	21127
862.712	21017
862.844	20952
862.976	20971
863.108	21051
863.24	21492
863.372	20918
863.504	20918
863.636	20979
863.768	21001
863.9	21009
864.032	20880
864.164	20929
864.296	21062
864.428	21009
864.559	21028
864.691	20944
864.823	20986
864.954	20937
865.086	20906
865.217	20921
865.349	20765
865.48	20804
865.612	20925
865.743	20979
865.875	20864
866.006	20895
866.137	20876
866.269	20842
866.4	20853
866.531	20746
866.662	20644
866.793	20724
866.924	20693
867.055	20887
867.186	20762
867.317	20800
867.448	20735
867.579	20819
867.71	20693
867.841	20762
867.972	20849
868.103	20815
868.233	20777
868.364	20800
868.495	20952
868.625	20963
868.756	21081
868.886	20963
869.017	21055
869.147	21116
869.278	21093
869.408	21093
869.539	21055
869.669	21066
869.799	20998
869.929	21104
870.06	21047
870.19	21374
870.32	21279
870.45	21389
870.58	21500
870.71	21416
870.84	21534
870.97	21462
871.1	21317
871.23	21519
871.36	21545
871.489	21538
871.619	21519
871.749	21656
871.879	21625
872.008	21701
872.138	21614
872.267	21599
872.397	21542
872.526	21454
872.656	21420
872.785	21511
872.915	21523
873.044	21614
873.173	21690
873.303	21728
873.432	21686
873.561	21819
873.69	21648
873.819	21656
873.948	21747
874.077	21694
874.206	21534
874.335	21652
874.464	21739
874.593	21823
874.722	21831
874.851	21895
874.979	21842
875.108	21907
875.237	21857
875.365	21747
875.494	21808
875.623	21895
875.751	21926
875.88	21926
876.008	21926
876.136	22070
876.265	22284
876.393	22295
876.521	22341
876.65	22379
876.778	22173
876.906	22272
877.034	22242
877.162	22253
877.29	22063
877.418	22135
877.546	22265
877.674	22207
877.802	22230
877.93	22162
878.058	22196
878.185	22013
878.313	22112
878.441	22120
878.568	22074
878.696	22143
878.824	22211
878.951	22314
879.079	22413
879.206	22436
879.333	22402
879.461	22246
879.588	22337
879.715	22341
879.842	22626
879.97	22284
880.097	22090
880.224	22074
880.351	22051
880.478	22029
880.605	21998
880.732	22074
880.859	22306
880.986	22017
881.112	22010
881.239	21953
881.366	21854
881.493	21762
881.619	21625
881.746	21675
881.872	21530
881.999	21542
882.125	21481
882.252	21747
882.378	21507
882.505	21603
882.631	21469
882.757	21389
882.883	21325
883.01	21348
883.136	21241
883.262	21188
883.388	21062
883.514	21268
883.64	21389
883.766	21252
883.892	21169
884.018	21146
884.143	21405
884.269	21279
884.395	21173
884.52	20975
884.646	21058
884.772	20826
884.897	20823
885.023	21085
885.148	21024
885.274	21150
885.399	21112
885.524	21001
885.65	21070
885.775	21028
885.9	21062
886.025	21039
886.15	21013
886.275	20941
886.4	20895
886.525	20804
886.65	20944
886.775	20838
886.9	21039
887.025	21161
887.149	20899
887.274	20800
887.399	20815
887.523	20621
887.648	20617
887.773	20480
887.897	20788
888.021	20880
888.146	20651
888.27	20697
888.395	20861
888.519	20762
888.643	20785
888.767	20804
888.891	20602
889.015	20518
889.139	20511
889.263	20560
889.387	20552
889.511	20773
889.635	20583
889.759	20495
889.883	20476
890.006	20533
890.13	20575
890.254	20282
890.377	20434
890.501	20328
890.624	20286
890.748	20218
890.871	20142
890.995	20134
891.118	19955
891.241	20164
891.364	20065
891.488	20206
891.611	20043
891.734	20005
891.857	20214
891.98	20168
892.103	20145
892.226	20119
892.349	20100
892.471	19997
892.594	19959
892.717	20035
892.839	20069
892.962	20073
893.085	20012
893.207	19978
893.33	19875
893.452	19940
893.575	20088
893.697	19947
893.819	20024
893.941	20180
894.064	20256
894.186	20012
894.308	19902
894.43	20092
894.552	20088
894.674	20050
894.796	19894
894.918	20096
895.04	20008
895.161	20081
895.283	20031
895.405	19879
895.526	19959
895.648	20035
895.769	20069
895.891	20050
896.012	19986
896.134	20100
896.255	20077
896.376	20024
896.498	20001
896.619	20130
896.74	19982
896.861	20103
896.982	20328
897.103	20488
897.224	20134
897.345	20225
897.466	20199
897.587	20252
897.708	20343
897.828	20248
897.949	20195
898.07	20069
898.19	20077
898.311	20206
898.431	20020
898.552	20286
898.672	20259
898.792	20305
898.913	20153
899.033	20130
899.153	19955
899.273	19925
899.393	19963
899.513	20012
899.633	19921
899.753	20161
899.873	19997
899.993	20039
900.113	20020
900.232	19902
900.352	19917
900.472	19841
900.591	19666
900.711	19795
900.83	19734
900.95	19868
901.069	19772
901.189	19712
901.308	19422
901.427	19377
901.546	19339
901.665	19476
901.784	19308
901.904	19228
902.023	19122
902.141	18867
902.26	18897
902.379	18966
902.498	18932
902.617	18787
902.735	18890
902.854	18764
902.973	18726
903.091	18483
903.21	18654
903.328	18528
903.446	18448
903.565	18422
903.683	18353
903.801	18304
903.919	18266
904.038	18194
904.156	18125
904.274	18079
904.392	18178
904.51	18140
904.627	17999
904.745	18114
904.863	18209
904.981	17912
905.098	17737
905.216	17805
905.334	17798
905.451	17821
905.569	17794
905.686	17859
905.803	17798
905.921	17649
906.038	17767
906.155	17623
906.272	17463
906.389	17547
906.506	17356
906.623	17299
906.74	17322
906.857	17223
906.974	17185
907.091	17280
907.208	17353
907.324	17349
907.441	17269
907.557	17079
907.674	17086
907.79	16949
907.907	16949
908.023	17037
908.139	17056
908.256	17033
908.372	16938
908.488	16828
908.604	16866
908.72	16786
908.836	16736
908.952	16668
909.068	16835
909.184	16755
909.3	16725
909.415	16778
909.531	16641
909.647	16580
909.762	16398
909.878	16447
909.993	16462
910.108	16497
910.224	16306
910.339	16459
910.454	16287
910.57	16226
910.685	16280
910.8	16535
910.915	16394
911.03	16207
911.145	16101
911.259	16086
911.374	16124
911.489	16013
911.604	15892
911.718	15819
911.833	15854
911.947	15705
912.062	15644
912.176	15842
912.291	15812
912.405	15785
912.519	15975
912.633	15930
912.748	15949
912.862	15713
912.976	15606
913.09	15519
913.204	15572
913.318	15698
913.431	15682
913.545	15690
913.659	15736
913.772	15572
913.886	15363
914	15351
914.113	15447
914.226	15568
914.34	15542
914.453	15382
914.566	15447
914.68	15363
914.793	15180
914.906	15089
915.019	14998
915.132	14979
915.245	15051
915.358	14986
915.47	15070
915.583	14975
915.696	15116
915.809	15165
915.921	15138
916.034	14971
916.146	14918
916.259	14971
916.371	15017
916.483	14914
916.595	14781
916.708	14830
916.82	14849
916.932	14731
917.044	14807
917.156	14754
917.268	14636
917.38	14705
917.491	14613
917.603	14678
917.715	14773
917.826	14758
917.938	14644
918.049	14533
918.161	14655
918.272	14716
918.384	14724
918.495	14659
918.606	14446
918.717	14404
918.828	14537
918.939	14396
919.05	14332
919.161	14339
919.272	14229
919.383	14256
919.494	14473
919.604	14590
919.715	14412
919.826	14271
919.936	14374
920.047	14423
920.157	14408
920.267	14674
920.378	14473
920.488	14415
920.598	14575
920.708	14663
920.818	14545
920.928	14514
921.038	14689
921.148	14655
921.258	14446
921.368	14301
921.477	14123
921.587	14221
921.697	13921
921.806	14153
921.916	14008
922.025	13811
922.134	13841
922.244	13723
922.353	13799
922.462	13666
922.571	13563
922.68	13464
922.789	13434
922.898	13552
923.007	13400
923.116	13449
923.224	13396
923.333	13327
923.442	13270
923.55	13263
923.659	13377
923.767	13362
923.876	13194
923.984	13255
924.092	13171
924.201	13274
924.309	13160
924.417	13168
924.525	13065
924.633	13084
924.741	13856
924.849	12863
924.956	12973
925.064	12909
925.172	12760
925.279	12829
925.387	12932
925.494	12806
925.602	12966
925.709	12890
925.816	12757
925.924	12848
926.031	12825
926.138	12814
926.245	12776
926.352	12726
926.459	12768
926.566	12886
926.673	12639
926.779	12551
926.886	12574
926.993	12532
927.099	12399
927.206	12384
927.312	12380
927.419	12437
927.525	12426
927.631	12384
927.737	12262
927.843	12277
927.95	12129
928.056	12194
928.162	12399
928.267	12247
928.373	12977
928.479	12281
928.585	12117
928.69	12152
928.796	12235
928.901	12083
929.007	11950
929.112	12060
929.218	12083
929.323	11946
929.428	11942
929.533	12114
929.638	11908
929.743	11950
929.848	11958
929.953	11916
930.058	11794
930.163	11608
930.267	11661
930.372	11832
930.477	11634
930.581	11760
930.685	11775
930.79	11497
930.894	11619
930.998	11444
931.103	11657
931.207	11337
931.311	11197
931.415	11151
931.519	10995
931.623	10976
