Data from test_V78500241_2317.txt Node
Date: Fri Mar 25 15:25:59 CST 2022
User: usil
Spectrometer: V785-0024
Trigger mode: 0
Integration Time (sec): 4.000000E-1
Scans to average: 1
Nonlinearity correction enabled: false
Boxcar width: 0
Storing dark spectrum: false
XAxis mode: Wavelengths
Number of Pixels in Spectrum: 1024
>>>>>Begin Spectral Data<<<<<
801.071	27355
801.214	27233
801.356	27146
801.499	27009
801.641	26842
801.783	26750
801.926	26826
802.068	26944
802.211	26796
802.353	26640
802.496	26583
802.638	26423
802.78	26495
802.923	26446
803.065	26336
803.208	26453
803.35	26434
803.492	26686
803.635	26708
803.777	26514
803.919	26731
804.061	27077
804.204	26758
804.346	26689
804.488	26609
804.63	26609
804.773	26606
804.915	26617
805.057	26659
805.199	26644
805.341	26720
805.483	26762
805.626	26708
805.768	26727
805.91	26754
806.052	26731
806.194	26689
806.336	27036
806.478	26686
806.62	26845
806.762	26845
806.904	27013
807.046	27420
807.188	27116
807.33	27272
807.472	27382
807.614	27020
807.756	27195
807.898	27009
808.04	27028
808.182	26883
808.324	27047
808.465	27047
808.607	27294
808.749	27389
808.891	27485
809.033	27504
809.174	27336
809.316	27203
809.458	27424
809.6	27386
809.741	27481
809.883	27466
810.025	27587
810.166	27705
810.308	27618
810.45	27515
810.591	27538
810.733	27481
810.875	27203
811.016	27272
811.158	27188
811.299	27378
811.441	27359
811.582	27477
811.724	27291
811.865	27344
812.007	27241
812.148	27405
812.29	27272
812.431	27462
812.573	27682
812.714	27675
812.855	27759
812.997	27823
813.138	28105
813.279	27998
813.421	27918
813.562	27732
813.703	27679
813.845	27720
813.986	27260
814.127	27142
814.268	26967
814.41	26960
814.551	26940
814.692	27108
814.833	26838
814.974	26929
815.115	27017
815.256	26826
815.397	26872
815.539	26849
815.68	26815
815.821	26838
815.962	26902
816.103	26659
816.244	26689
816.385	26590
816.526	26537
816.666	26290
816.807	26343
816.948	26206
817.089	26374
817.23	26393
817.371	26282
817.512	26233
817.653	26305
817.793	26294
817.934	26332
818.075	26305
818.216	26157
818.356	26271
818.497	26248
818.638	25970
818.778	26103
818.919	26001
819.06	25830
819.2	26199
819.341	26305
819.481	26240
819.622	26366
819.762	26522
819.903	26530
820.043	26480
820.184	26332
820.324	26438
820.465	26427
820.605	26469
820.746	26332
820.886	26107
821.026	26328
821.167	26313
821.307	26427
821.447	26275
821.588	26267
821.728	26092
821.868	25921
822.008	25639
822.149	25894
822.289	25704
822.429	25403
822.569	25369
822.709	25377
822.849	25244
822.99	25202
823.13	25183
823.27	25236
823.41	25110
823.55	24951
823.69	25080
823.83	25050
823.97	24954
824.11	24837
824.25	24863
824.389	24859
824.529	24837
824.669	24878
824.809	24924
824.949	25008
825.089	24810
825.228	24875
825.368	24692
825.508	24589
825.648	24768
825.787	24787
825.927	24764
826.067	24669
826.206	24620
826.346	24726
826.485	24764
826.625	24654
826.765	24935
826.904	24616
827.044	24528
827.183	24528
827.323	24330
827.462	24433
827.601	24445
827.741	24334
827.88	24513
828.02	24361
828.159	24426
828.298	24559
828.437	24528
828.577	24304
828.716	24429
828.855	24388
828.994	24117
829.134	24228
829.273	24213
829.412	24129
829.551	24083
829.69	24148
829.829	24072
829.968	24182
830.107	24140
830.246	24270
830.385	24102
830.524	24022
830.663	23954
830.802	23935
830.941	23672
831.08	23684
831.219	23824
831.357	23889
831.496	24038
831.635	23741
831.774	23676
831.913	23627
832.051	23554
832.19	23539
832.329	23512
832.467	23395
832.606	23330
832.744	23258
832.883	23353
833.022	23368
833.16	23490
833.299	23490
833.437	23288
833.576	23474
833.714	23414
833.852	23589
833.991	23490
834.129	23577
834.267	23482
834.406	23478
834.544	23512
834.682	23528
834.821	23417
834.959	23600
835.097	23398
835.235	23486
835.373	23417
835.511	23467
835.65	23254
835.788	23299
835.926	23181
836.064	23159
836.202	23140
836.34	23345
836.478	23395
836.615	23197
836.753	23516
836.891	23292
837.029	23311
837.167	23223
837.305	23265
837.443	23227
837.58	23109
837.718	23227
837.856	23193
837.993	23109
838.131	23018
838.269	23010
838.406	23094
838.544	22919
838.681	22782
838.819	22771
838.956	22649
839.094	22592
839.231	22763
839.369	22706
839.506	23109
839.643	22862
839.781	22565
839.918	22523
840.055	22660
840.193	22573
840.33	22538
840.467	22607
840.604	22523
840.742	22778
840.879	22348
841.016	22599
841.153	22303
841.29	22500
841.427	22500
841.564	22664
841.701	22481
841.838	22462
841.975	22493
842.112	22382
842.249	22500
842.385	22322
842.522	22459
842.659	22367
842.796	22405
842.933	22337
843.069	22295
843.206	22112
843.343	22379
843.479	22310
843.616	22238
843.752	22109
843.889	22162
844.025	22238
844.162	22025
844.298	22131
844.435	22074
844.571	21991
844.708	22188
844.844	22219
844.98	22158
845.117	22143
845.253	22067
845.389	21835
845.525	21930
845.661	21968
845.798	21842
845.934	21778
846.07	21736
846.206	21945
846.342	21911
846.478	21698
846.614	21534
846.75	21443
846.886	21526
847.022	21538
847.158	21709
847.294	21732
847.429	21561
847.565	21488
847.701	21789
847.837	21226
847.972	21321
848.108	21389
848.244	21397
848.379	21192
848.515	21180
848.65	21135
848.786	21237
848.921	21142
849.057	21279
849.192	21119
849.328	21085
849.463	21119
849.598	21020
849.734	21058
849.869	20975
850.004	20971
850.14	20971
850.275	20921
850.41	20861
850.545	20834
850.68	20864
850.815	20998
850.95	20842
851.085	21154
851.22	20941
851.355	20994
851.49	20807
851.625	20895
851.76	20910
851.895	20811
852.03	20883
852.165	20910
852.299	20918
852.434	20971
852.569	21024
852.703	20921
852.838	20925
852.973	21001
853.107	21093
853.242	20849
853.376	20746
853.511	20731
853.645	20720
853.78	20796
853.914	20743
854.048	20708
854.183	20724
854.317	20762
854.451	20902
854.585	20716
854.72	20876
854.854	20902
854.988	20769
855.122	20716
855.256	20697
855.39	20777
855.524	20830
855.658	20792
855.792	20648
855.926	20693
856.06	20769
856.194	20769
856.327	20785
856.461	20716
856.595	20530
856.729	20689
856.862	20906
856.996	20720
857.13	20785
857.263	20910
857.397	20724
857.53	20693
857.664	20716
857.797	20686
857.931	20788
858.064	20792
858.197	20689
858.331	20693
858.464	20796
858.597	20659
858.731	20667
858.864	20716
858.997	20659
859.13	20765
859.263	20705
859.396	20804
859.529	20773
859.662	20708
859.795	20739
859.928	20735
860.061	20929
860.194	20826
860.327	20872
860.46	20777
860.592	20845
860.725	20872
860.858	20857
860.99	20708
861.123	20686
861.256	20609
861.388	20678
861.521	21466
861.653	20583
861.786	20503
861.918	20579
862.05	20636
862.183	20629
862.315	20716
862.447	20632
862.58	20674
862.712	20518
862.844	20473
862.976	20530
863.108	20556
863.24	20815
863.372	20450
863.504	20370
863.636	20351
863.768	20469
863.9	20446
864.032	20404
864.164	20408
864.296	20530
864.428	20469
864.559	20583
864.691	20545
864.823	20526
864.954	20488
865.086	20377
865.217	20393
865.349	20332
865.48	20381
865.612	20476
865.743	20621
865.875	20446
866.006	20320
866.137	20332
866.269	20221
866.4	20415
866.531	20309
866.662	20252
866.793	20218
866.924	20290
867.055	20286
867.186	20263
867.317	20180
867.448	20183
867.579	20317
867.71	20214
867.841	20294
867.972	20362
868.103	20237
868.233	20320
868.364	20290
868.495	20461
868.625	20404
868.756	20598
868.886	20404
869.017	20522
869.147	20522
869.278	20693
869.408	20579
869.539	20541
869.669	20533
869.799	20590
869.929	20674
870.06	20556
870.19	20914
870.32	20762
870.45	20887
870.58	20861
870.71	20998
870.84	21146
870.97	20956
871.1	20937
871.23	21036
871.36	21074
871.489	20956
871.619	21077
871.749	21119
871.879	21192
872.008	21374
872.138	21161
872.267	21184
872.397	20921
872.526	20925
872.656	20914
872.785	20971
872.915	21108
873.044	21233
873.173	21077
873.303	21020
873.432	21279
873.561	21367
873.69	21119
873.819	21070
873.948	21321
874.077	21211
874.206	21112
874.335	21077
874.464	21317
874.593	21336
874.722	21389
874.851	21462
874.979	21397
875.108	21420
875.237	21382
875.365	21291
875.494	21222
875.623	21469
875.751	21428
875.88	21542
876.008	21622
876.136	21599
876.265	21888
876.393	21823
876.521	21816
876.65	21804
876.778	21755
876.906	21717
877.034	21755
877.162	21835
877.29	21583
877.418	21778
877.546	21819
877.674	21679
877.802	21538
877.93	21622
878.058	21701
878.185	21561
878.313	21698
878.441	21736
878.568	21618
878.696	21663
878.824	21857
878.951	21759
879.079	21804
879.206	22086
879.333	21838
879.461	21823
879.588	21854
879.715	21888
879.842	21865
879.97	21842
880.097	21545
880.224	21633
880.351	21580
880.478	21523
880.605	21530
880.732	21545
880.859	21728
880.986	21587
881.112	21553
881.239	21515
881.366	21306
881.493	21283
881.619	21256
881.746	21294
881.872	21093
881.999	21112
882.125	21116
882.252	21077
882.378	21108
882.505	21192
882.631	21173
882.757	20830
882.883	20857
883.01	20872
883.136	20792
883.262	20762
883.388	20655
883.514	20849
883.64	20830
883.766	20765
883.892	20617
884.018	20727
884.143	20883
884.269	20853
884.395	20590
884.52	20446
884.646	20537
884.772	20343
884.897	20400
885.023	20583
885.148	20697
885.274	20530
885.399	20556
885.524	20488
885.65	20636
885.775	20427
885.9	20503
886.025	20621
886.15	20568
886.275	20450
886.4	20442
886.525	20457
886.65	20446
886.775	20484
886.9	20533
887.025	20667
887.149	20503
887.274	20161
887.399	20290
887.523	20210
887.648	20271
887.773	20088
887.897	20415
888.021	20210
888.146	20252
888.27	20317
888.395	20358
888.519	20271
888.643	20237
888.767	20290
888.891	20195
889.015	20062
889.139	20191
889.263	20081
889.387	20161
889.511	20313
889.635	20275
889.759	20031
889.883	20058
890.006	20111
890.13	20157
890.254	19989
890.377	20008
890.501	19750
890.624	19704
890.748	19818
890.871	19803
890.995	19655
891.118	19544
891.241	19723
891.364	19769
891.488	19708
891.611	19738
891.734	19647
891.857	19765
891.98	19700
892.103	19704
892.226	19693
892.349	19552
892.471	19559
892.594	19586
892.717	19609
892.839	19658
892.962	19605
893.085	19563
893.207	19620
893.33	19491
893.452	19582
893.575	19616
893.697	19575
893.819	19746
893.941	19750
894.064	19738
894.186	19556
894.308	19575
894.43	19582
894.552	19674
894.674	19658
894.796	19506
894.918	19518
895.04	19460
895.161	19563
895.283	19674
895.405	19601
895.526	19548
895.648	19556
895.769	19601
895.891	19632
896.012	19571
896.134	19727
896.255	19590
896.376	19639
896.498	19601
896.619	19685
896.74	19571
896.861	19601
896.982	19921
897.103	20107
897.224	19875
897.345	19757
897.466	19753
897.587	19746
897.708	19906
897.828	19868
897.949	19776
898.07	19613
898.19	19651
898.311	19818
898.431	19746
898.552	19811
898.672	19837
898.792	19970
898.913	19944
899.033	19738
899.153	19670
899.273	19597
899.393	19537
899.513	19647
899.633	19548
899.753	19734
899.873	19681
899.993	19624
900.113	19544
900.232	19670
900.352	19533
900.472	19438
900.591	19350
900.711	19339
900.83	19293
900.95	19430
901.069	19441
901.189	19251
901.308	19012
901.427	19046
901.546	18981
901.665	19103
901.784	19046
901.904	18829
902.023	18684
902.141	18597
902.26	18437
902.379	18642
902.498	18479
902.617	18327
902.735	18627
902.854	18380
902.973	18357
903.091	18171
903.21	18216
903.328	18148
903.446	18129
903.565	17954
903.683	17931
903.801	17897
903.919	17889
904.038	17805
904.156	17752
904.274	17718
904.392	17794
904.51	17695
904.627	17767
904.745	17760
904.863	17710
904.981	17528
905.098	17406
905.216	17296
905.334	17383
905.451	17433
905.569	17391
905.686	17436
905.803	17315
905.921	17227
906.038	17166
906.155	17242
906.272	16980
906.389	17132
906.506	16934
906.623	16930
906.74	16965
906.857	16850
906.974	16854
907.091	16873
907.208	17113
907.324	16972
907.441	16854
907.557	16622
907.674	16710
907.79	16599
907.907	16542
908.023	16550
908.139	16618
908.256	16538
908.372	16508
908.488	16451
908.604	16386
908.72	16360
908.836	16329
908.952	16356
909.068	16356
909.184	16470
909.3	16394
909.415	16424
909.531	16398
909.647	16063
909.762	16055
909.878	16097
909.993	16090
910.108	16059
910.224	16051
910.339	16071
910.454	15964
910.57	15842
910.685	15804
910.8	16063
910.915	16055
911.03	15979
911.145	15739
911.259	15682
911.374	15755
911.489	15587
911.604	15618
911.718	15310
911.833	15576
911.947	15264
912.062	15230
912.176	15382
912.291	15386
912.405	15382
912.519	15523
912.633	15610
912.748	15458
912.862	15443
912.976	15249
913.09	15146
913.204	15184
913.318	15214
913.431	15298
913.545	15321
913.659	15325
913.772	15237
913.886	15097
914	15146
914.113	15127
914.226	15195
914.34	15165
914.453	14998
914.566	15104
914.68	14941
914.793	14963
914.906	14670
915.019	14727
915.132	14655
915.245	14644
915.358	14640
915.47	14788
915.583	14689
915.696	14708
915.809	14800
915.921	14910
916.034	14590
916.146	14530
916.259	14587
916.371	14708
916.483	14594
916.595	14488
916.708	14545
916.82	14507
916.932	14469
917.044	14450
917.156	14507
917.268	14438
917.38	14423
917.491	14332
917.603	14305
917.715	14366
917.826	14415
917.938	14370
918.049	14092
918.161	14301
918.272	14412
918.384	14381
918.495	14229
918.606	14183
918.717	14077
918.828	14126
918.939	14138
919.05	13986
919.161	14126
919.272	13875
919.383	13989
919.494	14077
919.604	14358
919.715	14046
919.826	13921
919.936	14123
920.047	14149
920.157	14145
920.267	14290
920.378	14069
920.488	14119
920.598	14172
920.708	14393
920.818	14233
920.928	14225
921.038	14408
921.148	14278
921.258	14073
921.368	13947
921.477	13932
921.587	13780
921.697	13685
921.806	13871
921.916	13643
922.025	13540
922.134	13559
922.244	13487
922.353	13449
922.462	13460
922.571	13316
922.68	13107
922.789	13171
922.898	13168
923.007	13084
923.116	13164
923.224	13133
923.333	13110
923.442	12962
923.55	12935
923.659	13008
923.767	13065
923.876	12977
923.984	13027
924.092	12935
924.201	12932
924.309	12901
924.417	12890
924.525	12817
924.633	12829
924.741	13696
924.849	12662
924.956	12741
925.064	12620
925.172	12563
925.279	12601
925.387	12616
925.494	12513
925.602	12642
925.709	12570
925.816	12467
925.924	12460
926.031	12650
926.138	12551
926.245	12566
926.352	12441
926.459	12566
926.566	12604
926.673	12429
926.779	12357
926.886	12266
926.993	12201
927.099	12155
927.206	12015
927.312	12102
927.419	12224
927.525	12117
927.631	12155
927.737	12102
927.843	12076
927.95	11893
928.056	11942
928.162	12083
928.267	12034
928.373	12517
928.479	12076
928.585	11843
928.69	11893
928.796	12034
928.901	11859
929.007	11726
929.112	11935
929.218	11866
929.323	11722
929.428	11726
929.533	11790
929.638	11653
929.743	11649
929.848	11813
929.953	11634
930.058	11551
930.163	11341
930.267	11379
930.372	11520
930.477	11429
930.581	11615
930.685	11440
930.79	11231
930.894	11379
930.998	11296
931.103	11398
931.207	11022
931.311	10915
931.415	10980
931.519	10733
931.623	10725
