Data from test_V78500241_361.txt Node
Date: Fri Mar 25 15:12:22 CST 2022
User: usil
Spectrometer: V785-0024
Trigger mode: 0
Integration Time (sec): 4.000000E-1
Scans to average: 1
Nonlinearity correction enabled: false
Boxcar width: 0
Storing dark spectrum: false
XAxis mode: Wavelengths
Number of Pixels in Spectrum: 1024
>>>>>Begin Spectral Data<<<<<
801.071	27005
801.214	27001
801.356	26731
801.499	26613
801.641	26503
801.783	26617
801.926	26495
802.068	26648
802.211	26434
802.353	26495
802.496	26263
802.638	26332
802.78	26244
802.923	26122
803.065	25993
803.208	26073
803.35	26172
803.492	26275
803.635	26332
803.777	26191
803.919	26305
804.061	26708
804.204	26339
804.346	26336
804.488	26298
804.63	26351
804.773	26138
804.915	26191
805.057	26381
805.199	26385
805.341	26317
805.483	26442
805.626	26434
805.768	26366
805.91	26476
806.052	26396
806.194	26362
806.336	26571
806.478	26469
806.62	26423
806.762	26503
806.904	26769
807.046	26921
807.188	26952
807.33	26651
807.472	26876
807.614	26663
807.756	26804
807.898	26632
808.04	26568
808.182	26689
808.324	26648
808.465	26724
808.607	26914
808.749	27028
808.891	27074
809.033	27203
809.174	27074
809.316	26982
809.458	27104
809.6	27055
809.741	27180
809.883	27036
810.025	27146
810.166	27302
810.308	27317
810.45	27195
810.591	27218
810.733	26956
810.875	26963
811.016	26815
811.158	26849
811.299	27017
811.441	27180
811.582	27058
811.724	26971
811.865	27058
812.007	26845
812.148	27024
812.29	27074
812.431	27093
812.573	27427
812.714	27302
812.855	27736
812.997	27644
813.138	27739
813.279	27720
813.421	27348
813.562	27393
813.703	27302
813.845	27142
813.986	26967
814.127	26800
814.268	26716
814.41	26826
814.551	26537
814.692	26682
814.833	26716
814.974	26511
815.115	26621
815.256	26530
815.397	26587
815.539	26412
815.68	26393
815.821	26442
815.962	26552
816.103	26518
816.244	26278
816.385	26157
816.526	26278
816.666	25974
816.807	25955
816.948	25997
817.089	26168
817.23	25879
817.371	25940
817.512	25921
817.653	25913
817.793	25909
817.934	25890
818.075	25887
818.216	25966
818.356	25925
818.497	25940
818.638	25514
818.778	25734
818.919	25643
819.06	25605
819.2	25814
819.341	25890
819.481	25856
819.622	26046
819.762	26206
819.903	26115
820.043	26016
820.184	25989
820.324	25997
820.465	26111
820.605	26111
820.746	26062
820.886	25894
821.026	25959
821.167	26024
821.307	26008
821.447	25883
821.588	25818
821.728	25757
821.868	25479
822.008	25453
822.149	25476
822.289	25464
822.429	25251
822.569	25194
822.709	25065
822.849	24951
822.99	24776
823.13	24932
823.27	24894
823.41	24639
823.55	24661
823.69	24696
823.83	24814
823.97	24540
824.11	24448
824.25	24403
824.389	24505
824.529	24578
824.669	24498
824.809	24646
824.949	24700
825.089	24604
825.228	24536
825.368	24292
825.508	24327
825.648	24426
825.787	24334
825.927	24505
826.067	24380
826.206	24266
826.346	24498
826.485	24342
826.625	24270
826.765	24517
826.904	24315
827.044	24163
827.183	24110
827.323	24030
827.462	24125
827.601	24049
827.741	24011
827.88	24220
828.02	23992
828.159	24041
828.298	24178
828.437	24133
828.577	24144
828.716	24106
828.855	24110
828.994	23901
829.134	23809
829.273	23931
829.412	23714
829.551	23707
829.69	23843
829.829	23874
829.968	23954
830.107	23874
830.246	23843
830.385	23737
830.524	23741
830.663	23535
830.802	23535
830.941	23455
831.08	23410
831.219	23406
831.357	23474
831.496	23783
831.635	23353
831.774	23486
831.913	23280
832.051	23223
832.19	23235
832.329	23121
832.467	23216
832.606	23155
832.744	23090
832.883	23204
833.022	23159
833.16	23136
833.299	23204
833.437	23151
833.576	23273
833.714	23166
833.852	23258
833.991	23296
834.129	23307
834.267	23273
834.406	23208
834.544	23299
834.682	23254
834.821	23170
834.959	23307
835.097	23170
835.235	23269
835.373	23258
835.511	23220
835.65	23140
835.788	23113
835.926	22946
836.064	22862
836.202	23060
836.34	23098
836.478	23136
836.615	22972
836.753	23033
836.891	23261
837.029	23048
837.167	22927
837.305	23048
837.443	22953
837.58	22774
837.718	23121
837.856	23018
837.993	22915
838.131	22862
838.269	22835
838.406	22942
838.544	22778
838.681	22618
838.819	22481
838.956	22436
839.094	22413
839.231	22398
839.369	22607
839.506	22767
839.643	22649
839.781	22352
839.918	22386
840.055	22348
840.193	22306
840.33	22234
840.467	22238
840.604	22348
840.742	22577
840.879	22177
841.016	22234
841.153	22158
841.29	22497
841.427	22344
841.564	22341
841.701	22234
841.838	22238
841.975	22284
842.112	22204
842.249	22128
842.385	21991
842.522	22230
842.659	22173
842.796	22090
842.933	22120
843.069	22086
843.206	21937
843.343	22120
843.479	22051
843.616	22070
843.752	21895
843.889	21899
844.025	22044
844.162	21892
844.298	21987
844.435	21892
844.571	21850
844.708	21937
844.844	22013
844.98	22067
845.117	21991
845.253	21736
845.389	21709
845.525	21694
845.661	21675
845.798	21530
845.934	21675
846.07	21439
846.206	21625
846.342	21835
846.478	21618
846.614	21397
846.75	21123
846.886	21367
847.022	21424
847.158	21310
847.294	21306
847.429	21302
847.565	21294
847.701	21538
847.837	21062
847.972	21009
848.108	21116
848.244	21138
848.379	20857
848.515	20948
848.65	21017
848.786	20883
848.921	20944
849.057	20994
849.192	21074
849.328	21005
849.463	21013
849.598	20853
849.734	20804
849.869	20891
850.004	20731
850.14	20811
850.275	20739
850.41	20609
850.545	20670
850.68	20651
850.815	20750
850.95	20644
851.085	20925
851.22	20800
851.355	20667
851.49	20636
851.625	20625
851.76	20629
851.895	20617
852.03	20594
852.165	20693
852.299	20796
852.434	20743
852.569	20644
852.703	20617
852.838	20826
852.973	20830
853.107	20743
853.242	20625
853.376	20488
853.511	20450
853.645	20465
853.78	20708
853.914	20560
854.048	20484
854.183	20488
854.317	20442
854.451	20743
854.585	20495
854.72	20541
854.854	20667
854.988	20412
855.122	20537
855.256	20362
855.39	20522
855.524	20575
855.658	20476
855.792	20560
855.926	20602
856.06	20545
856.194	20602
856.327	20503
856.461	20461
856.595	20571
856.729	20465
856.862	20686
856.996	20556
857.13	20625
857.263	20708
857.397	20564
857.53	20434
857.664	20537
857.797	20549
857.931	20746
858.064	20537
858.197	20617
858.331	20503
858.464	20571
858.597	20484
858.731	20495
858.864	20556
858.997	20507
859.13	20492
859.263	20606
859.396	20583
859.529	20488
859.662	20495
859.795	20396
859.928	20530
860.061	20590
860.194	20697
860.327	20594
860.46	20564
860.592	20701
860.725	20636
860.858	20648
860.99	20469
861.123	20514
861.256	20526
861.388	20587
861.521	21100
861.653	20332
861.786	20313
861.918	20377
862.05	20290
862.183	20484
862.315	20370
862.447	20419
862.58	20461
862.712	20317
862.844	20271
862.976	20317
863.108	20328
863.24	20720
863.372	20320
863.504	20278
863.636	20271
863.768	20351
863.9	20229
864.032	20176
864.164	20176
864.296	20168
864.428	20355
864.559	20305
864.691	20412
864.823	20168
864.954	20328
865.086	20248
865.217	20153
865.349	20100
865.48	20138
865.612	20149
865.743	20294
865.875	20142
866.006	20164
866.137	20202
866.269	20115
866.4	20237
866.531	20126
866.662	20046
866.793	20096
866.924	20050
867.055	20282
867.186	20172
867.317	20100
867.448	20035
867.579	19970
867.71	19967
867.841	19986
867.972	20100
868.103	20035
868.233	20054
868.364	20176
868.495	20142
868.625	20404
868.756	20332
868.886	20271
869.017	20404
869.147	20423
869.278	20370
869.408	20347
869.539	20313
869.669	20446
869.799	20298
869.929	20545
870.06	20362
870.19	20651
870.32	20693
870.45	20651
870.58	20864
870.71	20807
870.84	20830
870.97	20674
871.1	20724
871.23	20948
871.36	20941
871.489	20830
871.619	20971
871.749	20895
871.879	20895
872.008	21043
872.138	20864
872.267	20895
872.397	20902
872.526	20773
872.656	20792
872.785	20682
872.915	20982
873.044	20986
873.173	20998
873.303	21009
873.432	21074
873.561	21165
873.69	20986
873.819	21055
873.948	21104
874.077	20925
874.206	21001
874.335	20948
874.464	21131
874.593	21195
874.722	21150
874.851	21264
874.979	21279
875.108	21154
875.237	21142
875.365	21093
875.494	21279
875.623	21306
875.751	21169
875.88	21131
876.008	21279
876.136	21450
876.265	21587
876.393	21713
876.521	21675
876.65	21648
876.778	21553
876.906	21473
877.034	21526
877.162	21534
877.29	21447
877.418	21564
877.546	21545
877.674	21557
877.802	21576
877.93	21591
878.058	21481
878.185	21317
878.313	21504
878.441	21599
878.568	21386
878.696	21447
878.824	21587
878.951	21583
879.079	21762
879.206	21766
879.333	21690
879.461	21618
879.588	21720
879.715	21755
879.842	21785
879.97	21454
880.097	21416
880.224	21378
880.351	21420
880.478	21424
880.605	21428
880.732	21393
880.859	21591
880.986	21374
881.112	21401
881.239	21218
881.366	21192
881.493	21169
881.619	21020
881.746	21005
881.872	20948
881.999	20941
882.125	20956
882.252	20960
882.378	20872
882.505	21131
882.631	20796
882.757	20727
882.883	20636
883.01	20754
883.136	20617
883.262	20454
883.388	20556
883.514	20651
883.64	20636
883.766	20499
883.892	20396
884.018	20412
884.143	20625
884.269	20636
884.395	20415
884.52	20294
884.646	20355
884.772	20362
884.897	20275
885.023	20366
885.148	20480
885.274	20457
885.399	20381
885.524	20290
885.65	20339
885.775	20336
885.9	20408
886.025	20389
886.15	20313
886.275	20290
886.4	20229
886.525	20320
886.65	20221
886.775	20161
886.9	20347
887.025	20450
887.149	20195
887.274	20145
887.399	20145
887.523	20039
887.648	20046
887.773	19974
887.897	20202
888.021	20187
888.146	20008
888.27	20054
888.395	20183
888.519	20077
888.643	20157
888.767	20180
888.891	20024
889.015	20016
889.139	19917
889.263	19856
889.387	20058
889.511	20111
889.635	20031
889.759	19826
889.883	19860
890.006	19871
890.13	20081
890.254	19894
890.377	19902
890.501	19662
890.624	19556
890.748	19738
890.871	19605
890.995	19453
891.118	19544
891.241	19567
891.364	19472
891.488	19533
891.611	19430
891.734	19483
891.857	19521
891.98	19407
892.103	19480
892.226	19460
892.349	19400
892.471	19190
892.594	19377
892.717	19354
892.839	19491
892.962	19396
893.085	19430
893.207	19335
893.33	19270
893.452	19320
893.575	19400
893.697	19396
893.819	19571
893.941	19514
894.064	19521
894.186	19335
894.308	19358
894.43	19460
894.552	19495
894.674	19400
894.796	19282
894.918	19441
895.04	19331
895.161	19426
895.283	19377
895.405	19358
895.526	19396
895.648	19343
895.769	19384
895.891	19381
896.012	19476
896.134	19487
896.255	19407
896.376	19343
896.498	19304
896.619	19514
896.74	19445
896.861	19480
896.982	19753
897.103	19913
897.224	19666
897.345	19685
897.466	19567
897.587	19647
897.708	19879
897.828	19662
897.949	19476
898.07	19407
898.19	19578
898.311	19658
898.431	19674
898.552	19563
898.672	19670
898.792	19765
898.913	19674
899.033	19506
899.153	19430
899.273	19285
899.393	19430
899.513	19350
899.633	19464
899.753	19335
899.873	19274
899.993	19388
900.113	19407
900.232	19312
900.352	19346
900.472	19209
900.591	19118
900.711	19141
900.83	19034
900.95	19255
901.069	19343
901.189	18932
901.308	18928
901.427	18779
901.546	18833
901.665	18795
901.784	18802
901.904	18703
902.023	18612
902.141	18365
902.26	18342
902.379	18403
902.498	18285
902.617	18304
902.735	18323
902.854	18323
902.973	18216
903.091	17958
903.21	17958
903.328	17961
903.446	17874
903.565	17859
903.683	17885
903.801	17665
903.919	17771
904.038	17733
904.156	17592
904.274	17657
904.392	17516
904.51	17425
904.627	17524
904.745	17634
904.863	17592
904.981	17372
905.098	17311
905.216	17109
905.334	17246
905.451	17227
905.569	17117
905.686	17254
905.803	17261
905.921	17075
906.038	17239
906.155	17010
906.272	16961
906.389	17010
906.506	16843
906.623	16771
906.74	16748
906.857	16637
906.974	16706
907.091	16805
907.208	16801
907.324	16771
907.441	16679
907.557	16440
907.674	16500
907.79	16455
907.907	16516
908.023	16478
908.139	16580
908.256	16535
908.372	16424
908.488	16329
908.604	16238
908.72	16192
908.836	16226
908.952	16329
909.068	16226
909.184	16325
909.3	16249
909.415	16268
909.531	16181
909.647	16025
909.762	15975
909.878	15945
909.993	15956
910.108	15975
910.224	15854
910.339	15930
910.454	15907
910.57	15743
910.685	15728
910.8	15926
910.915	15911
911.03	15755
911.145	15618
911.259	15553
911.374	15458
911.489	15416
911.604	15382
911.718	15332
911.833	15214
911.947	15146
912.062	15070
912.176	15264
912.291	15260
912.405	15199
912.519	15443
912.633	15515
912.748	15363
912.862	15272
912.976	15112
913.09	15028
913.204	15062
913.318	15161
913.431	15203
913.545	15306
913.659	15241
913.772	15081
913.886	14906
914	14941
914.113	14933
914.226	15024
914.34	14967
914.453	14750
914.566	15020
914.68	14826
914.793	14918
914.906	14667
915.019	14602
915.132	14541
915.245	14518
915.358	14522
915.47	14640
915.583	14522
915.696	14533
915.809	14674
915.921	14640
916.034	14602
916.146	14571
916.259	14434
916.371	14541
916.483	14511
916.595	14393
916.708	14313
916.82	14347
916.932	14393
917.044	14461
917.156	14309
917.268	14195
917.38	14347
917.491	14206
917.603	14271
917.715	14252
917.826	14317
917.938	14180
918.049	14031
918.161	14161
918.272	14256
918.384	14233
918.495	14172
918.606	13997
918.717	13879
918.828	14020
918.939	13970
919.05	13894
919.161	14016
919.272	13799
919.383	13799
919.494	14020
919.604	14153
919.715	13875
919.826	13925
919.936	13951
920.047	14073
920.157	13879
920.267	14267
920.378	14039
920.488	13959
920.598	14145
920.708	14286
920.818	14138
920.928	14073
921.038	14221
921.148	14199
921.258	13951
921.368	13841
921.477	13811
921.587	13791
921.697	13689
921.806	13616
921.916	13518
922.025	13460
922.134	13392
922.244	13335
922.353	13343
922.462	13209
922.571	13244
922.68	13088
922.789	12939
922.898	13046
923.007	12924
923.116	13023
923.224	13000
923.333	12977
923.442	12901
923.55	12814
923.659	12837
923.767	12909
923.876	12715
923.984	12878
924.092	12844
924.201	12764
924.309	12730
924.417	12810
924.525	12658
924.633	12730
924.741	13495
924.849	12608
924.956	12601
925.064	12536
925.172	12448
925.279	12456
925.387	12506
925.494	12426
925.602	12608
925.709	12506
925.816	12460
925.924	12456
926.031	12525
926.138	12380
926.245	12380
926.352	12327
926.459	12521
926.566	12521
926.673	12353
926.779	12273
926.886	12163
926.993	12057
927.099	12064
927.206	12106
927.312	12064
927.419	12053
927.525	12106
927.631	12197
927.737	11984
927.843	11904
927.95	11764
928.056	11866
928.162	11863
928.267	11939
928.373	12585
928.479	12041
928.585	11688
928.69	11855
928.796	11935
928.901	11889
929.007	11577
929.112	11767
929.218	11752
929.323	11657
929.428	11558
929.533	11779
929.638	11585
929.743	11596
929.848	11665
929.953	11528
930.058	11467
930.163	11299
930.267	11307
930.372	11459
930.477	11208
930.581	11417
930.685	11372
930.79	11231
930.894	11181
930.998	11117
931.103	11402
931.207	10946
931.311	10831
931.415	10809
931.519	10645
931.623	10660
