Data from test_V78500241_1263.txt Node
Date: Fri Mar 25 15:18:39 CST 2022
User: usil
Spectrometer: V785-0024
Trigger mode: 0
Integration Time (sec): 4.000000E-1
Scans to average: 1
Nonlinearity correction enabled: false
Boxcar width: 0
Storing dark spectrum: false
XAxis mode: Wavelengths
Number of Pixels in Spectrum: 1024
>>>>>Begin Spectral Data<<<<<
801.071	28074
801.214	28109
801.356	27732
801.499	27580
801.641	27557
801.783	27614
801.926	27641
802.068	27477
802.211	27488
802.353	27481
802.496	27386
802.638	27294
802.78	27275
802.923	27123
803.065	27180
803.208	27146
803.35	27370
803.492	27466
803.635	27405
803.777	27416
803.919	27466
804.061	27759
804.204	27477
804.346	27519
804.488	27374
804.63	27344
804.773	27412
804.915	27511
805.057	27629
805.199	27515
805.341	27603
805.483	27789
805.626	27591
805.768	27488
805.91	27557
806.052	27629
806.194	27420
806.336	27713
806.478	27530
806.62	27629
806.762	27682
806.904	27663
807.046	28074
807.188	28010
807.33	27941
807.472	28051
807.614	27983
807.756	27953
807.898	27914
808.04	27793
808.182	27903
808.324	27876
808.465	27846
808.607	28093
808.749	28344
808.891	28375
809.033	28485
809.174	28295
809.316	28257
809.458	28128
809.6	28192
809.741	28344
809.883	28352
810.025	28679
810.166	28538
810.308	28588
810.45	28379
810.591	28531
810.733	28386
810.875	28162
811.016	28097
811.158	28036
811.299	28333
811.441	28379
811.582	28497
811.724	28329
811.865	28196
812.007	28246
812.148	28169
812.29	28230
812.431	28478
812.573	28531
812.714	28641
812.855	28710
812.997	28790
813.138	29010
813.279	28885
813.421	28786
813.562	28618
813.703	28660
813.845	28535
813.986	28177
814.127	28120
814.268	27888
814.41	27964
814.551	27914
814.692	27888
814.833	27926
814.974	27903
815.115	27869
815.256	27770
815.397	27724
815.539	27755
815.68	27797
815.821	27561
815.962	27690
816.103	27732
816.244	27614
816.385	27481
816.526	27462
816.666	27393
816.807	27237
816.948	27355
817.089	27351
817.23	27313
817.371	27249
817.512	27332
817.653	27351
817.793	27066
817.934	27214
818.075	27222
818.216	27378
818.356	27131
818.497	27062
818.638	27165
818.778	26986
818.919	27119
819.06	27165
819.2	27005
819.341	27226
819.481	27230
819.622	27378
819.762	27492
819.903	27488
820.043	27469
820.184	27298
820.324	27405
820.465	27412
820.605	27332
820.746	27344
820.886	27184
821.026	27226
821.167	27412
821.307	27488
821.447	27184
821.588	27085
821.728	26986
821.868	27009
822.008	26746
822.149	26670
822.289	26746
822.429	26587
822.569	26389
822.709	26480
822.849	26233
822.99	26176
823.13	26161
823.27	26218
823.41	26092
823.55	25955
823.69	26005
823.83	26153
823.97	25974
824.11	25898
824.25	25917
824.389	25696
824.529	25944
824.669	25742
824.809	25982
824.949	25974
825.089	25906
825.228	25807
825.368	25734
825.508	25776
825.648	25689
825.787	25799
825.927	25803
826.067	25639
826.206	25693
826.346	25696
826.485	25681
826.625	25837
826.765	25799
826.904	25799
827.044	25502
827.183	25514
827.323	25502
827.462	25556
827.601	25506
827.741	25381
827.88	25552
828.02	25358
828.159	25419
828.298	25655
828.437	25502
828.577	25468
828.716	25601
828.855	25282
828.994	25103
829.134	25228
829.273	25194
829.412	25179
829.551	25091
829.69	25175
829.829	25232
829.968	25145
830.107	25274
830.246	25278
830.385	25152
830.524	25122
830.663	25000
830.802	24916
830.941	24837
831.08	24768
831.219	24859
831.357	24863
831.496	24943
831.635	24757
831.774	24825
831.913	24589
832.051	24604
832.19	24555
832.329	24760
832.467	24475
832.606	24460
832.744	24403
832.883	24448
833.022	24361
833.16	24540
833.299	24490
833.437	24559
833.576	24642
833.714	24490
833.852	24749
833.991	24509
834.129	24734
834.267	24620
834.406	24555
834.544	24760
834.682	24582
834.821	24494
834.959	24730
835.097	24456
835.235	24410
835.373	24540
835.511	24372
835.65	24232
835.788	24353
835.926	24209
836.064	24342
836.202	24228
836.34	24399
836.478	24502
836.615	24319
836.753	24296
836.891	24517
837.029	24445
837.167	24308
837.305	24247
837.443	24209
837.58	24190
837.718	24285
837.856	24186
837.993	24155
838.131	24270
838.269	24076
838.406	23942
838.544	23992
838.681	23885
838.819	23847
838.956	23653
839.094	23783
839.231	23729
839.369	23832
839.506	24034
839.643	23904
839.781	23547
839.918	23642
840.055	23604
840.193	23710
840.33	23570
840.467	23623
840.604	23695
840.742	23897
840.879	23440
841.016	23501
841.153	23501
841.29	23558
841.427	23604
841.564	23668
841.701	23649
841.838	23577
841.975	23497
842.112	23531
842.249	23391
842.385	23311
842.522	23448
842.659	23303
842.796	23235
842.933	23311
843.069	23322
843.206	23349
843.343	23471
843.479	23292
843.616	23307
843.752	23181
843.889	23140
844.025	23166
844.162	23105
844.298	23292
844.435	22976
844.571	23124
844.708	23086
844.844	23341
844.98	23311
845.117	23239
845.253	23083
845.389	23006
845.525	22987
845.661	22892
845.798	22812
845.934	22873
846.07	22889
846.206	22869
846.342	22968
846.478	22771
846.614	22664
846.75	22611
846.886	22584
847.022	22622
847.158	22561
847.294	22485
847.429	22641
847.565	22584
847.701	22839
847.837	22246
847.972	22363
848.108	22363
848.244	22451
848.379	22185
848.515	22200
848.65	22204
848.786	22166
848.921	22188
849.057	22253
849.192	22363
849.328	22265
849.463	22135
849.598	22109
849.734	22090
849.869	22112
850.004	21972
850.14	22025
850.275	21991
850.41	21793
850.545	21793
850.68	21934
850.815	22032
850.95	21956
851.085	22101
851.22	21960
851.355	21835
851.49	22002
851.625	21941
851.76	21762
851.895	21728
852.03	21892
852.165	21770
852.299	21934
852.434	21998
852.569	21979
852.703	21888
852.838	21953
852.973	22074
853.107	22036
853.242	21816
853.376	21785
853.511	21614
853.645	21625
853.78	21907
853.914	21785
854.048	21709
854.183	21827
854.317	21781
854.451	21888
854.585	21739
854.72	21774
854.854	21732
854.988	21682
855.122	21827
855.256	21610
855.39	21797
855.524	21808
855.658	21679
855.792	21789
855.926	21751
856.06	21743
856.194	21770
856.327	21663
856.461	21629
856.595	21606
856.729	21728
856.862	21800
856.996	21656
857.13	21774
857.263	21941
857.397	21892
857.53	21766
857.664	21724
857.797	21778
857.931	21937
858.064	21827
858.197	21850
858.331	21667
858.464	21720
858.597	21618
858.731	21698
858.864	21755
858.997	21663
859.13	21804
859.263	21724
859.396	21812
859.529	21770
859.662	21789
859.795	21606
859.928	21709
860.061	21835
860.194	21918
860.327	21686
860.46	21629
860.592	21831
860.725	22032
860.858	21789
860.99	21736
861.123	21622
861.256	21580
861.388	21797
861.521	22413
861.653	21603
861.786	21603
861.918	21511
862.05	21538
862.183	21580
862.315	21610
862.447	21759
862.58	21701
862.712	21473
862.844	21450
862.976	21561
863.108	21481
863.24	21736
863.372	21488
863.504	21443
863.636	21351
863.768	21435
863.9	21500
864.032	21348
864.164	21355
864.296	21496
864.428	21389
864.559	21534
864.691	21564
864.823	21519
864.954	21466
865.086	21408
865.217	21306
865.349	21192
865.48	21294
865.612	21245
865.743	21359
865.875	21359
866.006	21287
866.137	21291
866.269	21256
866.4	21317
866.531	21252
866.662	21249
866.793	21237
866.924	21313
867.055	21268
867.186	21268
867.317	21226
867.448	21131
867.579	21264
867.71	21199
867.841	21135
867.972	21332
868.103	21321
868.233	21287
868.364	21207
868.495	21302
868.625	21469
868.756	21568
868.886	21477
869.017	21382
869.147	21751
869.278	21652
869.408	21507
869.539	21538
869.669	21667
869.799	21580
869.929	21648
870.06	21622
870.19	21755
870.32	21800
870.45	21892
870.58	21918
870.71	21934
870.84	22029
870.97	21888
871.1	21915
871.23	22109
871.36	22112
871.489	21922
871.619	22105
871.749	21979
871.879	22147
872.008	22242
872.138	22093
872.267	22101
872.397	22025
872.526	21941
872.656	21804
872.785	21972
872.915	22124
873.044	22150
873.173	22074
873.303	22105
873.432	22105
873.561	22158
873.69	22143
873.819	22112
873.948	22322
874.077	22135
874.206	22036
874.335	22032
874.464	22200
874.593	22409
874.722	22337
874.851	22310
874.979	22344
875.108	22405
875.237	22303
875.365	22204
875.494	22177
875.623	22440
875.751	22398
875.88	22303
876.008	22436
876.136	22436
876.265	22698
876.393	22793
876.521	22812
876.65	22911
876.778	22713
876.906	22607
877.034	22679
877.162	22713
877.29	22649
877.418	22611
877.546	22736
877.674	22656
877.802	22596
877.93	22774
878.058	22580
878.185	22637
878.313	22664
878.441	22622
878.568	22497
878.696	22573
878.824	22729
878.951	22710
879.079	22854
879.206	22923
879.333	22820
879.461	22782
879.588	22881
879.715	22740
879.842	23014
879.97	22729
880.097	22451
880.224	22626
880.351	22459
880.478	22592
880.605	22428
880.732	22432
880.859	22664
880.986	22504
881.112	22485
881.239	22249
881.366	22356
881.493	22120
881.619	22025
881.746	22128
881.872	22101
881.999	22109
882.125	22074
882.252	22063
882.378	22143
882.505	22010
882.631	21991
882.757	21698
882.883	21827
883.01	21804
883.136	21701
883.262	21732
883.388	21511
883.514	21762
883.64	21781
883.766	21644
883.892	21526
884.018	21530
884.143	21770
884.269	21698
884.395	21568
884.52	21374
884.646	21428
884.772	21321
884.897	21332
885.023	21431
885.148	21458
885.274	21713
885.399	21420
885.524	21283
885.65	21420
885.775	21412
885.9	21435
886.025	21545
886.15	21496
886.275	21321
886.4	21306
886.525	21435
886.65	21351
886.775	21214
886.9	21351
887.025	21641
887.149	21245
887.274	21195
887.399	21245
887.523	21275
887.648	21154
887.773	21051
887.897	21199
888.021	21214
888.146	21077
888.27	21241
888.395	21325
888.519	21268
888.643	21203
888.767	21169
888.891	21142
889.015	21028
889.139	21028
889.263	20902
889.387	20948
889.511	21169
889.635	20975
889.759	20853
889.883	21009
890.006	20925
890.13	21058
890.254	20872
890.377	20895
890.501	20632
890.624	20678
890.748	20773
890.871	20590
890.995	20522
891.118	20404
891.241	20575
891.364	20480
891.488	20579
891.611	20469
891.734	20484
891.857	20594
891.98	20484
892.103	20560
892.226	20488
892.349	20560
892.471	20465
892.594	20480
892.717	20290
892.839	20358
892.962	20400
893.085	20575
893.207	20423
893.33	20389
893.452	20419
893.575	20518
893.697	20499
893.819	20492
893.941	20663
894.064	20549
894.186	20294
894.308	20381
894.43	20389
894.552	20575
894.674	20583
894.796	20370
894.918	20400
895.04	20309
895.161	20457
895.283	20473
895.405	20313
895.526	20377
895.648	20415
895.769	20469
895.891	20446
896.012	20507
896.134	20301
896.255	20427
896.376	20427
896.498	20419
896.619	20492
896.74	20305
896.861	20457
896.982	20834
897.103	20804
897.224	20651
897.345	20556
897.466	20530
897.587	20651
897.708	20743
897.828	20632
897.949	20533
898.07	20389
898.19	20469
898.311	20598
898.431	20564
898.552	20571
898.672	20594
898.792	20678
898.913	20674
899.033	20461
899.153	20324
899.273	20381
899.393	20434
899.513	20374
899.633	20313
899.753	20237
899.873	20343
899.993	20347
900.113	20347
900.232	20263
900.352	20187
900.472	20145
900.591	20130
900.711	20145
900.83	20119
900.95	20180
901.069	20229
901.189	20024
901.308	19807
901.427	19811
901.546	19712
901.665	19765
901.784	19753
901.904	19537
902.023	19392
902.141	19266
902.26	19289
902.379	19343
902.498	19110
902.617	19270
902.735	19236
902.854	19259
902.973	19076
903.091	18833
903.21	18848
903.328	18776
903.446	18757
903.565	18692
903.683	18681
903.801	18623
903.919	18715
904.038	18635
904.156	18540
904.274	18585
904.392	18399
904.51	18437
904.627	18475
904.745	18479
904.863	18555
904.981	18243
905.098	18163
905.216	18125
905.334	18163
905.451	18174
905.569	18083
905.686	18178
905.803	18091
905.921	17885
906.038	18049
906.155	17980
906.272	17859
906.389	17798
906.506	17729
906.623	17661
906.74	17657
906.857	17528
906.974	17490
907.091	17699
907.208	17718
907.324	17771
907.441	17493
907.557	17436
907.674	17417
907.79	17353
907.907	17406
908.023	17417
908.139	17372
908.256	17307
908.372	17239
908.488	17220
908.604	17105
908.72	17086
908.836	17060
908.952	17200
909.068	17170
909.184	17166
909.3	17083
909.415	17048
909.531	16976
909.647	16877
909.762	16881
909.878	16786
909.993	16748
910.108	16683
910.224	16847
910.339	16793
910.454	16664
910.57	16519
910.685	16519
910.8	16755
910.915	16793
911.03	16573
911.145	16459
911.259	16428
911.374	16398
911.489	16234
911.604	16261
911.718	16154
911.833	16147
911.947	16048
912.062	15991
912.176	16032
912.291	16101
912.405	16143
912.519	16295
912.633	16291
912.748	16181
912.862	16093
912.976	15930
913.09	15759
913.204	15975
913.318	15934
913.431	16013
913.545	16048
913.659	16002
913.772	15804
913.886	15755
914	15816
914.113	15804
914.226	15793
914.34	15778
914.453	15648
914.566	15759
914.68	15644
914.793	15599
914.906	15378
915.019	15325
915.132	15340
915.245	15245
915.358	15237
915.47	15351
915.583	15336
915.696	15329
915.809	15367
915.921	15462
916.034	15283
916.146	15260
916.259	15180
916.371	15233
916.483	15264
916.595	15180
916.708	15127
916.82	15161
916.932	15070
917.044	15104
917.156	15116
917.268	15089
917.38	15051
917.491	14963
917.603	15017
917.715	14994
917.826	15062
917.938	14933
918.049	14838
918.161	15009
918.272	14998
918.384	15047
918.495	14876
918.606	14773
918.717	14727
918.828	14853
918.939	14788
919.05	14659
919.161	14727
919.272	14514
919.383	14514
919.494	14693
919.604	14910
919.715	14708
919.826	14648
919.936	14678
920.047	14750
920.157	14705
920.267	14769
920.378	14648
920.488	14640
920.598	14807
920.708	14994
920.818	14735
920.928	14823
921.038	14967
921.148	14921
921.258	14762
921.368	14613
921.477	14423
921.587	14480
921.697	14298
921.806	14465
921.916	14317
922.025	14233
922.134	13963
922.244	14039
922.353	14157
922.462	13811
922.571	13864
922.68	13788
922.789	13681
922.898	13696
923.007	13601
923.116	13757
923.224	13639
923.333	13738
923.442	13575
923.55	13518
923.659	13529
923.767	13620
923.876	13491
923.984	13670
924.092	13434
924.201	13460
924.309	13339
924.417	13499
924.525	13453
924.633	13263
924.741	14191
924.849	13110
924.956	13358
925.064	13263
925.172	13019
925.279	13175
925.387	13126
925.494	13069
925.602	13251
925.709	13152
925.816	13057
925.924	13088
926.031	13156
926.138	13053
926.245	13088
926.352	12901
926.459	13012
926.566	13038
926.673	13038
926.779	12958
926.886	12833
926.993	12806
927.099	12681
927.206	12563
927.312	12658
927.419	12635
927.525	12658
927.631	12658
927.737	12532
927.843	12528
927.95	12323
928.056	12585
928.162	12540
928.267	12650
928.373	13099
928.479	12566
928.585	12304
928.69	12456
928.796	12486
928.901	12391
929.007	12311
929.112	12235
929.218	12323
929.323	12209
929.428	12243
929.533	12281
929.638	12152
929.743	12178
929.848	12190
929.953	12186
930.058	12129
930.163	11942
930.267	12015
930.372	12068
930.477	11904
930.581	12015
930.685	11901
930.79	11817
930.894	11840
930.998	11695
931.103	11828
931.207	11505
931.311	11535
931.415	11425
931.519	11132
931.623	11170
