Data from test_V78500241_937.txt Node
Date: Fri Mar 25 15:16:22 CST 2022
User: usil
Spectrometer: V785-0024
Trigger mode: 0
Integration Time (sec): 4.000000E-1
Scans to average: 1
Nonlinearity correction enabled: false
Boxcar width: 0
Storing dark spectrum: false
XAxis mode: Wavelengths
Number of Pixels in Spectrum: 1024
>>>>>Begin Spectral Data<<<<<
801.071	27629
801.214	27587
801.356	27458
801.499	27275
801.641	27093
801.783	27180
801.926	27089
802.068	27173
802.211	27039
802.353	26982
802.496	26830
802.638	26796
802.78	26792
802.923	26826
803.065	26800
803.208	26807
803.35	26807
803.492	26864
803.635	26952
803.777	26781
803.919	27154
804.061	27294
804.204	27017
804.346	26956
804.488	26857
804.63	26971
804.773	26899
804.915	26998
805.057	27112
805.199	26998
805.341	27138
805.483	27222
805.626	27173
805.768	26853
805.91	27070
806.052	27203
806.194	27066
806.336	27222
806.478	27211
806.62	27188
806.762	27325
806.904	27393
807.046	27606
807.188	27603
807.33	27473
807.472	27564
807.614	27386
807.756	27427
807.898	27469
808.04	27382
808.182	27405
808.324	27340
808.465	27416
808.607	27625
808.749	27846
808.891	27816
809.033	27914
809.174	27907
809.316	27732
809.458	27812
809.6	27846
809.741	27827
809.883	28029
810.025	27972
810.166	28128
810.308	27994
810.45	28036
810.591	28055
810.733	27720
810.875	27690
811.016	27667
811.158	27709
811.299	27930
811.441	27922
811.582	27884
811.724	27781
811.865	27755
812.007	27778
812.148	27785
812.29	27797
812.431	27808
812.573	28280
812.714	28268
812.855	28188
812.997	28375
813.138	28550
813.279	28489
813.421	28333
813.562	28272
813.703	28158
813.845	27918
813.986	27766
814.127	27538
814.268	27401
814.41	27443
814.551	27359
814.692	27458
814.833	27458
814.974	27450
815.115	27405
815.256	27367
815.397	27374
815.539	27344
815.68	27211
815.821	27211
815.962	27192
816.103	27180
816.244	27096
816.385	27093
816.526	26887
816.666	26788
816.807	26868
816.948	26853
817.089	26887
817.23	26963
817.371	26686
817.512	26674
817.653	26724
817.793	26739
817.934	26735
818.075	26815
818.216	26781
818.356	26750
818.497	26492
818.638	26579
818.778	26568
818.919	26469
819.06	26564
819.2	26701
819.341	26785
819.481	26712
819.622	26788
819.762	26998
819.903	26940
820.043	26975
820.184	26826
820.324	26811
820.465	26883
820.605	27028
820.746	26906
820.886	26838
821.026	26811
821.167	26849
821.307	26929
821.447	26800
821.588	26693
821.728	26598
821.868	26381
822.008	26187
822.149	26153
822.289	26172
822.429	26027
822.569	25928
822.709	25936
822.849	25890
822.99	25753
823.13	25750
823.27	25586
823.41	25624
823.55	25422
823.69	25411
823.83	25616
823.97	25369
824.11	25285
824.25	25278
824.389	25384
824.529	25483
824.669	25285
824.809	25582
824.949	25483
825.089	25472
825.228	25472
825.368	25278
825.508	25396
825.648	25274
825.787	25168
825.927	25285
826.067	25145
826.206	25168
826.346	25327
826.485	25369
826.625	25247
826.765	25384
826.904	25358
827.044	25038
827.183	25008
827.323	25057
827.462	25103
827.601	25050
827.741	25038
827.88	25084
828.02	24825
828.159	24962
828.298	24977
828.437	25027
828.577	25027
828.716	24977
828.855	24966
828.994	24593
829.134	24578
829.273	24623
829.412	24635
829.551	24661
829.69	24585
829.829	24665
829.968	24768
830.107	24673
830.246	24665
830.385	24547
830.524	24582
830.663	24445
830.802	24353
830.941	24395
831.08	24159
831.219	24490
831.357	24311
831.496	24627
831.635	24262
831.774	24239
831.913	24228
832.051	24083
832.19	24018
832.329	23977
832.467	23863
832.606	23904
832.744	23958
832.883	24003
833.022	23870
833.16	23980
833.299	24045
833.437	23973
833.576	23984
833.714	24018
833.852	24038
833.991	24045
834.129	24159
834.267	24087
834.406	24133
834.544	24060
834.682	23992
834.821	23996
834.959	24209
835.097	23897
835.235	24064
835.373	24076
835.511	23973
835.65	23973
835.788	23847
835.926	23745
836.064	23623
836.202	23703
836.34	23748
836.478	23965
836.615	23745
836.753	23916
836.891	23931
837.029	23863
837.167	23840
837.305	23718
837.443	23760
837.58	23752
837.718	23779
837.856	23767
837.993	23642
838.131	23642
838.269	23551
838.406	23611
838.544	23554
838.681	23341
838.819	23280
838.956	23288
839.094	23136
839.231	23250
839.369	23429
839.506	23512
839.643	23303
839.781	23067
839.918	23124
840.055	23121
840.193	23166
840.33	23147
840.467	23067
840.604	23105
840.742	23345
840.879	23105
841.016	22942
841.153	23086
841.29	23067
841.427	23181
841.564	23162
841.701	23174
841.838	22972
841.975	23041
842.112	23048
842.249	22896
842.385	22904
842.522	23067
842.659	22881
842.796	22805
842.933	22953
843.069	22858
843.206	22767
843.343	22995
843.479	22889
843.616	22866
843.752	22653
843.889	22771
844.025	22725
844.162	22615
844.298	22729
844.435	22740
844.571	22713
844.708	22626
844.844	22820
844.98	22691
845.117	22790
845.253	22675
845.389	22546
845.525	22489
845.661	22588
845.798	22497
845.934	22462
846.07	22291
846.206	22428
846.342	22641
846.478	22398
846.614	22154
846.75	21994
846.886	21994
847.022	22147
847.158	22177
847.294	22010
847.429	22230
847.565	22029
847.701	22196
847.837	21850
847.972	21861
848.108	21960
848.244	21930
848.379	21629
848.515	21663
848.65	21717
848.786	21675
848.921	21641
849.057	21907
849.192	21789
849.328	21797
849.463	21629
849.598	21728
849.734	21561
849.869	21542
850.004	21519
850.14	21481
850.275	21424
850.41	21359
850.545	21564
850.68	21542
850.815	21386
850.95	21614
851.085	21557
851.22	21557
851.355	21485
851.49	21462
851.625	21492
851.76	21408
851.895	21260
852.03	21321
852.165	21340
852.299	21629
852.434	21553
852.569	21561
852.703	21439
852.838	21507
852.973	21652
853.107	21504
853.242	21405
853.376	21332
853.511	21142
853.645	21344
853.78	21252
853.914	21302
854.048	21260
854.183	21256
854.317	21279
854.451	21488
854.585	21302
854.72	21256
854.854	21374
854.988	21180
855.122	21298
855.256	21055
855.39	21264
855.524	21367
855.658	21405
855.792	21302
855.926	21138
856.06	21310
856.194	21408
856.327	21298
856.461	21298
856.595	21062
856.729	21317
856.862	21329
856.996	21272
857.13	21473
857.263	21405
857.397	21450
857.53	21264
857.664	21241
857.797	21283
857.931	21386
858.064	21325
858.197	21424
858.331	21165
858.464	21173
858.597	21146
858.731	21264
858.864	21268
858.997	21256
859.13	21321
859.263	21214
859.396	21329
859.529	21192
859.662	21199
859.795	21249
859.928	21275
860.061	21412
860.194	21374
860.327	21321
860.46	21363
860.592	21374
860.725	21363
860.858	21382
860.99	21237
861.123	21287
861.256	21249
861.388	21317
861.521	22074
861.653	20990
861.786	21116
861.918	21161
862.05	21192
862.183	21119
862.315	21245
862.447	21275
862.58	21173
862.712	21005
862.844	20921
862.976	21112
863.108	21062
863.24	21389
863.372	20910
863.504	20986
863.636	21013
863.768	21032
863.9	21138
864.032	20952
864.164	20986
864.296	20971
864.428	21070
864.559	21127
864.691	21047
864.823	21051
864.954	20967
865.086	20857
865.217	20887
865.349	20902
865.48	20807
865.612	20899
865.743	21009
865.875	21089
866.006	20842
866.137	20769
866.269	20914
866.4	20872
866.531	20842
866.662	20918
866.793	20853
866.924	20819
867.055	20849
867.186	20910
867.317	20762
867.448	20758
867.579	20880
867.71	20712
867.841	20693
867.972	20845
868.103	20724
868.233	20895
868.364	20906
868.495	20929
868.625	21093
868.756	21081
868.886	20960
869.017	21085
869.147	21211
869.278	21184
869.408	21218
869.539	21089
869.669	21100
869.799	21192
869.929	21184
870.06	21161
870.19	21344
870.32	21313
870.45	21256
870.58	21412
870.71	21580
870.84	21633
870.97	21515
871.1	21515
871.23	21675
871.36	21622
871.489	21618
871.619	21595
871.749	21663
871.879	21694
872.008	21739
872.138	21747
872.267	21690
872.397	21504
872.526	21389
872.656	21473
872.785	21515
872.915	21656
873.044	21831
873.173	21732
873.303	21789
873.432	21785
873.561	21762
873.69	21698
873.819	21587
873.948	21812
874.077	21583
874.206	21656
874.335	21637
874.464	21675
874.593	21816
874.722	21861
874.851	21842
874.979	21884
875.108	21861
875.237	21953
875.365	21895
875.494	21876
875.623	21937
875.751	21972
875.88	22036
876.008	22105
876.136	22044
876.265	22360
876.393	22310
876.521	22371
876.65	22348
876.778	22287
876.906	22234
877.034	22306
877.162	22280
877.29	22276
877.418	22166
877.546	22276
877.674	22200
877.802	22188
877.93	22219
878.058	22128
878.185	22044
878.313	22207
878.441	22238
878.568	22143
878.696	22139
878.824	22325
878.951	22318
879.079	22303
879.206	22527
879.333	22394
879.461	22333
879.588	22413
879.715	22402
879.842	22577
879.97	22329
880.097	22067
880.224	22025
880.351	22048
880.478	22101
880.605	22002
880.732	22158
880.859	22234
880.986	22135
881.112	22082
881.239	21880
881.366	21785
881.493	21614
881.619	21599
881.746	21743
881.872	21572
881.999	21641
882.125	21644
882.252	21652
882.378	21603
882.505	21819
882.631	21458
882.757	21317
882.883	21420
883.01	21344
883.136	21287
883.262	21119
883.388	21062
883.514	21416
883.64	21332
883.766	21291
883.892	21081
884.018	21283
884.143	21279
884.269	21469
884.395	21116
884.52	20986
884.646	20990
884.772	20899
884.897	20853
885.023	21020
885.148	21203
885.274	21131
885.399	21150
885.524	20971
885.65	21051
885.775	21013
885.9	20880
886.025	21119
886.15	21138
886.275	20895
886.4	20853
886.525	20800
886.65	20929
886.775	20971
886.9	21028
887.025	21207
887.149	20952
887.274	20800
887.399	20842
887.523	20712
887.648	20716
887.773	20689
887.897	20880
888.021	20830
888.146	20746
888.27	20853
888.395	20998
888.519	20712
888.643	20857
888.767	20648
888.891	20689
889.015	20632
889.139	20739
889.263	20549
889.387	20682
889.511	20731
889.635	20629
889.759	20655
889.883	20518
890.006	20640
890.13	20708
890.254	20431
890.377	20617
890.501	20347
890.624	20301
890.748	20339
890.871	20267
890.995	20161
891.118	19940
891.241	20218
891.364	20153
891.488	20248
891.611	20119
891.734	20172
891.857	20240
891.98	20164
892.103	20210
892.226	20126
892.349	20149
892.471	19890
892.594	20008
892.717	20062
892.839	19963
892.962	20115
893.085	20062
893.207	20088
893.33	19898
893.452	20012
893.575	20069
893.697	20012
893.819	20202
893.941	20275
894.064	20153
894.186	20005
894.308	19921
894.43	20092
894.552	20138
894.674	20054
894.796	19997
894.918	19986
895.04	20142
895.161	20043
895.283	20069
895.405	19936
895.526	19978
895.648	19982
895.769	20046
895.891	20008
896.012	20157
896.134	20081
896.255	20081
896.376	20039
896.498	20126
896.619	20077
896.74	20115
896.861	20115
896.982	20343
897.103	20495
897.224	20313
897.345	20237
897.466	20240
897.587	20202
897.708	20396
897.828	20305
897.949	20054
898.07	20138
898.19	20206
898.311	20298
898.431	20172
898.552	20252
898.672	20309
898.792	20434
898.913	20195
899.033	20107
899.153	19986
899.273	19830
899.393	20008
899.513	20138
899.633	19993
899.753	19925
899.873	19970
899.993	20073
900.113	19826
900.232	19944
900.352	19902
900.472	19788
900.591	19772
900.711	19913
900.83	19742
900.95	19807
901.069	19803
901.189	19734
901.308	19514
901.427	19381
901.546	19480
901.665	19400
901.784	19354
901.904	19350
902.023	19137
902.141	19000
902.26	18943
902.379	18962
902.498	18829
902.617	18844
902.735	18928
902.854	18833
902.973	18844
903.091	18608
903.21	18547
903.328	18536
903.446	18551
903.565	18376
903.683	18418
903.801	18270
903.919	18350
904.038	18315
904.156	18133
904.274	18167
904.392	18239
904.51	18026
904.627	18194
904.745	18098
904.863	18098
904.981	18041
905.098	17901
905.216	17802
905.334	17939
905.451	17843
905.569	17760
905.686	17805
905.803	17817
905.921	17623
906.038	17611
906.155	17619
906.272	17566
906.389	17482
906.506	17220
906.623	17414
906.74	17372
906.857	17246
906.974	17269
907.091	17402
907.208	17440
907.324	17303
907.441	17337
907.557	17147
907.674	17109
907.79	17025
907.907	17098
908.023	17033
908.139	16923
908.256	16984
908.372	17022
908.488	16915
908.604	16820
908.72	16717
908.836	16850
908.952	16816
909.068	16759
909.184	16942
909.3	16820
909.415	16759
909.531	16828
909.647	16546
909.762	16584
909.878	16512
909.993	16546
910.108	16538
910.224	16390
910.339	16432
910.454	16367
910.57	16299
910.685	16341
910.8	16535
910.915	16421
911.03	16382
911.145	16101
911.259	16036
911.374	16082
911.489	16025
911.604	16010
911.718	15781
911.833	15819
911.947	15705
912.062	15663
912.176	15827
912.291	15831
912.405	15728
912.519	15930
912.633	15998
912.748	15762
912.862	15759
912.976	15656
913.09	15663
913.204	15679
913.318	15644
913.431	15694
913.545	15698
913.659	15694
913.772	15549
913.886	15469
914	15435
914.113	15542
914.226	15561
914.34	15477
914.453	15237
914.566	15466
914.68	15378
914.793	15344
914.906	15123
915.019	15142
915.132	14967
915.245	15070
915.358	15043
915.47	15089
915.583	15001
915.696	15074
915.809	15218
915.921	15199
916.034	15005
916.146	14925
916.259	14986
916.371	14929
916.483	14937
916.595	14849
916.708	14914
916.82	14819
916.932	14811
917.044	14823
917.156	14800
917.268	14735
917.38	14697
917.491	14731
917.603	14663
917.715	14762
917.826	14754
917.938	14659
918.049	14526
918.161	14651
918.272	14807
918.384	14811
918.495	14705
918.606	14412
918.717	14530
918.828	14503
918.939	14488
919.05	14400
919.161	14499
919.272	14301
919.383	14286
919.494	14518
919.604	14682
919.715	14427
919.826	14358
919.936	14434
920.047	14476
920.157	14446
920.267	14594
920.378	14396
920.488	14541
920.598	14629
920.708	14724
920.818	14530
920.928	14564
921.038	14651
921.148	14621
921.258	14446
921.368	14298
921.477	14153
921.587	14164
921.697	14027
921.806	14256
921.916	14046
922.025	13860
922.134	13822
922.244	13795
922.353	13921
922.462	13704
922.571	13639
922.68	13426
922.789	13422
922.898	13411
923.007	13438
923.116	13476
923.224	13415
923.333	13426
923.442	13285
923.55	13259
923.659	13278
923.767	13369
923.876	13259
923.984	13251
924.092	13156
924.201	13225
924.309	13232
924.417	13198
924.525	13099
924.633	13152
924.741	14100
924.849	12962
924.956	13194
925.064	12939
925.172	12901
925.279	12924
925.387	12913
925.494	12897
925.602	13057
925.709	13008
925.816	12776
925.924	12787
926.031	12954
926.138	12791
926.245	12859
926.352	12753
926.459	12837
926.566	12867
926.673	12684
926.779	12604
926.886	12593
926.993	12525
927.099	12490
927.206	12391
927.312	12426
927.419	12410
927.525	12456
927.631	12517
927.737	12403
927.843	12296
927.95	12159
928.056	12308
928.162	12281
928.267	12300
928.373	12913
928.479	12388
928.585	12140
928.69	12254
928.796	12247
928.901	12087
929.007	11977
929.112	12091
929.218	12144
929.323	12019
929.428	11942
929.533	12102
929.638	11904
929.743	11961
929.848	12083
929.953	11950
930.058	11878
930.163	11752
930.267	11646
930.372	11828
930.477	11638
930.581	11927
930.685	11638
930.79	11600
930.894	11638
930.998	11611
931.103	11688
931.207	11364
931.311	11429
931.415	11204
931.519	10862
931.623	10934
