Data from test_V78500241_220.txt Node
Date: Fri Mar 25 15:11:23 CST 2022
User: usil
Spectrometer: V785-0024
Trigger mode: 0
Integration Time (sec): 4.000000E-1
Scans to average: 1
Nonlinearity correction enabled: false
Boxcar width: 0
Storing dark spectrum: false
XAxis mode: Wavelengths
Number of Pixels in Spectrum: 1024
>>>>>Begin Spectral Data<<<<<
801.071	27739
801.214	27724
801.356	27507
801.499	27367
801.641	27211
801.783	27241
801.926	27226
802.068	27287
802.211	27039
802.353	27108
802.496	26944
802.638	26952
802.78	26823
802.923	26925
803.065	26811
803.208	26823
803.35	26811
803.492	26960
803.635	27032
803.777	26830
803.919	26963
804.061	27336
804.204	27001
804.346	26975
804.488	26727
804.63	26952
804.773	26785
804.915	26933
805.057	27043
805.199	27005
805.341	26967
805.483	26960
805.626	26979
805.768	26880
805.91	27051
806.052	27207
806.194	26952
806.336	27207
806.478	27036
806.62	26994
806.762	27154
806.904	27218
807.046	27447
807.188	27374
807.33	27454
807.472	27454
807.614	27393
807.756	27291
807.898	27416
808.04	27226
808.182	27116
808.324	27260
808.465	27188
808.607	27405
808.749	27523
808.891	27622
809.033	27846
809.174	27686
809.316	27614
809.458	27595
809.6	27435
809.741	27800
809.883	27713
810.025	27945
810.166	27823
810.308	27983
810.45	27698
810.591	27679
810.733	27644
810.875	27675
811.016	27363
811.158	27363
811.299	27648
811.441	27701
811.582	27504
811.724	27515
811.865	27466
812.007	27576
812.148	27435
812.29	27572
812.431	27641
812.573	27865
812.714	27903
812.855	28002
812.997	28025
813.138	28154
813.279	28131
813.421	27895
813.562	28082
813.703	27835
813.845	27709
813.986	27393
814.127	27389
814.268	27291
814.41	27230
814.551	26986
814.692	27374
814.833	27085
814.974	27062
815.115	27218
815.256	26971
815.397	26918
815.539	27001
815.68	26906
815.821	26826
815.962	26979
816.103	26948
816.244	26678
816.385	26651
816.526	26636
816.666	26476
816.807	26400
816.948	26355
817.089	26453
817.23	26252
817.371	26328
817.512	26275
817.653	26263
817.793	26286
817.934	26191
818.075	26267
818.216	26309
818.356	26377
818.497	26054
818.638	25921
818.778	26088
818.919	26039
819.06	26065
819.2	26058
819.341	26290
819.481	26130
819.622	26511
819.762	26602
819.903	26533
820.043	26400
820.184	26263
820.324	26244
820.465	26412
820.605	26301
820.746	26343
820.886	26240
821.026	26389
821.167	26385
821.307	26446
821.447	26180
821.588	26100
821.728	26096
821.868	25883
822.008	25734
822.149	25746
822.289	25689
822.429	25441
822.569	25324
822.709	25343
822.849	25168
822.99	25171
823.13	25160
823.27	25118
823.41	25137
823.55	24886
823.69	25004
823.83	24882
823.97	24939
824.11	24916
824.25	24806
824.389	24848
824.529	24871
824.669	24863
824.809	24867
824.949	24825
825.089	24992
825.228	24821
825.368	24631
825.508	24669
825.648	24719
825.787	24627
825.927	24844
826.067	24559
826.206	24555
826.346	24665
826.485	24532
826.625	24601
826.765	24612
826.904	24673
827.044	24346
827.183	24296
827.323	24308
827.462	24277
827.601	24338
827.741	24319
827.88	24350
828.02	24171
828.159	24414
828.298	24334
828.437	24330
828.577	24251
828.716	24372
828.855	24239
828.994	24022
829.134	24022
829.273	24171
829.412	23897
829.551	24011
829.69	23946
829.829	24102
829.968	24064
830.107	24076
830.246	23923
830.385	23882
830.524	23832
830.663	23779
830.802	23680
830.941	23596
831.08	23558
831.219	23649
831.357	23684
831.496	23866
831.635	23482
831.774	23452
831.913	23520
832.051	23402
832.19	23261
832.329	23284
832.467	23181
832.606	23280
832.744	23223
832.883	23220
833.022	23273
833.16	23292
833.299	23239
833.437	23227
833.576	23318
833.714	23326
833.852	23387
833.991	23269
834.129	23349
834.267	23284
834.406	23364
834.544	23299
834.682	23322
834.821	23174
834.959	23360
835.097	23109
835.235	23299
835.373	23387
835.511	23326
835.65	23048
835.788	23105
835.926	22965
836.064	22847
836.202	22839
836.34	23094
836.478	23193
836.615	23117
836.753	23239
836.891	23208
837.029	23162
837.167	23143
837.305	22987
837.443	22915
837.58	22938
837.718	22946
837.856	22930
837.993	22866
838.131	22968
838.269	22850
838.406	22820
838.544	22740
838.681	22672
838.819	22451
838.956	22584
839.094	22417
839.231	22554
839.369	22584
839.506	22881
839.643	22679
839.781	22390
839.918	22329
840.055	22341
840.193	22459
840.33	22303
840.467	22295
840.604	22440
840.742	22531
840.879	22128
841.016	22318
841.153	22173
841.29	22451
841.427	22249
841.564	22341
841.701	22428
841.838	22310
841.975	22272
842.112	22238
842.249	22169
842.385	21991
842.522	22246
842.659	22029
842.796	22093
842.933	21994
843.069	21937
843.206	21998
843.343	22200
843.479	22002
843.616	22063
843.752	21743
843.889	21808
844.025	21960
844.162	21762
844.298	21922
844.435	21884
844.571	21694
844.708	21888
844.844	21945
844.98	21873
845.117	21911
845.253	21743
845.389	21705
845.525	21739
845.661	21751
845.798	21568
845.934	21568
846.07	21485
846.206	21591
846.342	21743
846.478	21492
846.614	21462
846.75	21180
846.886	21222
847.022	21313
847.158	21325
847.294	21374
847.429	21245
847.565	21268
847.701	21488
847.837	20998
847.972	20902
848.108	21024
848.244	21024
848.379	20842
848.515	20868
848.65	20834
848.786	20880
848.921	20921
849.057	20982
849.192	20902
849.328	20918
849.463	20792
849.598	20754
849.734	20655
849.869	20663
850.004	20564
850.14	20659
850.275	20678
850.41	20476
850.545	20514
850.68	20590
850.815	20609
850.95	20583
851.085	20663
851.22	20754
851.355	20682
851.49	20655
851.625	20602
851.76	20530
851.895	20533
852.03	20484
852.165	20560
852.299	20533
852.434	20689
852.569	20564
852.703	20552
852.838	20655
852.973	20720
853.107	20758
853.242	20526
853.376	20499
853.511	20259
853.645	20332
853.78	20507
853.914	20541
854.048	20434
854.183	20457
854.317	20324
854.451	20629
854.585	20351
854.72	20313
854.854	20480
854.988	20221
855.122	20419
855.256	20328
855.39	20446
855.524	20507
855.658	20461
855.792	20404
855.926	20377
856.06	20499
856.194	20552
856.327	20366
856.461	20358
856.595	20434
856.729	20366
856.862	20530
856.996	20469
857.13	20450
857.263	20473
857.397	20465
857.53	20343
857.664	20408
857.797	20438
857.931	20514
858.064	20332
858.197	20454
858.331	20385
858.464	20381
858.597	20355
858.731	20446
858.864	20324
858.997	20351
859.13	20206
859.263	20370
859.396	20408
859.529	20339
859.662	20309
859.795	20263
859.928	20423
860.061	20423
860.194	20484
860.327	20438
860.46	20351
860.592	20454
860.725	20606
860.858	20492
860.99	20286
861.123	20225
861.256	20385
861.388	20400
861.521	21047
861.653	20183
861.786	20069
861.918	20153
862.05	20301
862.183	20366
862.315	20366
862.447	20431
862.58	20271
862.712	19997
862.844	20001
862.976	20122
863.108	20176
863.24	20560
863.372	20027
863.504	20062
863.636	20077
863.768	20096
863.9	20043
864.032	19883
864.164	20020
864.296	20077
864.428	20149
864.559	20149
864.691	20058
864.823	20077
864.954	20100
865.086	20008
865.217	20058
865.349	19940
865.48	20001
865.612	19932
865.743	20134
865.875	19955
866.006	20046
866.137	20027
866.269	20050
866.4	20024
866.531	19890
866.662	19757
866.793	20012
866.924	19925
867.055	20031
867.186	19852
867.317	19791
867.448	19833
867.579	19875
867.71	19845
867.841	19837
867.972	19997
868.103	19799
868.233	19951
868.364	20058
868.495	20069
868.625	20161
868.756	20278
868.886	20058
869.017	20240
869.147	20339
869.278	20252
869.408	20218
869.539	20233
869.669	20229
869.799	20210
869.929	20332
870.06	20164
870.19	20400
870.32	20358
870.45	20480
870.58	20590
870.71	20644
870.84	20765
870.97	20537
871.1	20564
871.23	20739
871.36	20727
871.489	20651
871.619	20743
871.749	20697
871.879	20727
872.008	20853
872.138	20864
872.267	20777
872.397	20594
872.526	20587
872.656	20530
872.785	20552
872.915	20727
873.044	20834
873.173	20792
873.303	20781
873.432	20682
873.561	20925
873.69	20777
873.819	20861
873.948	20845
874.077	20739
874.206	20800
874.335	20811
874.464	20906
874.593	21047
874.722	21066
874.851	21077
874.979	20872
875.108	21070
875.237	20956
875.365	20933
875.494	21058
875.623	21058
875.751	20918
875.88	20960
876.008	21123
876.136	21169
876.265	21473
876.393	21622
876.521	21564
876.65	21485
876.778	21458
876.906	21329
877.034	21397
877.162	21382
877.29	21268
877.418	21447
877.546	21435
877.674	21336
877.802	21386
877.93	21359
878.058	21340
878.185	21348
878.313	21218
878.441	21428
878.568	21272
878.696	21405
878.824	21458
878.951	21450
879.079	21469
879.206	21675
879.333	21564
879.461	21450
879.588	21382
879.715	21538
879.842	21622
879.97	21412
880.097	21203
880.224	21104
880.351	21203
880.478	21203
880.605	21074
880.732	21138
880.859	21496
880.986	21184
881.112	21199
881.239	21051
881.366	20952
881.493	20861
881.619	20857
881.746	20887
881.872	20861
881.999	20701
882.125	20674
882.252	20807
882.378	20781
882.505	20876
882.631	20754
882.757	20545
882.883	20598
883.01	20457
883.136	20507
883.262	20324
883.388	20400
883.514	20514
883.64	20552
883.766	20415
883.892	20332
884.018	20290
884.143	20442
884.269	20587
884.395	20168
884.52	20218
884.646	20206
884.772	19951
884.897	20031
885.023	20084
885.148	20187
885.274	20282
885.399	20248
885.524	20168
885.65	20214
885.775	20096
885.9	20077
886.025	20252
886.15	20244
886.275	20168
886.4	20073
886.525	20126
886.65	20111
886.775	20096
886.9	20313
887.025	20309
887.149	20119
887.274	19989
887.399	19955
887.523	19940
887.648	19890
887.773	19845
887.897	19928
888.021	19826
888.146	19814
888.27	20031
888.395	20054
888.519	20062
888.643	19921
888.767	19955
888.891	19833
889.015	19753
889.139	19769
889.263	19700
889.387	19875
889.511	19906
889.635	19757
889.759	19605
889.883	19715
890.006	19742
890.13	19765
890.254	19776
890.377	19651
890.501	19381
890.624	19369
890.748	19419
890.871	19327
890.995	19278
891.118	19304
891.241	19335
891.364	19266
891.488	19438
891.611	19263
891.734	19320
891.857	19346
891.98	19266
892.103	19384
892.226	19320
892.349	19190
892.471	19236
892.594	19225
892.717	19221
892.839	19308
892.962	19190
893.085	19259
893.207	19270
893.33	19057
893.452	19160
893.575	19278
893.697	19282
893.819	19510
893.941	19407
894.064	19335
894.186	19080
894.308	19194
894.43	19434
894.552	19411
894.674	19297
894.796	19168
894.918	19202
895.04	19202
895.161	19388
895.283	19327
895.405	19061
895.526	19213
895.648	19228
895.769	19232
895.891	19289
896.012	19400
896.134	19266
896.255	19362
896.376	19190
896.498	19358
896.619	19331
896.74	19407
896.861	19343
896.982	19639
897.103	19655
897.224	19601
897.345	19628
897.466	19556
897.587	19586
897.708	19624
897.828	19480
897.949	19487
898.07	19312
898.19	19293
898.311	19544
898.431	19430
898.552	19411
898.672	19537
898.792	19525
898.913	19476
899.033	19308
899.153	19320
899.273	19164
899.393	19266
899.513	19240
899.633	19274
899.753	19263
899.873	19076
899.993	19251
900.113	19110
900.232	19251
900.352	19095
900.472	19031
900.591	18947
900.711	19118
900.83	18913
900.95	19114
901.069	19076
901.189	18993
901.308	18707
901.427	18612
901.546	18601
901.665	18585
901.784	18688
901.904	18547
902.023	18346
902.141	18117
902.26	18083
902.379	18296
902.498	18121
902.617	18022
902.735	18201
902.854	17977
902.973	18019
903.091	17836
903.21	17874
903.328	17843
903.446	17695
903.565	17630
903.683	17642
903.801	17436
903.919	17554
904.038	17577
904.156	17406
904.274	17471
904.392	17330
904.51	17383
904.627	17360
904.745	17334
904.863	17303
904.981	17189
905.098	17052
905.216	17014
905.334	17022
905.451	17014
905.569	16957
905.686	17060
905.803	17124
905.921	16896
906.038	16961
906.155	16873
906.272	16603
906.389	16706
906.506	16641
906.623	16554
906.74	16622
906.857	16466
906.974	16470
907.091	16679
907.208	16767
907.324	16645
907.441	16428
907.557	16322
907.674	16367
907.79	16280
907.907	16333
908.023	16242
908.139	16352
908.256	16166
908.372	16280
908.488	16246
908.604	15983
908.72	16013
908.836	16002
908.952	15994
909.068	16086
909.184	16074
909.3	15930
909.415	16040
909.531	16006
909.647	15831
909.762	15713
909.878	15679
909.993	15766
910.108	15663
910.224	15641
910.339	15709
910.454	15492
910.57	15545
910.685	15458
910.8	15694
910.915	15690
911.03	15633
911.145	15306
911.259	15344
911.374	15294
911.489	15214
911.604	15184
911.718	15036
911.833	15093
911.947	14937
912.062	14800
912.176	15009
912.291	14941
912.405	14971
912.519	15180
912.633	15161
912.748	15112
912.862	15009
912.976	14982
913.09	14731
913.204	14708
913.318	14902
913.431	14914
913.545	15043
913.659	14944
913.772	14811
913.886	14697
914	14663
914.113	14785
914.226	14731
914.34	14826
914.453	14583
914.566	14746
914.68	14541
914.793	14545
914.906	14370
915.019	14339
915.132	14252
915.245	14320
915.358	14465
915.47	14385
915.583	14393
915.696	14419
915.809	14511
915.921	14431
916.034	14286
916.146	14256
916.259	14214
916.371	14370
916.483	14240
916.595	14183
916.708	14248
916.82	14305
916.932	14180
917.044	14077
917.156	14084
917.268	13993
917.38	14031
917.491	13902
917.603	14031
917.715	14130
917.826	14100
917.938	13947
918.049	13902
918.161	13887
918.272	14107
918.384	14138
918.495	14020
918.606	13791
918.717	13719
918.828	13860
918.939	13856
919.05	13769
919.161	13765
919.272	13605
919.383	13658
919.494	13868
919.604	13947
919.715	13769
919.826	13605
919.936	13674
920.047	13704
920.157	13757
920.267	13906
920.378	13776
920.488	13658
920.598	13906
920.708	14001
920.818	13788
920.928	13902
921.038	13993
921.148	14096
921.258	13753
921.368	13590
921.477	13521
921.587	13476
921.697	13320
921.806	13434
921.916	13415
922.025	13175
922.134	13164
922.244	13072
922.353	13194
922.462	13023
922.571	12985
922.68	12779
922.789	12821
922.898	12787
923.007	12692
923.116	12764
923.224	12745
923.333	12776
923.442	12635
923.55	12620
923.659	12589
923.767	12665
923.876	12547
923.984	12608
924.092	12460
924.201	12593
924.309	12525
924.417	12547
924.525	12521
924.633	12490
924.741	13240
924.849	12407
924.956	12403
925.064	12270
925.172	12266
925.279	12251
925.387	12350
925.494	12224
925.602	12353
925.709	12338
925.816	12175
925.924	12159
926.031	12235
926.138	12163
926.245	12178
926.352	12133
926.459	12228
926.566	12239
926.673	12175
926.779	12072
926.886	11973
926.993	12007
927.099	11836
927.206	11828
927.312	11813
927.419	11901
927.525	11794
927.631	11878
927.737	11665
927.843	11661
927.95	11615
928.056	11748
928.162	11668
928.267	11798
928.373	12369
928.479	11703
928.585	11421
928.69	11672
928.796	11630
928.901	11509
929.007	11398
929.112	11505
929.218	11452
929.323	11433
929.428	11433
929.533	11505
929.638	11391
929.743	11372
929.848	11398
929.953	11398
930.058	11189
930.163	11113
930.267	11132
930.372	11269
930.477	11056
930.581	11368
930.685	11124
930.79	10991
930.894	11033
930.998	10976
931.103	11064
931.207	10706
931.311	10668
931.415	10630
931.519	10390
931.623	10432
