Data from test_V78500241_100.txt Node
Date: Fri Mar 25 15:10:33 CST 2022
User: usil
Spectrometer: V785-0024
Trigger mode: 0
Integration Time (sec): 4.000000E-1
Scans to average: 1
Nonlinearity correction enabled: false
Boxcar width: 0
Storing dark spectrum: false
XAxis mode: Wavelengths
Number of Pixels in Spectrum: 1024
>>>>>Begin Spectral Data<<<<<
801.071	28280
801.214	28318
801.356	28074
801.499	28021
801.641	27766
801.783	27770
801.926	27831
802.068	27743
802.211	27679
802.353	27599
802.496	27545
802.638	27462
802.78	27424
802.923	27355
803.065	27264
803.208	27374
803.35	27447
803.492	27469
803.635	27530
803.777	27393
803.919	27450
804.061	27850
804.204	27648
804.346	27367
804.488	27458
804.63	27405
804.773	27252
804.915	27542
805.057	27447
805.199	27405
805.341	27568
805.483	27557
805.626	27583
805.768	27488
805.91	27542
806.052	27553
806.194	27450
806.336	27720
806.478	27561
806.62	27511
806.762	27587
806.904	27717
807.046	27934
807.188	27846
807.33	27880
807.472	27937
807.614	27823
807.756	27850
807.898	27747
808.04	27724
808.182	27838
808.324	27694
808.465	27770
808.607	27914
808.749	28013
808.891	28128
809.033	28226
809.174	28143
809.316	28120
809.458	28078
809.6	28036
809.741	28158
809.883	28055
810.025	28318
810.166	28253
810.308	28314
810.45	28211
810.591	28021
810.733	28006
810.875	27914
811.016	28063
811.158	27945
811.299	28093
811.441	28154
811.582	28086
811.724	27949
811.865	27823
812.007	28029
812.148	27949
812.29	28074
812.431	28150
812.573	28219
812.714	28421
812.855	28523
812.997	28538
813.138	28729
813.279	28596
813.421	28527
813.562	28478
813.703	28352
813.845	28185
813.986	27911
814.127	27663
814.268	27652
814.41	27709
814.551	27629
814.692	27717
814.833	27660
814.974	27549
815.115	27644
815.256	27329
815.397	27466
815.539	27397
815.68	27336
815.821	27340
815.962	27287
816.103	27355
816.244	27173
816.385	27180
816.526	26967
816.666	26948
816.807	26739
816.948	26819
817.089	26937
817.23	26762
817.371	26678
817.512	26720
817.653	26743
817.793	26632
817.934	26663
818.075	26693
818.216	26758
818.356	26663
818.497	26674
818.638	26393
818.778	26511
818.919	26431
819.06	26518
819.2	26446
819.341	26670
819.481	26697
819.622	26823
819.762	27009
819.903	26906
820.043	26838
820.184	26667
820.324	26777
820.465	26811
820.605	26826
820.746	26788
820.886	26644
821.026	26864
821.167	26667
821.307	26705
821.447	26788
821.588	26556
821.728	26366
821.868	26199
822.008	26172
822.149	26130
822.289	26168
822.429	25902
822.569	25662
822.709	25791
822.849	25575
822.99	25590
823.13	25609
823.27	25544
823.41	25339
823.55	25362
823.69	25419
823.83	25346
823.97	25312
824.11	25160
824.25	25164
824.389	25168
824.529	25270
824.669	25213
824.809	25145
824.949	25088
825.089	25160
825.228	25084
825.368	25031
825.508	24947
825.648	25015
825.787	25053
825.927	24973
826.067	24814
826.206	24989
826.346	24890
826.485	25023
826.625	25000
826.765	25141
826.904	25012
827.044	24802
827.183	24582
827.323	24593
827.462	24661
827.601	24646
827.741	24616
827.88	24696
828.02	24509
828.159	24612
828.298	24608
828.437	24604
828.577	24551
828.716	24715
828.855	24646
828.994	24346
829.134	24357
829.273	24464
829.412	24247
829.551	24201
829.69	24224
829.829	24315
829.968	24426
830.107	24414
830.246	24254
830.385	24182
830.524	24163
830.663	24083
830.802	23977
830.941	23882
831.08	23840
831.219	23961
831.357	23840
831.496	24057
831.635	23851
831.774	23760
831.913	23821
832.051	23676
832.19	23516
832.329	23676
832.467	23608
832.606	23436
832.744	23383
832.883	23562
833.022	23482
833.16	23482
833.299	23421
833.437	23570
833.576	23524
833.714	23452
833.852	23554
833.991	23547
834.129	23551
834.267	23687
834.406	23535
834.544	23554
834.682	23512
834.821	23474
834.959	23543
835.097	23326
835.235	23570
835.373	23501
835.511	23467
835.65	23288
835.788	23376
835.926	23178
836.064	23166
836.202	23200
836.34	23326
836.478	23356
836.615	23322
836.753	23204
836.891	23356
837.029	23322
837.167	23235
837.305	23246
837.443	23197
837.58	23220
837.718	23315
837.856	23121
837.993	23067
838.131	23109
838.269	23052
838.406	22984
838.544	22957
838.681	22877
838.819	22740
838.956	22664
839.094	22478
839.231	22561
839.369	22710
839.506	22972
839.643	22793
839.781	22538
839.918	22417
840.055	22596
840.193	22557
840.33	22599
840.467	22417
840.604	22504
840.742	22774
840.879	22360
841.016	22466
841.153	22417
841.29	22481
841.427	22497
841.564	22485
841.701	22432
841.838	22398
841.975	22226
842.112	22242
842.249	22299
842.385	22128
842.522	22421
842.659	22234
842.796	22112
842.933	22131
843.069	22154
843.206	22246
843.343	22223
843.479	22063
843.616	22078
843.752	21937
843.889	21991
844.025	21991
844.162	21979
844.298	22086
844.435	21884
844.571	21838
844.708	21968
844.844	22036
844.98	22013
845.117	21918
845.253	21766
845.389	21701
845.525	21812
845.661	21747
845.798	21523
845.934	21755
846.07	21557
846.206	21705
846.342	21728
846.478	21591
846.614	21405
846.75	21359
846.886	21264
847.022	21485
847.158	21397
847.294	21363
847.429	21252
847.565	21431
847.701	21606
847.837	21195
847.972	21100
848.108	21112
848.244	21173
848.379	21032
848.515	20872
848.65	20944
848.786	20960
848.921	20902
849.057	20982
849.192	21043
849.328	21070
849.463	20887
849.598	20804
849.734	20781
849.869	20891
850.004	20625
850.14	20716
850.275	20712
850.41	20514
850.545	20640
850.68	20571
850.815	20640
850.95	20689
851.085	20815
851.22	20667
851.355	20670
851.49	20625
851.625	20564
851.76	20609
851.895	20602
852.03	20488
852.165	20552
852.299	20606
852.434	20693
852.569	20670
852.703	20720
852.838	20609
852.973	20746
853.107	20663
853.242	20484
853.376	20461
853.511	20324
853.645	20336
853.78	20640
853.914	20522
854.048	20518
854.183	20507
854.317	20450
854.451	20629
854.585	20461
854.72	20419
854.854	20537
854.988	20396
855.122	20385
855.256	20313
855.39	20442
855.524	20571
855.658	20476
855.792	20393
855.926	20423
856.06	20495
856.194	20488
856.327	20511
856.461	20347
856.595	20427
856.729	20431
856.862	20621
856.996	20492
857.13	20427
857.263	20602
857.397	20522
857.53	20541
857.664	20431
857.797	20461
857.931	20556
858.064	20473
858.197	20724
858.331	20347
858.464	20419
858.597	20332
858.731	20370
858.864	20423
858.997	20271
859.13	20370
859.263	20419
859.396	20533
859.529	20343
859.662	20385
859.795	20233
859.928	20480
860.061	20404
860.194	20457
860.327	20400
860.46	20362
860.592	20484
860.725	20545
860.858	20476
860.99	20377
861.123	20343
861.256	20278
861.388	20374
861.521	21081
861.653	20244
861.786	20130
861.918	20290
862.05	20267
862.183	20457
862.315	20427
862.447	20431
862.58	20415
862.712	20119
862.844	20073
862.976	20180
863.108	20252
863.24	20689
863.372	20183
863.504	20145
863.636	20039
863.768	20107
863.9	20043
864.032	19944
864.164	20134
864.296	20202
864.428	20214
864.559	20126
864.691	20180
864.823	20195
864.954	19993
865.086	20119
865.217	20126
865.349	19845
865.48	19986
865.612	20035
865.743	19986
865.875	20008
866.006	19894
866.137	19871
866.269	20039
866.4	20001
866.531	19940
866.662	20012
866.793	19917
866.924	20016
867.055	19955
867.186	20005
867.317	19898
867.448	19883
867.579	19902
867.71	19761
867.841	19772
867.972	19936
868.103	19955
868.233	19917
868.364	19830
868.495	20050
868.625	20164
868.756	20218
868.886	19963
869.017	20092
869.147	20294
869.278	20263
869.408	20233
869.539	20161
869.669	20168
869.799	20237
869.929	20221
870.06	20206
870.19	20518
870.32	20438
870.45	20552
870.58	20556
870.71	20682
870.84	20651
870.97	20492
871.1	20606
871.23	20727
871.36	20773
871.489	20663
871.619	20678
871.749	20750
871.879	20819
872.008	20887
872.138	20788
872.267	20697
872.397	20560
872.526	20541
872.656	20629
872.785	20511
872.915	20842
873.044	20762
873.173	20773
873.303	20769
873.432	20781
873.561	20712
873.69	20769
873.819	20689
873.948	20864
874.077	20746
874.206	20663
874.335	20769
874.464	20830
874.593	20910
874.722	20960
874.851	20979
874.979	21074
875.108	21036
875.237	20956
875.365	20971
875.494	21024
875.623	21055
875.751	20971
875.88	21112
876.008	21077
876.136	21226
876.265	21382
876.393	21618
876.521	21378
876.65	21496
876.778	21466
876.906	21382
877.034	21378
877.162	21431
877.29	21287
877.418	21382
877.546	21272
877.674	21279
877.802	21237
877.93	21340
878.058	21374
878.185	21226
878.313	21351
878.441	21378
878.568	21226
878.696	21393
878.824	21378
878.951	21534
879.079	21511
879.206	21622
879.333	21488
879.461	21450
879.588	21507
879.715	21633
879.842	21610
879.97	21507
880.097	21096
880.224	21142
880.351	21313
880.478	21302
880.605	21188
880.732	21313
880.859	21325
880.986	21138
881.112	21222
881.239	21058
881.366	20952
881.493	20796
881.619	20746
881.746	20830
881.872	20838
881.999	20834
882.125	20834
882.252	20899
882.378	20857
882.505	20918
882.631	20777
882.757	20541
882.883	20686
883.01	20575
883.136	20385
883.262	20381
883.388	20366
883.514	20545
883.64	20613
883.766	20533
883.892	20370
884.018	20259
884.143	20594
884.269	20560
884.395	20358
884.52	20126
884.646	20240
884.772	20111
884.897	20031
885.023	20248
885.148	20210
885.274	20351
885.399	20240
885.524	20225
885.65	20122
885.775	20180
885.9	20054
886.025	20298
886.15	20130
886.275	20153
886.4	20031
886.525	20145
886.65	20149
886.775	20100
886.9	20275
887.025	20492
887.149	20119
887.274	20126
887.399	19902
887.523	20001
887.648	19776
887.773	19826
887.897	19993
888.021	19868
888.146	19788
888.27	20024
888.395	20016
888.519	19868
888.643	19951
888.767	20008
888.891	19811
889.015	19708
889.139	19826
889.263	19761
889.387	19868
889.511	19928
889.635	19757
889.759	19662
889.883	19765
890.006	19757
890.13	19791
890.254	19651
890.377	19575
890.501	19529
890.624	19460
890.748	19483
890.871	19312
890.995	19236
891.118	19187
891.241	19377
891.364	19335
891.488	19388
891.611	19240
891.734	19251
891.857	19339
891.98	19304
892.103	19373
892.226	19426
892.349	19381
892.471	19095
892.594	19175
892.717	19301
892.839	19308
892.962	19278
893.085	19289
893.207	19187
893.33	19175
893.452	19217
893.575	19232
893.697	19247
893.819	19274
893.941	19426
894.064	19327
894.186	19175
894.308	19255
894.43	19266
894.552	19289
894.674	19365
894.796	19179
894.918	19122
895.04	19107
895.161	19339
895.283	19297
895.405	19183
895.526	19270
895.648	19278
895.769	19213
895.891	19209
896.012	19301
896.134	19392
896.255	19316
896.376	19187
896.498	19255
896.619	19339
896.74	19278
896.861	19377
896.982	19731
897.103	19689
897.224	19544
897.345	19533
897.466	19483
897.587	19407
897.708	19552
897.828	19426
897.949	19434
898.07	19358
898.19	19487
898.311	19575
898.431	19506
898.552	19495
898.672	19559
898.792	19605
898.913	19571
899.033	19282
899.153	19244
899.273	19202
899.393	19160
899.513	19206
899.633	19301
899.753	19282
899.873	19232
899.993	19148
900.113	19141
900.232	19255
900.352	19202
900.472	19080
900.591	18973
900.711	19038
900.83	18970
900.95	19126
901.069	19236
901.189	18943
901.308	18597
901.427	18593
901.546	18608
901.665	18608
901.784	18654
901.904	18506
902.023	18452
902.141	18235
902.26	18034
902.379	18277
902.498	18121
902.617	18049
902.735	18152
902.854	18087
902.973	17996
903.091	17775
903.21	17817
903.328	17767
903.446	17767
903.565	17562
903.683	17539
903.801	17528
903.919	17467
904.038	17600
904.156	17433
904.274	17474
904.392	17296
904.51	17421
904.627	17345
904.745	17452
904.863	17391
904.981	17197
905.098	16961
905.216	16972
905.334	17094
905.451	17117
905.569	16972
905.686	17117
905.803	17041
905.921	16915
906.038	16881
906.155	16820
906.272	16664
906.389	16740
906.506	16588
906.623	16630
906.74	16535
906.857	16470
906.974	16417
907.091	16672
907.208	16805
907.324	16599
907.441	16405
907.557	16272
907.674	16272
907.79	16219
907.907	16291
908.023	16280
908.139	16204
908.256	16242
908.372	16177
908.488	16139
908.604	15926
908.72	15979
908.836	15968
908.952	15911
909.068	15968
909.184	16074
909.3	15922
909.415	15994
909.531	15934
909.647	15762
909.762	15656
909.878	15606
909.993	15660
910.108	15720
910.224	15603
910.339	15629
910.454	15515
910.57	15523
910.685	15401
910.8	15701
910.915	15580
911.03	15511
911.145	15279
911.259	15272
911.374	15310
911.489	15256
911.604	15169
911.718	14937
911.833	14975
911.947	14853
912.062	14845
912.176	14929
912.291	14956
912.405	14952
912.519	15142
912.633	15104
912.748	14994
912.862	15009
912.976	14807
913.09	14632
913.204	14739
913.318	14792
913.431	14868
913.545	14910
913.659	14872
913.772	14804
913.886	14598
914	14659
914.113	14724
914.226	14739
914.34	14678
914.453	14549
914.566	14621
914.68	14594
914.793	14492
914.906	14313
915.019	14362
915.132	14157
915.245	14252
915.358	14267
915.47	14248
915.583	14294
915.696	14282
915.809	14362
915.921	14476
916.034	14237
916.146	14229
916.259	14145
916.371	14164
916.483	14225
916.595	14149
916.708	14100
916.82	14168
916.932	14191
917.044	14081
917.156	14062
917.268	13993
917.38	14012
917.491	13902
917.603	13978
917.715	13936
917.826	14043
917.938	13887
918.049	13788
918.161	13902
918.272	13993
918.384	14115
918.495	13963
918.606	13712
918.717	13715
918.828	13772
918.939	13807
919.05	13613
919.161	13727
919.272	13460
919.383	13567
919.494	13742
919.604	13906
919.715	13715
919.826	13674
919.936	13677
920.047	13685
920.157	13670
920.267	13833
920.378	13636
920.488	13601
920.598	13791
920.708	13883
920.818	13750
920.928	13780
921.038	13993
921.148	14020
921.258	13647
921.368	13544
921.477	13518
921.587	13426
921.697	13270
921.806	13457
921.916	13259
922.025	13042
922.134	13084
922.244	13015
922.353	13099
922.462	12928
922.571	12837
922.68	12753
922.789	12688
922.898	12741
923.007	12688
923.116	12703
923.224	12696
923.333	12658
923.442	12521
923.55	12452
923.659	12540
923.767	12593
923.876	12407
923.984	12483
924.092	12418
924.201	12448
924.309	12437
924.417	12517
924.525	12399
924.633	12384
924.741	13320
924.849	12254
924.956	12384
925.064	12167
925.172	12083
925.279	12148
925.387	12216
925.494	12175
925.602	12308
925.709	12254
925.816	12117
925.924	12197
926.031	12251
926.138	12133
926.245	12201
926.352	12076
926.459	12205
926.566	12235
926.673	12117
926.779	11950
926.886	11950
926.993	11840
927.099	11828
927.206	11657
927.312	11714
927.419	11828
927.525	11767
927.631	11802
927.737	11741
927.843	11589
927.95	11512
928.056	11566
928.162	11642
928.267	11657
928.373	12186
928.479	11661
928.585	11444
928.69	11535
928.796	11611
928.901	11436
929.007	11334
929.112	11467
929.218	11402
929.323	11341
929.428	11311
929.533	11478
929.638	11277
929.743	11307
929.848	11356
929.953	11280
930.058	11113
930.163	10961
930.267	11067
930.372	11132
930.477	10984
930.581	11178
930.685	11086
930.79	10904
930.894	10900
930.998	10930
931.103	11079
931.207	10599
931.311	10546
931.415	10542
931.519	10276
931.623	10325
