Data from test_V78500241_2895.txt Node
Date: Fri Mar 25 15:30:01 CST 2022
User: usil
Spectrometer: V785-0024
Trigger mode: 0
Integration Time (sec): 4.000000E-1
Scans to average: 1
Nonlinearity correction enabled: false
Boxcar width: 0
Storing dark spectrum: false
XAxis mode: Wavelengths
Number of Pixels in Spectrum: 1024
>>>>>Begin Spectral Data<<<<<
801.071	27393
801.214	27294
801.356	27077
801.499	26998
801.641	26956
801.783	26765
801.926	26777
802.068	26876
802.211	26705
802.353	26583
802.496	26663
802.638	26651
802.78	26518
802.923	26461
803.065	26590
803.208	26393
803.35	26495
803.492	26712
803.635	26636
803.777	26564
803.919	26773
804.061	26979
804.204	26838
804.346	26575
804.488	26549
804.63	26636
804.773	26507
804.915	26625
805.057	26781
805.199	26590
805.341	26765
805.483	26788
805.626	26815
805.768	26602
805.91	26849
806.052	26689
806.194	26682
806.336	26861
806.478	26743
806.62	26739
806.762	26891
806.904	27005
807.046	27249
807.188	27096
807.33	27252
807.472	27169
807.614	27047
807.756	27150
807.898	27058
808.04	27001
808.182	26845
808.324	27127
808.465	27066
808.607	27351
808.749	27340
808.891	27488
809.033	27694
809.174	27420
809.316	27469
809.458	27439
809.6	27374
809.741	27500
809.883	27660
810.025	27686
810.166	27724
810.308	27663
810.45	27629
810.591	27473
810.733	27553
810.875	27351
811.016	27199
811.158	27260
811.299	27427
811.441	27679
811.582	27652
811.724	27485
811.865	27272
812.007	27302
812.148	27427
812.29	27344
812.431	27641
812.573	27496
812.714	27762
812.855	27816
812.997	27884
813.138	28048
813.279	27918
813.421	27869
813.562	27751
813.703	27698
813.845	27496
813.986	27294
814.127	27138
814.268	27070
814.41	26975
814.551	27077
814.692	27055
814.833	27074
814.974	26906
815.115	27005
815.256	26891
815.397	26956
815.539	26849
815.68	26750
815.821	26754
815.962	26849
816.103	26845
816.244	26583
816.385	26564
816.526	26549
816.666	26408
816.807	26206
816.948	26362
817.089	26415
817.23	26237
817.371	26298
817.512	26278
817.653	26240
817.793	26199
817.934	26278
818.075	26134
818.216	26252
818.356	26317
818.497	26252
818.638	25951
818.778	26229
818.919	25966
819.06	25986
819.2	26119
819.341	26320
819.481	26263
819.622	26347
819.762	26632
819.903	26522
820.043	26476
820.184	26343
820.324	26393
820.465	26362
820.605	26377
820.746	26377
820.886	26142
821.026	26438
821.167	26336
821.307	26457
821.447	26301
821.588	26256
821.728	26012
821.868	25833
822.008	25799
822.149	25776
822.289	25769
822.429	25502
822.569	25445
822.709	25525
822.849	25278
822.99	25228
823.13	25240
823.27	25228
823.41	25076
823.55	25004
823.69	25110
823.83	25031
823.97	24973
824.11	24867
824.25	24970
824.389	24833
824.529	25000
824.669	24932
824.809	24894
824.949	24951
825.089	24966
825.228	24814
825.368	24696
825.508	24661
825.648	24726
825.787	24852
825.927	24783
826.067	24745
826.206	24738
826.346	24764
826.485	24559
826.625	24757
826.765	24787
826.904	24719
827.044	24422
827.183	24528
827.323	24437
827.462	24471
827.601	24350
827.741	24486
827.88	24437
828.02	24410
828.159	24380
828.298	24486
828.437	24479
828.577	24342
828.716	24536
828.855	24433
828.994	24038
829.134	24190
829.273	24224
829.412	24216
829.551	24182
829.69	24201
829.829	24194
829.968	24251
830.107	24194
830.246	24197
830.385	24106
830.524	23973
830.663	24034
830.802	23855
830.941	23790
831.08	23722
831.219	23824
831.357	23824
831.496	23980
831.635	23638
831.774	23596
831.913	23691
832.051	23623
832.19	23486
832.329	23467
832.467	23520
832.606	23315
832.744	23326
832.883	23307
833.022	23345
833.16	23566
833.299	23334
833.437	23349
833.576	23543
833.714	23436
833.852	23486
833.991	23558
834.129	23520
834.267	23566
834.406	23417
834.544	23562
834.682	23448
834.821	23486
834.959	23623
835.097	23440
835.235	23589
835.373	23406
835.511	23421
835.65	23284
835.788	23242
835.926	23185
836.064	23136
836.202	23128
836.34	23372
836.478	23265
836.615	23166
836.753	23273
836.891	23398
837.029	23353
837.167	23170
837.305	23200
837.443	23185
837.58	23128
837.718	23151
837.856	23189
837.993	23037
838.131	23121
838.269	23075
838.406	23022
838.544	22927
838.681	22896
838.819	22782
838.956	22733
839.094	22523
839.231	22824
839.369	22797
839.506	23044
839.643	22824
839.781	22755
839.918	22611
840.055	22603
840.193	22531
840.33	22440
840.467	22675
840.604	22474
840.742	22831
840.879	22398
841.016	22516
841.153	22451
841.29	22603
841.427	22588
841.564	22447
841.701	22356
841.838	22459
841.975	22413
842.112	22546
842.249	22360
842.385	22394
842.522	22729
842.659	22341
842.796	22185
842.933	22268
843.069	22230
843.206	22291
843.343	22466
843.479	22268
843.616	22447
843.752	22078
843.889	21968
844.025	22249
844.162	22036
844.298	22230
844.435	21953
844.571	22036
844.708	22211
844.844	22223
844.98	22223
845.117	22135
845.253	22086
845.389	21983
845.525	21892
845.661	21831
845.798	21869
845.934	21808
846.07	21884
846.206	21808
846.342	21884
846.478	21838
846.614	21625
846.75	21599
846.886	21534
847.022	21671
847.158	21595
847.294	21564
847.429	21553
847.565	21507
847.701	21751
847.837	21336
847.972	21256
848.108	21374
848.244	21443
848.379	21192
848.515	21100
848.65	21256
848.786	21249
848.921	21222
849.057	21222
849.192	21173
849.328	21317
849.463	21077
849.598	21192
849.734	21074
849.869	20925
850.004	20845
850.14	20910
850.275	20956
850.41	20720
850.545	20838
850.68	20876
850.815	20857
850.95	20902
851.085	21085
851.22	20990
851.355	20967
851.49	20906
851.625	20868
851.76	20883
851.895	20720
852.03	20838
852.165	20941
852.299	20956
852.434	20925
852.569	20864
852.703	20849
852.838	20899
852.973	20963
853.107	20933
853.242	20868
853.376	20769
853.511	20644
853.645	20701
853.78	20796
853.914	20720
854.048	20689
854.183	20689
854.317	20811
854.451	20982
854.585	20739
854.72	20579
854.854	20834
854.988	20716
855.122	20632
855.256	20564
855.39	20712
855.524	20750
855.658	20746
855.792	20792
855.926	20769
856.06	20754
856.194	20773
856.327	20712
856.461	20739
856.595	20667
856.729	20746
856.862	20796
856.996	20769
857.13	20796
857.263	20895
857.397	20804
857.53	20693
857.664	20815
857.797	20921
857.931	20849
858.064	20743
858.197	20826
858.331	20731
858.464	20743
858.597	20712
858.731	20682
858.864	20781
858.997	20670
859.13	20697
859.263	20743
859.396	20868
859.529	20629
859.662	20689
859.795	20727
859.928	20807
860.061	20765
860.194	20990
860.327	20826
860.46	20754
860.592	20868
860.725	20663
860.858	20842
860.99	20743
861.123	20590
861.256	20606
861.388	20743
861.521	21306
861.653	20590
861.786	20526
861.918	20560
862.05	20606
862.183	20598
862.315	20621
862.447	20697
862.58	20617
862.712	20469
862.844	20324
862.976	20484
863.108	20499
863.24	20979
863.372	20408
863.504	20343
863.636	20343
863.768	20450
863.9	20537
864.032	20347
864.164	20400
864.296	20370
864.428	20423
864.559	20499
864.691	20438
864.823	20442
864.954	20408
865.086	20465
865.217	20389
865.349	20324
865.48	20320
865.612	20324
865.743	20492
865.875	20328
866.006	20282
866.137	20290
866.269	20225
866.4	20290
866.531	20161
866.662	20202
866.793	20240
866.924	20233
867.055	20412
867.186	20290
867.317	20206
867.448	20271
867.579	20172
867.71	20221
867.841	20256
867.972	20381
868.103	20256
868.233	20278
868.364	20271
868.495	20476
868.625	20393
868.756	20594
868.886	20374
869.017	20454
869.147	20541
869.278	20571
869.408	20454
869.539	20514
869.669	20541
869.799	20499
869.929	20674
870.06	20629
870.19	20861
870.32	20807
870.45	20872
870.58	20819
870.71	21043
870.84	20998
870.97	20937
871.1	20849
871.23	21096
871.36	21104
871.489	21017
871.619	21058
871.749	21047
871.879	21131
872.008	21230
872.138	21096
872.267	21074
872.397	20979
872.526	20910
872.656	20918
872.785	20925
872.915	21256
873.044	21150
873.173	21237
873.303	21173
873.432	21146
873.561	21195
873.69	21028
873.819	21116
873.948	21252
874.077	21173
874.206	21039
874.335	21062
874.464	21329
874.593	21454
874.722	21416
874.851	21370
874.979	21275
875.108	21523
875.237	21382
875.365	21173
875.494	21249
875.623	21428
875.751	21450
875.88	21416
876.008	21545
876.136	21610
876.265	21823
876.393	21972
876.521	21781
876.65	21793
876.778	21728
876.906	21671
877.034	21743
877.162	21736
877.29	21618
877.418	21732
877.546	21705
877.674	21717
877.802	21644
877.93	21663
878.058	21705
878.185	21720
878.313	21759
878.441	21686
878.568	21595
878.696	21629
878.824	21755
878.951	21743
879.079	21819
879.206	21888
879.333	21785
879.461	21717
879.588	21842
879.715	21998
879.842	21915
879.97	21846
880.097	21614
880.224	21492
880.351	21641
880.478	21637
880.605	21538
880.732	21481
880.859	21766
880.986	21580
881.112	21420
881.239	21511
881.366	21222
881.493	21264
881.619	21195
881.746	21127
881.872	21176
881.999	21119
882.125	21013
882.252	21119
882.378	21119
882.505	21222
882.631	20979
882.757	20906
882.883	20914
883.01	20982
883.136	20781
883.262	20674
883.388	20648
883.514	20826
883.64	20948
883.766	20743
883.892	20492
884.018	20606
884.143	20823
884.269	21043
884.395	20583
884.52	20446
884.646	20541
884.772	20434
884.897	20366
885.023	20564
885.148	20651
885.274	20731
885.399	20609
885.524	20571
885.65	20537
885.775	20507
885.9	20423
886.025	20526
886.15	20518
886.275	20381
886.4	20374
886.525	20484
886.65	20305
886.775	20408
886.9	20575
887.025	20629
887.149	20400
887.274	20225
887.399	20240
887.523	20282
887.648	20286
887.773	20206
887.897	20355
888.021	20278
888.146	20199
888.27	20294
888.395	20355
888.519	20271
888.643	20309
888.767	20237
888.891	20126
889.015	20035
889.139	20161
889.263	20065
889.387	20176
889.511	20336
889.635	20081
889.759	20027
889.883	19947
890.006	20115
890.13	20142
890.254	20122
890.377	19989
890.501	19852
890.624	19814
890.748	19868
890.871	19750
890.995	19628
891.118	19540
891.241	19609
891.364	19632
891.488	19811
891.611	19712
891.734	19662
891.857	19643
891.98	19578
892.103	19712
892.226	19609
892.349	19537
892.471	19422
892.594	19590
892.717	19616
892.839	19590
892.962	19590
893.085	19639
893.207	19575
893.33	19502
893.452	19518
893.575	19559
893.697	19567
893.819	19670
893.941	19746
894.064	19761
894.186	19495
894.308	19510
894.43	19647
894.552	19696
894.674	19597
894.796	19388
894.918	19556
895.04	19540
895.161	19647
895.283	19502
895.405	19449
895.526	19605
895.648	19613
895.769	19563
895.891	19597
896.012	19559
896.134	19651
896.255	19609
896.376	19438
896.498	19586
896.619	19643
896.74	19499
896.861	19662
896.982	19868
897.103	20008
897.224	19830
897.345	19860
897.466	19757
897.587	19738
897.708	19940
897.828	19822
897.949	19803
898.07	19582
898.19	19795
898.311	19807
898.431	19700
898.552	19864
898.672	19883
898.792	19822
898.913	19818
899.033	19727
899.153	19753
899.273	19548
899.393	19506
899.513	19639
899.633	19647
899.753	19590
899.873	19533
899.993	19677
900.113	19586
900.232	19518
900.352	19487
900.472	19400
900.591	19384
900.711	19384
900.83	19270
900.95	19525
901.069	19476
901.189	19282
901.308	19004
901.427	18913
901.546	18970
901.665	19034
901.784	18958
901.904	18814
902.023	18741
902.141	18506
902.26	18566
902.379	18578
902.498	18494
902.617	18422
902.735	18445
902.854	18388
902.973	18376
903.091	18136
903.21	18190
903.328	18235
903.446	18079
903.565	18015
903.683	18003
903.801	17878
903.919	17885
904.038	17897
904.156	17680
904.274	17752
904.392	17821
904.51	17726
904.627	17764
904.745	17836
904.863	17764
904.981	17528
905.098	17395
905.216	17417
905.334	17402
905.451	17501
905.569	17341
905.686	17471
905.803	17414
905.921	17212
906.038	17254
906.155	17223
906.272	17003
906.389	17014
906.506	17071
906.623	16927
906.74	16892
906.857	16835
906.974	16885
907.091	16942
907.208	17140
907.324	16919
907.441	16866
907.557	16664
907.674	16630
907.79	16535
907.907	16577
908.023	16607
908.139	16573
908.256	16687
908.372	16561
908.488	16474
908.604	16398
908.72	16382
908.836	16409
908.952	16375
909.068	16485
909.184	16462
909.3	16421
909.415	16417
909.531	16394
909.647	16059
909.762	16097
909.878	15972
909.993	16097
910.108	16051
910.224	15892
910.339	16116
910.454	15975
910.57	15949
910.685	15812
910.8	16112
910.915	15991
911.03	15838
911.145	15606
911.259	15641
911.374	15812
911.489	15629
911.604	15542
911.718	15416
911.833	15492
911.947	15367
912.062	15310
912.176	15511
912.291	15428
912.405	15454
912.519	15587
912.633	15625
912.748	15534
912.862	15435
912.976	15298
913.09	15188
913.204	15222
913.318	15279
913.431	15344
913.545	15298
913.659	15397
913.772	15294
913.886	15100
914	15104
914.113	15127
914.226	15100
914.34	15165
914.453	14933
914.566	15066
914.68	14933
914.793	14910
914.906	14830
915.019	14678
915.132	14739
915.245	14727
915.358	14613
915.47	14777
915.583	14625
915.696	14720
915.809	14720
915.921	14788
916.034	14727
916.146	14526
916.259	14587
916.371	14743
916.483	14640
916.595	14587
916.708	14488
916.82	14530
916.932	14442
917.044	14465
917.156	14450
917.268	14362
917.38	14256
917.491	14332
917.603	14366
917.715	14427
917.826	14385
917.938	14259
918.049	14206
918.161	14294
918.272	14476
918.384	14438
918.495	14347
918.606	14100
918.717	14058
918.828	14096
918.939	14100
919.05	14024
919.161	14142
919.272	13978
919.383	13909
919.494	14210
919.604	14336
919.715	14081
919.826	14020
919.936	14046
920.047	14168
920.157	14073
920.267	14221
920.378	14084
920.488	14043
920.598	14324
920.708	14320
920.818	14233
920.928	14263
921.038	14438
921.148	14389
921.258	14096
921.368	13993
921.477	13849
921.587	13807
921.697	13689
921.806	13822
921.916	13628
922.025	13472
922.134	13571
922.244	13460
922.353	13510
922.462	13419
922.571	13316
922.68	13133
922.789	13103
922.898	13228
923.007	13084
923.116	13183
923.224	13175
923.333	13080
923.442	12993
923.55	12928
923.659	13061
923.767	13107
923.876	12863
923.984	12996
924.092	12856
924.201	12981
924.309	12958
924.417	12856
924.525	12753
924.633	12787
924.741	13685
924.849	12612
924.956	12616
925.064	12662
925.172	12525
925.279	12646
925.387	12578
925.494	12582
925.602	12639
925.709	12574
925.816	12502
925.924	12452
926.031	12631
926.138	12494
926.245	12582
926.352	12460
926.459	12509
926.566	12585
926.673	12475
926.779	12281
926.886	12353
926.993	12163
927.099	12155
927.206	12121
927.312	12186
927.419	12136
927.525	12213
927.631	12273
927.737	11939
927.843	11935
927.95	11958
928.056	11965
928.162	12030
928.267	12049
928.373	12703
928.479	12148
928.585	11897
928.69	11859
928.796	11950
928.901	11828
929.007	11714
929.112	11779
929.218	11752
929.323	11794
929.428	11752
929.533	11783
929.638	11627
929.743	11684
929.848	11703
929.953	11577
930.058	11589
930.163	11414
930.267	11459
930.372	11547
930.477	11429
930.581	11493
930.685	11497
930.79	11387
930.894	11337
930.998	11292
931.103	11364
931.207	10987
931.311	11067
931.415	10809
931.519	10714
931.623	10744
