Data from test_V78500241_2670.txt Node
Date: Fri Mar 25 15:28:27 CST 2022
User: usil
Spectrometer: V785-0024
Trigger mode: 0
Integration Time (sec): 4.000000E-1
Scans to average: 1
Nonlinearity correction enabled: false
Boxcar width: 0
Storing dark spectrum: false
XAxis mode: Wavelengths
Number of Pixels in Spectrum: 1024
>>>>>Begin Spectral Data<<<<<
801.071	27188
801.214	27165
801.356	26910
801.499	26933
801.641	26777
801.783	26777
801.926	26686
802.068	26689
802.211	26587
802.353	26598
802.496	26442
802.638	26355
802.78	26233
802.923	26256
803.065	26214
803.208	26381
803.35	26355
803.492	26526
803.635	26465
803.777	26362
803.919	26473
804.061	26800
804.204	26556
804.346	26442
804.488	26362
804.63	26423
804.773	26594
804.915	26571
805.057	26587
805.199	26465
805.341	26571
805.483	26587
805.626	26644
805.768	26507
805.91	26522
806.052	26648
806.194	26362
806.336	26807
806.478	26598
806.62	26518
806.762	26758
806.904	26967
807.046	27070
807.188	26925
807.33	27024
807.472	27047
807.614	27005
807.756	26979
807.898	26830
808.04	26727
808.182	26857
808.324	26933
808.465	26956
808.607	27074
808.749	27127
808.891	27195
809.033	27306
809.174	27275
809.316	27157
809.458	27214
809.6	27188
809.741	27310
809.883	27310
810.025	27348
810.166	27496
810.308	27443
810.45	27431
810.591	27363
810.733	27325
810.875	27142
811.016	27112
811.158	27085
811.299	27283
811.441	27481
811.582	27374
811.724	27310
811.865	27157
812.007	27051
812.148	27207
812.29	27241
812.431	27306
812.573	27439
812.714	27572
812.855	27781
812.997	27850
813.138	27994
813.279	27770
813.421	27842
813.562	27523
813.703	27507
813.845	27348
813.986	27096
814.127	26914
814.268	26796
814.41	27001
814.551	26872
814.692	26899
814.833	26864
814.974	26727
815.115	26891
815.256	26712
815.397	26796
815.539	26651
815.68	26739
815.821	26659
815.962	26678
816.103	26842
816.244	26518
816.385	26438
816.526	26412
816.666	26320
816.807	26065
816.948	26138
817.089	26286
817.23	26199
817.371	26092
817.512	26180
817.653	26138
817.793	25951
817.934	26111
818.075	26073
818.216	26164
818.356	26062
818.497	26043
818.638	25925
818.778	25845
818.919	25947
819.06	26054
819.2	26016
819.341	26050
819.481	26065
819.622	26210
819.762	26259
819.903	26271
820.043	26267
820.184	26206
820.324	26252
820.465	26202
820.605	26199
820.746	26187
820.886	26001
821.026	26244
821.167	26111
821.307	26221
821.447	26214
821.588	25947
821.728	25788
821.868	25731
822.008	25567
822.149	25571
822.289	25647
822.429	25369
822.569	25251
822.709	25209
822.849	25175
822.99	24970
823.13	25057
823.27	25053
823.41	24909
823.55	24943
823.69	24943
823.83	24897
823.97	24837
824.11	24692
824.25	24726
824.389	24730
824.529	24817
824.669	24734
824.809	24791
824.949	24783
825.089	24806
825.228	24719
825.368	24616
825.508	24677
825.648	24631
825.787	24696
825.927	24677
826.067	24593
826.206	24574
826.346	24601
826.485	24696
826.625	24650
826.765	24654
826.904	24528
827.044	24296
827.183	24330
827.323	24277
827.462	24361
827.601	24353
827.741	24369
827.88	24353
828.02	24369
828.159	24281
828.298	24353
828.437	24490
828.577	24311
828.716	24327
828.855	24384
828.994	23927
829.134	24018
829.273	24106
829.412	24034
829.551	23999
829.69	23920
829.829	24076
829.968	24098
830.107	24022
830.246	23992
830.385	23980
830.524	23954
830.663	23878
830.802	23771
830.941	23592
831.08	23722
831.219	23767
831.357	23726
831.496	23897
831.635	23668
831.774	23520
831.913	23486
832.051	23531
832.19	23410
832.329	23490
832.467	23421
832.606	23254
832.744	23181
832.883	23269
833.022	23334
833.16	23425
833.299	23261
833.437	23353
833.576	23364
833.714	23349
833.852	23334
833.991	23417
834.129	23592
834.267	23379
834.406	23486
834.544	23528
834.682	23345
834.821	23425
834.959	23452
835.097	23337
835.235	23604
835.373	23463
835.511	23334
835.65	23273
835.788	23254
835.926	23242
836.064	22972
836.202	23056
836.34	23220
836.478	23269
836.615	23318
836.753	23292
836.891	23299
837.029	23220
837.167	23174
837.305	23231
837.443	23216
837.58	23143
837.718	23121
837.856	23159
837.993	22980
838.131	23162
838.269	22881
838.406	22972
838.544	22805
838.681	22687
838.819	22660
838.956	22493
839.094	22481
839.231	22672
839.369	22725
839.506	23003
839.643	22877
839.781	22489
839.918	22455
840.055	22523
840.193	22527
840.33	22424
840.467	22466
840.604	22508
840.742	22797
840.879	22386
841.016	22527
841.153	22493
841.29	22664
841.427	22447
841.564	22443
841.701	22470
841.838	22386
841.975	22375
842.112	22546
842.249	22417
842.385	22363
842.522	22481
842.659	22272
842.796	22207
842.933	22215
843.069	22246
843.206	22204
843.343	22242
843.479	22192
843.616	22268
843.752	22090
843.889	22040
844.025	22154
844.162	21949
844.298	22128
844.435	22040
844.571	21953
844.708	22120
844.844	22204
844.98	22226
845.117	22032
845.253	22006
845.389	21846
845.525	22032
845.661	21869
845.798	21785
845.934	21789
846.07	21766
846.206	21728
846.342	21873
846.478	21732
846.614	21462
846.75	21408
846.886	21374
847.022	21405
847.158	21523
847.294	21557
847.429	21492
847.565	21439
847.701	21762
847.837	21298
847.972	21287
848.108	21260
848.244	21332
848.379	21138
848.515	20975
848.65	21131
848.786	20975
848.921	21176
849.057	21135
849.192	21313
849.328	21036
849.463	21173
849.598	21127
849.734	20944
849.869	20895
850.004	20887
850.14	20990
850.275	21028
850.41	20727
850.545	20724
850.68	20811
850.815	20906
850.95	20899
851.085	20914
851.22	20933
851.355	20910
851.49	20849
851.625	20804
851.76	20876
851.895	20727
852.03	20762
852.165	20842
852.299	20872
852.434	20899
852.569	20887
852.703	20815
852.838	20807
852.973	20899
853.107	20971
853.242	20800
853.376	20655
853.511	20556
853.645	20708
853.78	20765
853.914	20746
854.048	20651
854.183	20606
854.317	20697
854.451	20921
854.585	20689
854.72	20697
854.854	20754
854.988	20689
855.122	20644
855.256	20659
855.39	20621
855.524	20712
855.658	20758
855.792	20644
855.926	20651
856.06	20682
856.194	20735
856.327	20606
856.461	20644
856.595	20674
856.729	20712
856.862	20773
856.996	20735
857.13	20811
857.263	20769
857.397	20686
857.53	20640
857.664	20644
857.797	20655
857.931	20792
858.064	20724
858.197	20765
858.331	20625
858.464	20754
858.597	20549
858.731	20644
858.864	20659
858.997	20682
859.13	20556
859.263	20712
859.396	20895
859.529	20640
859.662	20545
859.795	20590
859.928	20712
860.061	20895
860.194	20880
860.327	20746
860.46	20590
860.592	20769
860.725	20914
860.858	20876
860.99	20697
861.123	20598
861.256	20670
861.388	20712
861.521	21370
861.653	20667
861.786	20469
861.918	20590
862.05	20526
862.183	20609
862.315	20602
862.447	20651
862.58	20488
862.712	20389
862.844	20396
862.976	20488
863.108	20385
863.24	20830
863.372	20278
863.504	20358
863.636	20427
863.768	20434
863.9	20473
864.032	20221
864.164	20377
864.296	20400
864.428	20526
864.559	20400
864.691	20587
864.823	20427
864.954	20404
865.086	20278
865.217	20298
865.349	20237
865.48	20317
865.612	20294
865.743	20339
865.875	20214
866.006	20161
866.137	20339
866.269	20294
866.4	20168
866.531	20244
866.662	20237
866.793	20122
866.924	20221
867.055	20301
867.186	20332
867.317	20161
867.448	20153
867.579	20233
867.71	20180
867.841	20210
867.972	20294
868.103	20229
868.233	20294
868.364	20381
868.495	20256
868.625	20320
868.756	20758
868.886	20412
869.017	20541
869.147	20518
869.278	20564
869.408	20552
869.539	20617
869.669	20556
869.799	20503
869.929	20636
870.06	20598
870.19	20826
870.32	20769
870.45	20819
870.58	20720
870.71	20838
870.84	20921
870.97	20845
871.1	20861
871.23	21104
871.36	21146
871.489	20948
871.619	21028
871.749	21066
871.879	21218
872.008	21157
872.138	21036
872.267	21024
872.397	20902
872.526	20918
872.656	20956
872.785	20872
872.915	21161
873.044	21287
873.173	21150
873.303	21089
873.432	21150
873.561	21157
873.69	21116
873.819	21112
873.948	21199
874.077	21081
874.206	21112
874.335	21161
874.464	21184
874.593	21321
874.722	21226
874.851	21317
874.979	21363
875.108	21469
875.237	21359
875.365	21142
875.494	21291
875.623	21439
875.751	21294
875.88	21344
876.008	21500
876.136	21507
876.265	21804
876.393	21907
876.521	21838
876.65	21857
876.778	21823
876.906	21682
877.034	21648
877.162	21694
877.29	21682
877.418	21713
877.546	21736
877.674	21622
877.802	21625
877.93	21679
878.058	21675
878.185	21629
878.313	21713
878.441	21660
878.568	21564
878.696	21572
878.824	21701
878.951	21759
879.079	21743
879.206	22017
879.333	21899
879.461	21671
879.588	21698
879.715	21816
879.842	21949
879.97	21781
880.097	21629
880.224	21477
880.351	21507
880.478	21652
880.605	21477
880.732	21599
880.859	21823
880.986	21667
881.112	21519
881.239	21466
881.366	21363
881.493	21233
881.619	21039
881.746	21081
881.872	21070
881.999	20982
882.125	21070
882.252	21207
882.378	21096
882.505	21131
882.631	21062
882.757	20861
882.883	20956
883.01	20804
883.136	20804
883.262	20648
883.388	20697
883.514	20876
883.64	20796
883.766	20712
883.892	20602
884.018	20670
884.143	20701
884.269	20887
884.395	20545
884.52	20499
884.646	20533
884.772	20294
884.897	20320
885.023	20461
885.148	20545
885.274	20670
885.399	20590
885.524	20541
885.65	20511
885.775	20602
885.9	20499
886.025	20560
886.15	20564
886.275	20518
886.4	20427
886.525	20408
886.65	20309
886.775	20229
886.9	20511
887.025	20697
887.149	20393
887.274	20259
887.399	20244
887.523	20294
887.648	20126
887.773	20122
887.897	20381
888.021	20252
888.146	20248
888.27	20324
888.395	20377
888.519	20259
888.643	20244
888.767	20320
888.891	20195
889.015	19936
889.139	20008
889.263	20005
889.387	20119
889.511	20256
889.635	20145
889.759	19906
889.883	19970
890.006	19925
890.13	20119
890.254	19906
890.377	19955
890.501	19719
890.624	19860
890.748	19784
890.871	19715
890.995	19495
891.118	19548
891.241	19704
891.364	19643
891.488	19685
891.611	19548
891.734	19559
891.857	19613
891.98	19658
892.103	19590
892.226	19670
892.349	19453
892.471	19339
892.594	19537
892.717	19563
892.839	19480
892.962	19468
893.085	19670
893.207	19510
893.33	19377
893.452	19510
893.575	19480
893.697	19521
893.819	19696
893.941	19639
894.064	19681
894.186	19464
894.308	19411
894.43	19559
894.552	19704
894.674	19628
894.796	19506
894.918	19491
895.04	19510
895.161	19597
895.283	19609
895.405	19441
895.526	19499
895.648	19552
895.769	19525
895.891	19521
896.012	19590
896.134	19605
896.255	19601
896.376	19529
896.498	19518
896.619	19693
896.74	19563
896.861	19639
896.982	19822
897.103	19887
897.224	19852
897.345	19803
897.466	19784
897.587	19772
897.708	19875
897.828	19795
897.949	19693
898.07	19624
898.19	19700
898.311	19932
898.431	19723
898.552	19704
898.672	19875
898.792	19807
898.913	19784
899.033	19616
899.153	19639
899.273	19430
899.393	19616
899.513	19548
899.633	19628
899.753	19616
899.873	19487
899.993	19548
900.113	19449
900.232	19533
900.352	19441
900.472	19358
900.591	19373
900.711	19316
900.83	19308
900.95	19392
901.069	19369
901.189	19194
901.308	19069
901.427	18856
901.546	18928
901.665	18947
901.784	18920
901.904	18776
902.023	18703
902.141	18540
902.26	18422
902.379	18551
902.498	18448
902.617	18376
902.735	18513
902.854	18391
902.973	18258
903.091	18064
903.21	18194
903.328	18114
903.446	17969
903.565	17901
903.683	17904
903.801	17840
903.919	17813
904.038	17779
904.156	17760
904.274	17722
904.392	17665
904.51	17619
904.627	17680
904.745	17642
904.863	17783
904.981	17501
905.098	17334
905.216	17433
905.334	17471
905.451	17383
905.569	17288
905.686	17334
905.803	17349
905.921	17143
906.038	17265
906.155	17159
906.272	17098
906.389	17105
906.506	16942
906.623	16987
906.74	16953
906.857	16729
906.974	16805
907.091	16995
907.208	16980
907.324	16896
907.441	16839
907.557	16740
907.674	16618
907.79	16489
907.907	16603
908.023	16702
908.139	16713
908.256	16535
908.372	16462
908.488	16440
908.604	16356
908.72	16261
908.836	16363
908.952	16363
909.068	16306
909.184	16447
909.3	16299
909.415	16375
909.531	16314
909.647	16154
909.762	16059
909.878	15926
909.993	16040
910.108	16055
910.224	15968
910.339	16013
910.454	15934
910.57	15911
910.685	15808
910.8	16128
910.915	16032
911.03	15888
911.145	15618
911.259	15534
911.374	15622
911.489	15610
911.604	15469
911.718	15401
911.833	15515
911.947	15302
912.062	15313
912.176	15458
912.291	15557
912.405	15397
912.519	15549
912.633	15618
912.748	15496
912.862	15283
912.976	15340
913.09	15161
913.204	15138
913.318	15222
913.431	15241
913.545	15214
913.659	15218
913.772	15180
913.886	15119
914	15077
914.113	15161
914.226	15252
914.34	15009
914.453	15024
914.566	15047
914.68	14948
914.793	14853
914.906	14712
915.019	14716
915.132	14610
915.245	14617
915.358	14682
915.47	14632
915.583	14590
915.696	14625
915.809	14762
915.921	14800
916.034	14556
916.146	14564
916.259	14533
916.371	14587
916.483	14644
916.595	14461
916.708	14507
916.82	14495
916.932	14484
917.044	14412
917.156	14507
917.268	14336
917.38	14294
917.491	14355
917.603	14248
917.715	14347
917.826	14396
917.938	14267
918.049	14092
918.161	14195
918.272	14484
918.384	14317
918.495	14145
918.606	14115
918.717	14027
918.828	14145
918.939	14107
919.05	14054
919.161	14092
919.272	13982
919.383	13951
919.494	14153
919.604	14191
919.715	14115
919.826	13936
919.936	14020
920.047	14123
920.157	14092
920.267	14290
920.378	14149
920.488	14020
920.598	14180
920.708	14438
920.818	14214
920.928	14176
921.038	14393
921.148	14286
921.258	13967
921.368	13925
921.477	13860
921.587	13731
921.697	13696
921.806	13765
921.916	13746
922.025	13464
922.134	13506
922.244	13384
922.353	13552
922.462	13392
922.571	13190
922.68	13145
922.789	13133
922.898	13236
923.007	13103
923.116	13126
923.224	12962
923.333	12966
923.442	12928
923.55	12844
923.659	12954
923.767	12989
923.876	12913
923.984	13015
924.092	12783
924.201	12962
924.309	12848
924.417	12882
924.525	12798
924.633	12791
924.741	13677
924.849	12650
924.956	12810
925.064	12566
925.172	12445
925.279	12490
925.387	12570
925.494	12555
925.602	12669
925.709	12608
925.816	12407
925.924	12494
926.031	12597
926.138	12441
926.245	12525
926.352	12445
926.459	12540
926.566	12578
926.673	12376
926.779	12330
926.886	12247
926.993	12171
927.099	12129
927.206	12079
927.312	12091
927.419	12163
927.525	12049
927.631	12117
927.737	12129
927.843	11969
927.95	11897
928.056	12015
928.162	11980
928.267	11927
928.373	12486
928.479	12034
928.585	11771
928.69	11870
928.796	11878
928.901	11805
929.007	11661
929.112	11783
929.218	11836
929.323	11779
929.428	11638
929.533	11805
929.638	11551
929.743	11665
929.848	11653
929.953	11581
930.058	11539
930.163	11299
930.267	11368
930.372	11596
930.477	11284
930.581	11551
930.685	11334
930.79	11246
930.894	11330
930.998	11189
931.103	11360
931.207	11037
931.311	10946
931.415	10869
931.519	10706
931.623	10641
