Data from test_V78500241_3230.txt Node
Date: Fri Mar 25 15:32:21 CST 2022
User: usil
Spectrometer: V785-0024
Trigger mode: 0
Integration Time (sec): 4.000000E-1
Scans to average: 1
Nonlinearity correction enabled: false
Boxcar width: 0
Storing dark spectrum: false
XAxis mode: Wavelengths
Number of Pixels in Spectrum: 1024
>>>>>Begin Spectral Data<<<<<
801.071	27317
801.214	27119
801.356	26925
801.499	26864
801.641	26765
801.783	26800
801.926	26857
802.068	26708
802.211	26636
802.353	26568
802.496	26400
802.638	26351
802.78	26396
802.923	26355
803.065	26237
803.208	26248
803.35	26294
803.492	26587
803.635	26419
803.777	26419
803.919	26389
804.061	26781
804.204	26579
804.346	26385
804.488	26282
804.63	26469
804.773	26377
804.915	26507
805.057	26549
805.199	26511
805.341	26473
805.483	26636
805.626	26663
805.768	26617
805.91	26689
806.052	26648
806.194	26606
806.336	26838
806.478	26621
806.62	26724
806.762	26682
806.904	26796
807.046	27024
807.188	26975
807.33	26876
807.472	27119
807.614	26868
807.756	26948
807.898	26880
808.04	26754
808.182	26804
808.324	26891
808.465	26929
808.607	27077
808.749	27256
808.891	27329
809.033	27386
809.174	27294
809.316	27142
809.458	27146
809.6	27161
809.741	27184
809.883	27306
810.025	27534
810.166	27458
810.308	27473
810.45	27431
810.591	27481
810.733	27298
810.875	27260
811.016	27039
811.158	27013
811.299	27374
811.441	27321
811.582	27317
811.724	27241
811.865	27157
812.007	27055
812.148	27233
812.29	27378
812.431	27389
812.573	27500
812.714	27587
812.855	27880
812.997	27804
813.138	27895
813.279	27838
813.421	27755
813.562	27637
813.703	27405
813.845	27302
813.986	27051
814.127	26948
814.268	26921
814.41	26891
814.551	26724
814.692	26872
814.833	26773
814.974	26727
815.115	26830
815.256	26724
815.397	26686
815.539	26564
815.68	26731
815.821	26492
815.962	26629
816.103	26583
816.244	26526
816.385	26362
816.526	26320
816.666	26374
816.807	26176
816.948	26187
817.089	26180
817.23	26084
817.371	26043
817.512	26103
817.653	26020
817.793	25887
817.934	26043
818.075	26046
818.216	26069
818.356	26035
818.497	25940
818.638	25814
818.778	25818
818.919	25887
819.06	25993
819.2	25966
819.341	26187
819.481	26039
819.622	26240
819.762	26415
819.903	26552
820.043	26244
820.184	26195
820.324	26256
820.465	26191
820.605	26259
820.746	26126
820.886	26122
821.026	26233
821.167	26221
821.307	26202
821.447	26210
821.588	26138
821.728	25738
821.868	25666
822.008	25575
822.149	25613
822.289	25472
822.429	25472
822.569	25285
822.709	25297
822.849	25118
822.99	25015
823.13	25126
823.27	25122
823.41	24939
823.55	24837
823.69	24916
823.83	24935
823.97	24871
824.11	24844
824.25	24779
824.389	24711
824.529	24757
824.669	24741
824.809	24886
824.949	24886
825.089	24802
825.228	24810
825.368	24631
825.508	24540
825.648	24665
825.787	24749
825.927	24760
826.067	24566
826.206	24544
826.346	24734
826.485	24783
826.625	24654
826.765	24681
826.904	24700
827.044	24342
827.183	24388
827.323	24315
827.462	24403
827.601	24388
827.741	24372
827.88	24399
828.02	24254
828.159	24182
828.298	24273
828.437	24388
828.577	24239
828.716	24490
828.855	24171
828.994	23950
829.134	24194
829.273	24163
829.412	24045
829.551	24106
829.69	24022
829.829	24045
829.968	24213
830.107	24091
830.246	24011
830.385	23939
830.524	23980
830.663	23805
830.802	23824
830.941	23756
831.08	23722
831.219	23714
831.357	23672
831.496	23783
831.635	23661
831.774	23585
831.913	23600
832.051	23318
832.19	23433
832.329	23623
832.467	23261
832.606	23345
832.744	23318
832.883	23246
833.022	23356
833.16	23471
833.299	23322
833.437	23277
833.576	23353
833.714	23402
833.852	23433
833.991	23364
834.129	23471
834.267	23417
834.406	23493
834.544	23474
834.682	23478
834.821	23406
834.959	23547
835.097	23345
835.235	23360
835.373	23387
835.511	23417
835.65	23170
835.788	23299
835.926	23105
836.064	23136
836.202	23029
836.34	23223
836.478	23318
836.615	23231
836.753	23280
836.891	23261
837.029	23349
837.167	23181
837.305	23151
837.443	23288
837.58	23124
837.718	23178
837.856	23155
837.993	23003
838.131	23071
838.269	23003
838.406	22927
838.544	22995
838.681	22736
838.819	22717
838.956	22584
839.094	22557
839.231	22565
839.369	22744
839.506	22911
839.643	22797
839.781	22618
839.918	22523
840.055	22687
840.193	22584
840.33	22538
840.467	22394
840.604	22603
840.742	22702
840.879	22367
841.016	22462
841.153	22417
841.29	22577
841.427	22478
841.564	22523
841.701	22504
841.838	22489
841.975	22394
842.112	22440
842.249	22276
842.385	22428
842.522	22599
842.659	22386
842.796	22226
842.933	22333
843.069	22272
843.206	22219
843.343	22322
843.479	22329
843.616	22207
843.752	22036
843.889	21968
844.025	22173
844.162	21983
844.298	22101
844.435	21987
844.571	21903
844.708	22093
844.844	22116
844.98	22215
845.117	22158
845.253	22017
845.389	21911
845.525	22025
845.661	21918
845.798	21652
845.934	21816
846.07	21770
846.206	21713
846.342	21911
846.478	21720
846.614	21587
846.75	21462
846.886	21488
847.022	21682
847.158	21568
847.294	21515
847.429	21591
847.565	21576
847.701	21797
847.837	21222
847.972	21146
848.108	21222
848.244	21344
848.379	21165
848.515	21085
848.65	21176
848.786	21249
848.921	21260
849.057	21207
849.192	21180
849.328	21112
849.463	21176
849.598	21112
849.734	21066
849.869	21066
850.004	20914
850.14	20986
850.275	20948
850.41	20834
850.545	20868
850.68	20842
850.815	21001
850.95	20979
851.085	20994
851.22	20986
851.355	20967
851.49	20918
851.625	20891
851.76	20826
851.895	20880
852.03	20883
852.165	20880
852.299	20785
852.434	21001
852.569	20887
852.703	20899
852.838	20952
852.973	20998
853.107	20944
853.242	20853
853.376	20769
853.511	20640
853.645	20724
853.78	20815
853.914	20670
854.048	20659
854.183	20648
854.317	20716
854.451	20929
854.585	20777
854.72	20686
854.854	20720
854.988	20495
855.122	20830
855.256	20556
855.39	20845
855.524	20823
855.658	20705
855.792	20716
855.926	20701
856.06	20792
856.194	20891
856.327	20735
856.461	20674
856.595	20670
856.729	20606
856.862	20864
856.996	20682
857.13	20670
857.263	20804
857.397	20834
857.53	20659
857.664	20720
857.797	20735
857.931	20838
858.064	20602
858.197	20781
858.331	20716
858.464	20613
858.597	20621
858.731	20640
858.864	20549
858.997	20659
859.13	20587
859.263	20697
859.396	20796
859.529	20640
859.662	20682
859.795	20689
859.928	20708
860.061	20804
860.194	20857
860.327	20743
860.46	20861
860.592	20891
860.725	20781
860.858	20864
860.99	20632
861.123	20716
861.256	20629
861.388	20769
861.521	21435
861.653	20594
861.786	20427
861.918	20575
862.05	20598
862.183	20454
862.315	20648
862.447	20739
862.58	20830
862.712	20415
862.844	20499
862.976	20537
863.108	20499
863.24	20849
863.372	20370
863.504	20396
863.636	20427
863.768	20381
863.9	20446
864.032	20317
864.164	20423
864.296	20473
864.428	20503
864.559	20495
864.691	20469
864.823	20560
864.954	20385
865.086	20389
865.217	20377
865.349	20176
865.48	20271
865.612	20393
865.743	20476
865.875	20370
866.006	20336
866.137	20374
866.269	20313
866.4	20366
866.531	20229
866.662	20206
866.793	20229
866.924	20301
867.055	20336
867.186	20168
867.317	20237
867.448	20240
867.579	20240
867.71	20237
867.841	20183
867.972	20324
868.103	20199
868.233	20400
868.364	20355
868.495	20336
868.625	20541
868.756	20644
868.886	20454
869.017	20480
869.147	20667
869.278	20568
869.408	20438
869.539	20514
869.669	20514
869.799	20663
869.929	20648
870.06	20579
870.19	20800
870.32	20838
870.45	20861
870.58	20891
870.71	21001
870.84	21005
870.97	20944
871.1	20998
871.23	21146
871.36	21123
871.489	20937
871.619	21024
871.749	21047
871.879	21077
872.008	21169
872.138	21070
872.267	21131
872.397	20994
872.526	20998
872.656	21081
872.785	20956
872.915	21230
873.044	21214
873.173	21066
873.303	21180
873.432	21146
873.561	21176
873.69	21150
873.819	21131
873.948	21230
874.077	21085
874.206	21119
874.335	21218
874.464	21291
874.593	21424
874.722	21344
874.851	21348
874.979	21431
875.108	21428
875.237	21351
875.365	21298
875.494	21408
875.623	21420
875.751	21344
875.88	21469
876.008	21553
876.136	21595
876.265	21789
876.393	21998
876.521	21918
876.65	21865
876.778	21789
876.906	21622
877.034	21804
877.162	21789
877.29	21694
877.418	21629
877.546	21755
877.674	21736
877.802	21671
877.93	21720
878.058	21637
878.185	21553
878.313	21679
878.441	21728
878.568	21526
878.696	21663
878.824	21850
878.951	21751
879.079	21781
879.206	21972
879.333	21911
879.461	21823
879.588	21964
879.715	21838
879.842	21991
879.97	21861
880.097	21523
880.224	21572
880.351	21622
880.478	21515
880.605	21488
880.732	21652
880.859	21732
880.986	21534
881.112	21751
881.239	21431
881.366	21367
881.493	21039
881.619	21077
881.746	21169
881.872	21169
881.999	21169
882.125	21093
882.252	21161
882.378	21138
882.505	21230
882.631	21013
882.757	20891
882.883	20880
883.01	20853
883.136	20849
883.262	20716
883.388	20667
883.514	20914
883.64	20773
883.766	20731
883.892	20579
884.018	20712
884.143	20765
884.269	20876
884.395	20522
884.52	20465
884.646	20587
884.772	20541
884.897	20396
885.023	20488
885.148	20545
885.274	20682
885.399	20541
885.524	20415
885.65	20404
885.775	20495
885.9	20473
886.025	20598
886.15	20609
886.275	20526
886.4	20332
886.525	20484
886.65	20446
886.775	20362
886.9	20549
887.025	20663
887.149	20366
887.274	20358
887.399	20370
887.523	20301
887.648	20278
887.773	20122
887.897	20385
888.021	20294
888.146	20206
888.27	20362
888.395	20252
888.519	20290
888.643	20320
888.767	20374
888.891	20206
889.015	19951
889.139	20031
889.263	20012
889.387	20233
889.511	20286
889.635	20180
889.759	20096
889.883	20054
890.006	20054
890.13	20286
890.254	19936
890.377	20020
890.501	19712
890.624	19750
890.748	19947
890.871	19696
890.995	19674
891.118	19586
891.241	19658
891.364	19594
891.488	19769
891.611	19655
891.734	19643
891.857	19556
891.98	19734
892.103	19651
892.226	19597
892.349	19689
892.471	19384
892.594	19628
892.717	19586
892.839	19548
892.962	19597
893.085	19529
893.207	19563
893.33	19384
893.452	19472
893.575	19544
893.697	19529
893.819	19784
893.941	19784
894.064	19708
894.186	19510
894.308	19540
894.43	19666
894.552	19715
894.674	19635
894.796	19495
894.918	19407
895.04	19499
895.161	19578
895.283	19571
895.405	19525
895.526	19533
895.648	19556
895.769	19658
895.891	19597
896.012	19658
896.134	19632
896.255	19582
896.376	19613
896.498	19529
896.619	19578
896.74	19567
896.861	19578
896.982	19986
897.103	19982
897.224	19757
897.345	19750
897.466	19723
897.587	19818
897.708	20039
897.828	19845
897.949	19849
898.07	19677
898.19	19662
898.311	19826
898.431	19677
898.552	19772
898.672	19963
898.792	19864
898.913	19803
899.033	19738
899.153	19552
899.273	19457
899.393	19514
899.513	19704
899.633	19567
899.753	19548
899.873	19567
899.993	19540
900.113	19464
900.232	19445
900.352	19472
900.472	19362
900.591	19274
900.711	19236
900.83	19209
900.95	19411
901.069	19369
901.189	19152
901.308	19080
901.427	18954
901.546	18951
901.665	18985
901.784	18951
901.904	18810
902.023	18700
902.141	18479
902.26	18521
902.379	18673
902.498	18517
902.617	18456
902.735	18460
902.854	18357
902.973	18334
903.091	18102
903.21	18182
903.328	18060
903.446	18148
903.565	17897
903.683	17969
903.801	17794
903.919	17950
904.038	17813
904.156	17752
904.274	17699
904.392	17691
904.51	17653
904.627	17661
904.745	17832
904.863	17665
904.981	17505
905.098	17391
905.216	17231
905.334	17398
905.451	17528
905.569	17345
905.686	17353
905.803	17337
905.921	17246
906.038	17246
906.155	17197
906.272	17124
906.389	17155
906.506	16892
906.623	16869
906.74	16820
906.857	16847
906.974	16828
907.091	16987
907.208	17022
907.324	16942
907.441	16790
907.557	16558
907.674	16546
907.79	16535
907.907	16622
908.023	16630
908.139	16653
908.256	16656
908.372	16550
908.488	16580
908.604	16398
908.72	16310
908.836	16451
908.952	16386
909.068	16440
909.184	16459
909.3	16348
909.415	16299
909.531	16329
909.647	16128
909.762	16055
909.878	16105
909.993	16071
910.108	16082
910.224	16017
910.339	16059
910.454	16025
910.57	15838
910.685	15800
910.8	16143
910.915	16010
911.03	15873
911.145	15705
911.259	15743
911.374	15644
911.489	15576
911.604	15549
911.718	15325
911.833	15439
911.947	15393
912.062	15348
912.176	15420
912.291	15454
912.405	15439
912.519	15622
912.633	15671
912.748	15507
912.862	15401
912.976	15264
913.09	15150
913.204	15233
913.318	15275
913.431	15302
913.545	15211
913.659	15321
913.772	15176
913.886	15032
914	15013
914.113	15116
914.226	15150
914.34	15157
914.453	14921
914.566	15135
914.68	14941
914.793	14967
914.906	14819
915.019	14655
915.132	14632
915.245	14606
915.358	14762
915.47	14659
915.583	14674
915.696	14663
915.809	14739
915.921	14777
916.034	14663
916.146	14625
916.259	14503
916.371	14708
916.483	14636
916.595	14571
916.708	14571
916.82	14507
916.932	14499
917.044	14434
917.156	14465
917.268	14286
917.38	14343
917.491	14336
917.603	14351
917.715	14454
917.826	14381
917.938	14233
918.049	14183
918.161	14431
918.272	14404
918.384	14457
918.495	14218
918.606	14199
918.717	14031
918.828	14164
918.939	14069
919.05	13963
919.161	14111
919.272	13986
919.383	13883
919.494	14183
919.604	14286
919.715	14145
919.826	14107
919.936	14088
920.047	14134
920.157	14084
920.267	14199
920.378	14084
920.488	14005
920.598	14180
920.708	14400
920.818	14218
920.928	14161
921.038	14377
921.148	14301
921.258	14043
921.368	14016
921.477	13894
921.587	13757
921.697	13731
921.806	13894
921.916	13655
922.025	13518
922.134	13586
922.244	13403
922.353	13575
922.462	13438
922.571	13247
922.68	13202
922.789	13240
922.898	13141
923.007	13072
923.116	13118
923.224	13168
923.333	13126
923.442	13019
923.55	12962
923.659	13008
923.767	13038
923.876	12863
923.984	13027
924.092	12817
924.201	12924
924.309	12909
924.417	12886
924.525	12852
924.633	12779
924.741	13746
924.849	12601
924.956	12757
925.064	12566
925.172	12521
925.279	12681
925.387	12589
925.494	12597
925.602	12658
925.709	12551
925.816	12494
925.924	12525
926.031	12635
926.138	12486
926.245	12521
926.352	12490
926.459	12509
926.566	12635
926.673	12483
926.779	12327
926.886	12327
926.993	12144
927.099	12190
927.206	12129
927.312	12079
927.419	12220
927.525	12129
927.631	12106
927.737	12079
927.843	11980
927.95	11866
928.056	11954
928.162	11954
928.267	12026
928.373	12688
928.479	12057
928.585	11863
928.69	11950
928.796	12041
928.901	11821
929.007	11680
929.112	11840
929.218	11855
929.323	11752
929.428	11722
929.533	11889
929.638	11668
929.743	11630
929.848	11688
929.953	11589
930.058	11512
930.163	11353
930.267	11368
930.372	11532
930.477	11414
930.581	11604
930.685	11467
930.79	11288
930.894	11364
930.998	11280
931.103	11467
931.207	11083
931.311	10984
931.415	10881
931.519	10740
931.623	10706
