Data from test_V78500241_587.txt Node
Date: Fri Mar 25 15:13:56 CST 2022
User: usil
Spectrometer: V785-0024
Trigger mode: 0
Integration Time (sec): 4.000000E-1
Scans to average: 1
Nonlinearity correction enabled: false
Boxcar width: 0
Storing dark spectrum: false
XAxis mode: Wavelengths
Number of Pixels in Spectrum: 1024
>>>>>Begin Spectral Data<<<<<
801.071	27260
801.214	27214
801.356	26895
801.499	26914
801.641	26769
801.783	26777
801.926	26880
802.068	26773
802.211	26758
802.353	26686
802.496	26587
802.638	26469
802.78	26412
802.923	26339
803.065	26492
803.208	26374
803.35	26537
803.492	26442
803.635	26594
803.777	26393
803.919	26621
804.061	26727
804.204	26579
804.346	26598
804.488	26587
804.63	26644
804.773	26446
804.915	26556
805.057	26689
805.199	26625
805.341	26708
805.483	26788
805.626	26583
805.768	26670
805.91	26724
806.052	26731
806.194	26488
806.336	26769
806.478	26731
806.62	26590
806.762	26811
806.904	26994
807.046	27237
807.188	27180
807.33	27154
807.472	27066
807.614	26975
807.756	27036
807.898	26948
808.04	26944
808.182	26906
808.324	26902
808.465	26891
808.607	27089
808.749	27321
808.891	27291
809.033	27389
809.174	27317
809.316	27348
809.458	27340
809.6	27154
809.741	27427
809.883	27351
810.025	27530
810.166	27618
810.308	27507
810.45	27610
810.591	27534
810.733	27469
810.875	27340
811.016	27233
811.158	27138
811.299	27351
811.441	27439
811.582	27412
811.724	27279
811.865	27355
812.007	27214
812.148	27332
812.29	27317
812.431	27523
812.573	27542
812.714	27804
812.855	27762
812.997	27846
813.138	28101
813.279	28006
813.421	27911
813.562	27880
813.703	27603
813.845	27462
813.986	27287
814.127	27100
814.268	26971
814.41	27028
814.551	26918
814.692	26982
814.833	26845
814.974	26971
815.115	27077
815.256	26864
815.397	26914
815.539	26845
815.68	26796
815.821	26758
815.962	26792
816.103	26716
816.244	26629
816.385	26648
816.526	26537
816.666	26465
816.807	26122
816.948	26396
817.089	26450
817.23	26298
817.371	26309
817.512	26233
817.653	26161
817.793	26111
817.934	26225
818.075	26252
818.216	26332
818.356	26218
818.497	26005
818.638	25982
818.778	26024
818.919	26031
819.06	26115
819.2	26157
819.341	26252
819.481	26149
819.622	26225
819.762	26552
819.903	26549
820.043	26568
820.184	26415
820.324	26381
820.465	26450
820.605	26408
820.746	26362
820.886	26229
821.026	26305
821.167	26210
821.307	26271
821.447	26301
821.588	26100
821.728	26024
821.868	25814
822.008	25753
822.149	25723
822.289	25597
822.429	25411
822.569	25346
822.709	25358
822.849	25274
822.99	25270
823.13	25240
823.27	25213
823.41	25023
823.55	24840
823.69	25171
823.83	25061
823.97	24981
824.11	24833
824.25	24844
824.389	24738
824.529	24859
824.669	24859
824.809	25042
824.949	24958
825.089	24924
825.228	24954
825.368	24833
825.508	24681
825.648	24642
825.787	24890
825.927	24821
826.067	24688
826.206	24772
826.346	24768
826.485	24783
826.625	24639
826.765	24795
826.904	24878
827.044	24642
827.183	24475
827.323	24407
827.462	24467
827.601	24528
827.741	24467
827.88	24544
828.02	24422
828.159	24460
828.298	24418
828.437	24479
828.577	24407
828.716	24608
828.855	24422
828.994	24251
829.134	24216
829.273	24304
829.412	24140
829.551	24121
829.69	24152
829.829	24178
829.968	24311
830.107	24270
830.246	24186
830.385	24106
830.524	24022
830.663	24030
830.802	23859
830.941	23824
831.08	23653
831.219	23824
831.357	23821
831.496	24038
831.635	23805
831.774	23611
831.913	23634
832.051	23714
832.19	23642
832.329	23627
832.467	23512
832.606	23421
832.744	23372
832.883	23395
833.022	23337
833.16	23414
833.299	23425
833.437	23490
833.576	23592
833.714	23463
833.852	23554
833.991	23596
834.129	23676
834.267	23562
834.406	23562
834.544	23535
834.682	23531
834.821	23486
834.959	23676
835.097	23379
835.235	23558
835.373	23440
835.511	23448
835.65	23379
835.788	23433
835.926	23326
836.064	23216
836.202	23208
836.34	23360
836.478	23421
836.615	23239
836.753	23318
836.891	23436
837.029	23376
837.167	23326
837.305	23318
837.443	23170
837.58	23216
837.718	23345
837.856	23379
837.993	23277
838.131	23132
838.269	23041
838.406	23124
838.544	23056
838.681	22946
838.819	22755
838.956	22660
839.094	22546
839.231	22641
839.369	22786
839.506	23117
839.643	22961
839.781	22752
839.918	22607
840.055	22656
840.193	22580
840.33	22527
840.467	22596
840.604	22649
840.742	22721
840.879	22538
841.016	22561
841.153	22462
841.29	22607
841.427	22607
841.564	22740
841.701	22577
841.838	22603
841.975	22508
842.112	22538
842.249	22436
842.385	22405
842.522	22519
842.659	22402
842.796	22421
842.933	22303
843.069	22242
843.206	22402
843.343	22417
843.479	22325
843.616	22516
843.752	22105
843.889	22261
844.025	22306
844.162	22116
844.298	22200
844.435	22177
844.571	22128
844.708	22223
844.844	22276
844.98	22268
845.117	22185
845.253	22101
845.389	22017
845.525	22040
845.661	22063
845.798	21926
845.934	21994
846.07	21907
846.206	21899
846.342	22112
846.478	21903
846.614	21713
846.75	21511
846.886	21717
847.022	21671
847.158	21618
847.294	21477
847.429	21603
847.565	21481
847.701	21892
847.837	21348
847.972	21374
848.108	21496
848.244	21408
848.379	21199
848.515	21287
848.65	21306
848.786	21199
848.921	21176
849.057	21382
849.192	21306
849.328	21211
849.463	21180
849.598	21287
849.734	21116
849.869	21077
850.004	21081
850.14	21077
850.275	20979
850.41	20868
850.545	20998
850.68	20979
850.815	21047
850.95	20963
851.085	21123
851.22	21066
851.355	20925
851.49	20895
851.625	20994
851.76	20979
851.895	20910
852.03	20918
852.165	20918
852.299	21013
852.434	21093
852.569	20868
852.703	21123
852.838	21150
852.973	21089
853.107	21150
853.242	20921
853.376	20906
853.511	20663
853.645	20746
853.78	20941
853.914	20796
854.048	20758
854.183	20902
854.317	20929
854.451	21051
854.585	20781
854.72	20689
854.854	20891
854.988	20804
855.122	20769
855.256	20568
855.39	20773
855.524	20906
855.658	20739
855.792	20853
855.926	20773
856.06	20887
856.194	20834
856.327	20693
856.461	20788
856.595	20693
856.729	20739
856.862	20883
856.996	20891
857.13	20823
857.263	20990
857.397	20876
857.53	20830
857.664	20849
857.797	20876
857.931	20849
858.064	20804
858.197	20857
858.331	20834
858.464	20785
858.597	20663
858.731	20693
858.864	20743
858.997	20735
859.13	20743
859.263	20754
859.396	20834
859.529	20792
859.662	20967
859.795	20830
859.928	20792
860.061	21001
860.194	21058
860.327	20902
860.46	20834
860.592	20933
860.725	20979
860.858	21001
860.99	20819
861.123	20689
861.256	20720
861.388	20735
861.521	21549
861.653	20659
861.786	20629
861.918	20720
862.05	20609
862.183	20762
862.315	20655
862.447	20842
862.58	20735
862.712	20571
862.844	20412
862.976	20682
863.108	20629
863.24	21017
863.372	20446
863.504	20613
863.636	20427
863.768	20484
863.9	20495
864.032	20450
864.164	20492
864.296	20636
864.428	20674
864.559	20526
864.691	20533
864.823	20533
864.954	20457
865.086	20511
865.217	20358
865.349	20313
865.48	20366
865.612	20431
865.743	20469
865.875	20560
866.006	20526
866.137	20385
866.269	20556
866.4	20499
866.531	20282
866.662	20332
866.793	20278
866.924	20218
867.055	20469
867.186	20488
867.317	20248
867.448	20172
867.579	20305
867.71	20252
867.841	20328
867.972	20423
868.103	20362
868.233	20503
868.364	20377
868.495	20305
868.625	20533
868.756	20689
868.886	20480
869.017	20590
869.147	20705
869.278	20674
869.408	20800
869.539	20663
869.669	20659
869.799	20533
869.929	20701
870.06	20720
870.19	20883
870.32	20800
870.45	20948
870.58	20910
870.71	21123
870.84	21211
870.97	21062
871.1	20963
871.23	21184
871.36	21237
871.489	20990
871.619	21245
871.749	21207
871.879	21142
872.008	21378
872.138	21203
872.267	21154
872.397	20921
872.526	21089
872.656	21005
872.785	20979
872.915	21211
873.044	21325
873.173	21431
873.303	21249
873.432	21264
873.561	21252
873.69	21199
873.819	21188
873.948	21283
874.077	21173
874.206	21161
874.335	21218
874.464	21237
874.593	21473
874.722	21340
874.851	21580
874.979	21504
875.108	21557
875.237	21485
875.365	21405
875.494	21317
875.623	21534
875.751	21302
875.88	21561
876.008	21530
876.136	21663
876.265	21781
876.393	22013
876.521	21968
876.65	21941
876.778	21865
876.906	21915
877.034	21850
877.162	21823
877.29	21690
877.418	21793
877.546	21793
877.674	21709
877.802	21747
877.93	21850
878.058	21698
878.185	21644
878.313	21816
878.441	21869
878.568	21720
878.696	21998
878.824	21854
878.951	21827
879.079	21972
879.206	22002
879.333	21915
879.461	21865
879.588	21835
879.715	22082
879.842	22048
879.97	21865
880.097	21648
880.224	21606
880.351	21728
880.478	21614
880.605	21572
880.732	21614
880.859	21819
880.986	21766
881.112	21572
881.239	21561
881.366	21378
881.493	21325
881.619	21260
881.746	21329
881.872	21199
881.999	21085
882.125	21077
882.252	21283
882.378	21214
882.505	21279
882.631	21135
882.757	20982
882.883	21051
883.01	20963
883.136	20864
883.262	20804
883.388	20758
883.514	20979
883.64	20842
883.766	20819
883.892	20762
884.018	20663
884.143	20963
884.269	21005
884.395	20670
884.52	20571
884.646	20575
884.772	20457
884.897	20446
885.023	20499
885.148	20606
885.274	20807
885.399	20571
885.524	20518
885.65	20518
885.775	20431
885.9	20632
886.025	20750
886.15	20648
886.275	20552
886.4	20442
886.525	20552
886.65	20419
886.775	20442
886.9	20754
887.025	20697
887.149	20617
887.274	20358
887.399	20377
887.523	20355
887.648	20294
887.773	20301
887.897	20362
888.021	20377
888.146	20278
888.27	20381
888.395	20442
888.519	20423
888.643	20408
888.767	20229
888.891	20221
889.015	20229
889.139	20218
889.263	20096
889.387	20172
889.511	20446
889.635	20332
889.759	20092
889.883	20084
890.006	20252
890.13	20271
890.254	20039
890.377	20062
890.501	20020
890.624	19860
890.748	19974
890.871	19803
890.995	19830
891.118	19784
891.241	19689
891.364	19776
891.488	19921
891.611	19803
891.734	19704
891.857	19780
891.98	19601
892.103	19734
892.226	19852
892.349	19685
892.471	19430
892.594	19605
892.717	19651
892.839	19635
892.962	19635
893.085	19807
893.207	19670
893.33	19605
893.452	19647
893.575	19658
893.697	19635
893.819	19750
893.941	19830
894.064	19830
894.186	19609
894.308	19529
894.43	19655
894.552	19822
894.674	19689
894.796	19533
894.918	19639
895.04	19483
895.161	19662
895.283	19734
895.405	19613
895.526	19616
895.648	19487
895.769	19712
895.891	19639
896.012	19685
896.134	19712
896.255	19681
896.376	19624
896.498	19628
896.619	19738
896.74	19647
896.861	19662
896.982	19944
897.103	20046
897.224	19978
897.345	19811
897.466	19814
897.587	19791
897.708	19989
897.828	19906
897.949	19708
898.07	19788
898.19	19746
898.311	19993
898.431	19868
898.552	19822
898.672	19906
898.792	19856
898.913	19887
899.033	19719
899.153	19616
899.273	19521
899.393	19685
899.513	19639
899.633	19696
899.753	19540
899.873	19506
899.993	19613
900.113	19605
900.232	19590
900.352	19521
900.472	19403
900.591	19377
900.711	19350
900.83	19293
900.95	19518
901.069	19441
901.189	19350
901.308	19137
901.427	19031
901.546	19027
901.665	18924
901.784	18962
901.904	18875
902.023	18726
902.141	18536
902.26	18540
902.379	18661
902.498	18410
902.617	18426
902.735	18483
902.854	18540
902.973	18490
903.091	18228
903.21	18213
903.328	18182
903.446	18079
903.565	18064
903.683	18030
903.801	17859
903.919	17984
904.038	17882
904.156	17745
904.274	17897
904.392	17680
904.51	17821
904.627	17695
904.745	17710
904.863	17809
904.981	17539
905.098	17410
905.216	17402
905.334	17425
905.451	17463
905.569	17429
905.686	17452
905.803	17391
905.921	17231
906.038	17406
906.155	17166
906.272	17239
906.389	17159
906.506	17014
906.623	17010
906.74	16984
906.857	16778
906.974	16976
907.091	17113
907.208	17132
907.324	17071
907.441	16771
907.557	16744
907.674	16759
907.79	16713
907.907	16748
908.023	16668
908.139	16847
908.256	16736
908.372	16497
908.488	16656
908.604	16493
908.72	16284
908.836	16409
908.952	16375
909.068	16466
909.184	16592
909.3	16432
909.415	16592
909.531	16424
909.647	16215
909.762	16226
909.878	16116
909.993	16154
910.108	16200
910.224	16112
910.339	16207
910.454	16093
910.57	15918
910.685	15869
910.8	16101
910.915	16105
911.03	15934
911.145	15854
911.259	15732
911.374	15846
911.489	15751
911.604	15599
911.718	15496
911.833	15492
911.947	15507
912.062	15367
912.176	15447
912.291	15481
912.405	15302
912.519	15667
912.633	15580
912.748	15530
912.862	15454
912.976	15275
913.09	15230
913.204	15279
913.318	15287
913.431	15462
913.545	15374
913.659	15401
913.772	15329
913.886	15207
914	15104
914.113	15230
914.226	15161
914.34	15192
914.453	14967
914.566	15142
914.68	14994
914.793	14944
914.906	14788
915.019	14632
915.132	14655
915.245	14815
915.358	14781
915.47	14716
915.583	14720
915.696	14727
915.809	14788
915.921	14956
916.034	14739
916.146	14678
916.259	14606
916.371	14796
916.483	14655
916.595	14556
916.708	14564
916.82	14571
916.932	14640
917.044	14476
917.156	14533
917.268	14473
917.38	14400
917.491	14400
917.603	14362
917.715	14454
917.826	14514
917.938	14355
918.049	14252
918.161	14381
918.272	14374
918.384	14663
918.495	14313
918.606	14286
918.717	14115
918.828	14153
918.939	14237
919.05	14138
919.161	14176
919.272	13913
919.383	14069
919.494	14183
919.604	14389
919.715	14187
919.826	14130
919.936	14039
920.047	14252
920.157	14202
920.267	14347
920.378	14145
920.488	14084
920.598	14347
920.708	14465
920.818	14259
920.928	14275
921.038	14393
921.148	14385
921.258	14134
921.368	14024
921.477	13849
921.587	13898
921.697	13750
921.806	13837
921.916	13795
922.025	13636
922.134	13491
922.244	13563
922.353	13502
922.462	13388
922.571	13304
922.68	13190
922.789	13228
922.898	13232
923.007	13080
923.116	13259
923.224	13149
923.333	13160
923.442	13065
923.55	12973
923.659	13076
923.767	13118
923.876	12962
923.984	13061
924.092	12806
924.201	12947
924.309	13004
924.417	12966
924.525	12852
924.633	12886
924.741	13628
924.849	12688
924.956	12825
925.064	12715
925.172	12585
925.279	12692
925.387	12597
925.494	12498
925.602	12719
925.709	12627
925.816	12429
925.924	12502
926.031	12620
926.138	12635
926.245	12589
926.352	12494
926.459	12566
926.566	12555
926.673	12601
926.779	12407
926.886	12391
926.993	12228
927.099	12155
927.206	12152
927.312	12186
927.419	12228
927.525	12102
927.631	12224
927.737	12098
927.843	12015
927.95	11904
928.056	11996
928.162	12015
928.267	12060
928.373	12707
928.479	12076
928.585	11931
928.69	11973
928.796	12068
928.901	11870
929.007	11817
929.112	11889
929.218	11813
929.323	11809
929.428	11703
929.533	11866
929.638	11745
929.743	11805
929.848	11790
929.953	11672
930.058	11623
930.163	11379
930.267	11558
930.372	11551
930.477	11455
930.581	11649
930.685	11554
930.79	11341
930.894	11433
930.998	11356
931.103	11433
931.207	11124
931.311	11041
931.415	10862
931.519	10691
931.623	10725
