Data from test_V78500241_3513.txt Node
Date: Fri Mar 25 15:34:19 CST 2022
User: usil
Spectrometer: V785-0024
Trigger mode: 0
Integration Time (sec): 4.000000E-1
Scans to average: 1
Nonlinearity correction enabled: false
Boxcar width: 0
Storing dark spectrum: false
XAxis mode: Wavelengths
Number of Pixels in Spectrum: 1024
>>>>>Begin Spectral Data<<<<<
801.071	27389
801.214	27237
801.356	27218
801.499	27001
801.641	26876
801.783	26868
801.926	26975
802.068	27058
802.211	26872
802.353	26667
802.496	26606
802.638	26556
802.78	26511
802.923	26450
803.065	26427
803.208	26518
803.35	26499
803.492	26754
803.635	26670
803.777	26575
803.919	26659
804.061	27089
804.204	26606
804.346	26526
804.488	26575
804.63	26746
804.773	26541
804.915	26655
805.057	26800
805.199	26708
805.341	26762
805.483	26826
805.626	26682
805.768	26716
805.91	26804
806.052	26758
806.194	26648
806.336	26963
806.478	26750
806.62	26811
806.762	26899
806.904	27047
807.046	27393
807.188	27344
807.33	27203
807.472	27313
807.614	27192
807.756	27093
807.898	27085
808.04	26872
808.182	27119
808.324	26994
808.465	27173
808.607	27237
808.749	27431
808.891	27469
809.033	27462
809.174	27481
809.316	27393
809.458	27294
809.6	27363
809.741	27504
809.883	27599
810.025	27694
810.166	27625
810.308	27747
810.45	27648
810.591	27549
810.733	27466
810.875	27351
811.016	27252
811.158	27351
811.299	27363
811.441	27549
811.582	27466
811.724	27481
811.865	27458
812.007	27336
812.148	27473
812.29	27382
812.431	27606
812.573	27747
812.714	27800
812.855	27835
812.997	27880
813.138	28090
813.279	28090
813.421	27914
813.562	27766
813.703	27751
813.845	27595
813.986	27287
814.127	27169
814.268	27043
814.41	27138
814.551	27058
814.692	27009
814.833	27017
814.974	26948
815.115	27058
815.256	26811
815.397	27123
815.539	26895
815.68	26762
815.821	26762
815.962	26781
816.103	26880
816.244	26788
816.385	26686
816.526	26625
816.666	26488
816.807	26290
816.948	26495
817.089	26507
817.23	26423
817.371	26415
817.512	26320
817.653	26214
817.793	26305
817.934	26309
818.075	26317
818.216	26396
818.356	26122
818.497	26221
818.638	26027
818.778	26096
818.919	26206
819.06	26176
819.2	26240
819.341	26336
819.481	26374
819.622	26374
819.762	26670
819.903	26514
820.043	26602
820.184	26465
820.324	26511
820.465	26377
820.605	26385
820.746	26469
820.886	26278
821.026	26473
821.167	26278
821.307	26271
821.447	26229
821.588	26218
821.728	26168
821.868	25841
822.008	25871
822.149	25742
822.289	25811
822.429	25628
822.569	25552
822.709	25426
822.849	25312
822.99	25350
823.13	25362
823.27	25240
823.41	25137
823.55	25160
823.69	25187
823.83	25046
823.97	25050
824.11	24989
824.25	24772
824.389	24932
824.529	25137
824.669	25076
824.809	25012
824.949	24973
825.089	25228
825.228	24966
825.368	24787
825.508	24684
825.648	24886
825.787	24852
825.927	24905
826.067	24741
826.206	24886
826.346	24905
826.485	24848
826.625	24894
826.765	24928
826.904	24970
827.044	24639
827.183	24646
827.323	24574
827.462	24661
827.601	24555
827.741	24589
827.88	24513
828.02	24395
828.159	24505
828.298	24479
828.437	24551
828.577	24403
828.716	24585
828.855	24292
828.994	24254
829.134	24292
829.273	24372
829.412	24391
829.551	24136
829.69	24228
829.829	24205
829.968	24338
830.107	24330
830.246	24330
830.385	24281
830.524	24117
830.663	23927
830.802	24106
830.941	23920
831.08	23771
831.219	23828
831.357	23950
831.496	24155
831.635	23855
831.774	23733
831.913	23794
832.051	23718
832.19	23577
832.329	23619
832.467	23642
832.606	23455
832.744	23406
832.883	23573
833.022	23585
833.16	23520
833.299	23608
833.437	23703
833.576	23551
833.714	23581
833.852	23668
833.991	23630
834.129	23668
834.267	23707
834.406	23608
834.544	23634
834.682	23551
834.821	23429
834.959	23756
835.097	23528
835.235	23707
835.373	23668
835.511	23630
835.65	23474
835.788	23482
835.926	23387
836.064	23189
836.202	23227
836.34	23509
836.478	23672
836.615	23433
836.753	23490
836.891	23535
837.029	23482
837.167	23391
837.305	23376
837.443	23223
837.58	23269
837.718	23448
837.856	23387
837.993	23269
838.131	23311
838.269	23204
838.406	23223
838.544	23041
838.681	22961
838.819	23029
838.956	22733
839.094	22736
839.231	22721
839.369	22972
839.506	23090
839.643	23056
839.781	22755
839.918	22702
840.055	22866
840.193	22790
840.33	22752
840.467	22641
840.604	22767
840.742	22999
840.879	22436
841.016	22679
841.153	22531
841.29	22957
841.427	22755
841.564	22801
841.701	22683
841.838	22672
841.975	22531
842.112	22508
842.249	22611
842.385	22443
842.522	22637
842.659	22557
842.796	22485
842.933	22432
843.069	22466
843.206	22413
843.343	22565
843.479	22466
843.616	22504
843.752	22234
843.889	22230
844.025	22371
844.162	22242
844.298	22337
844.435	22230
844.571	22325
844.708	22348
844.844	22478
844.98	22386
845.117	22306
845.253	22280
845.389	22017
845.525	22200
845.661	22124
845.798	22017
845.934	22086
846.07	21991
846.206	22067
846.342	22063
846.478	21876
846.614	21770
846.75	21797
846.886	21667
847.022	21705
847.158	21793
847.294	21778
847.429	21751
847.565	21705
847.701	21998
847.837	21428
847.972	21492
848.108	21466
848.244	21545
848.379	21325
848.515	21245
848.65	21306
848.786	21264
848.921	21268
849.057	21466
849.192	21264
849.328	21317
849.463	21313
849.598	21321
849.734	21241
849.869	21192
850.004	21180
850.14	21093
850.275	20967
850.41	20982
850.545	20986
850.68	21157
850.815	21154
850.95	21039
851.085	21275
851.22	21188
851.355	21112
851.49	21043
851.625	21024
851.76	21024
851.895	21001
852.03	20975
852.165	21047
852.299	21085
852.434	21233
852.569	21135
852.703	21062
852.838	21123
852.973	21279
853.107	21154
853.242	21051
853.376	20910
853.511	20944
853.645	20838
853.78	21135
853.914	20994
854.048	20845
854.183	20883
854.317	20929
854.451	21142
854.585	20914
854.72	20838
854.854	21127
854.988	20982
855.122	20979
855.256	20777
855.39	20838
855.524	20899
855.658	21058
855.792	21005
855.926	20925
856.06	21028
856.194	21135
856.327	20979
856.461	20788
856.595	20864
856.729	20800
856.862	20887
856.996	20990
857.13	20960
857.263	20975
857.397	20921
857.53	20914
857.664	20933
857.797	20971
857.931	21062
858.064	20941
858.197	21032
858.331	20895
858.464	20857
858.597	20765
858.731	20967
858.864	20902
858.997	20823
859.13	20891
859.263	20914
859.396	21013
859.529	20895
859.662	20933
859.795	20849
859.928	20952
860.061	21009
860.194	21150
860.327	21047
860.46	20963
860.592	20948
860.725	21058
860.858	21081
860.99	20918
861.123	20883
861.256	20823
861.388	20853
861.521	21644
861.653	20838
861.786	20720
861.918	20864
862.05	20796
862.183	20910
862.315	20941
862.447	20990
862.58	20743
862.712	20697
862.844	20587
862.976	20785
863.108	20655
863.24	21112
863.372	20655
863.504	20701
863.636	20678
863.768	20720
863.9	20644
864.032	20469
864.164	20545
864.296	20686
864.428	20735
864.559	20682
864.691	20739
864.823	20575
864.954	20545
865.086	20625
865.217	20583
865.349	20385
865.48	20518
865.612	20571
865.743	20712
865.875	20476
866.006	20454
866.137	20465
866.269	20484
866.4	20613
866.531	20640
866.662	20438
866.793	20518
866.924	20263
867.055	20545
867.186	20423
867.317	20469
867.448	20469
867.579	20343
867.71	20400
867.841	20461
867.972	20583
868.103	20526
868.233	20461
868.364	20518
868.495	20518
868.625	20621
868.756	20773
868.886	20609
869.017	20686
869.147	20830
869.278	20765
869.408	20750
869.539	20724
869.669	20838
869.799	20743
869.929	20815
870.06	20807
870.19	21020
870.32	21161
870.45	21051
870.58	21051
870.71	21173
870.84	21370
870.97	21203
871.1	21005
871.23	21230
871.36	21313
871.489	21374
871.619	21272
871.749	21188
871.879	21317
872.008	21420
872.138	21450
872.267	21412
872.397	21279
872.526	21055
872.656	21241
872.785	21028
872.915	21256
873.044	21420
873.173	21302
873.303	21492
873.432	21344
873.561	21450
873.69	21351
873.819	21150
873.948	21454
874.077	21214
874.206	21260
874.335	21367
874.464	21344
874.593	21511
874.722	21580
874.851	21656
874.979	21682
875.108	21656
875.237	21572
875.365	21534
875.494	21473
875.623	21587
875.751	21633
875.88	21591
876.008	21728
876.136	21759
876.265	22055
876.393	22101
876.521	21964
876.65	22070
876.778	22029
876.906	21964
877.034	21835
877.162	21994
877.29	21846
877.418	22029
877.546	21907
877.674	21899
877.802	21819
877.93	21915
878.058	21956
878.185	21774
878.313	21857
878.441	21854
878.568	21663
878.696	21895
878.824	21968
878.951	22025
879.079	22105
879.206	22382
879.333	21987
879.461	21937
879.588	22017
879.715	21975
879.842	22185
879.97	21937
880.097	21781
880.224	21667
880.351	21850
880.478	21850
880.605	21720
880.732	21755
880.859	21945
880.986	21793
881.112	21739
881.239	21663
881.366	21526
881.493	21363
881.619	21325
881.746	21370
881.872	21245
881.999	21401
882.125	21214
882.252	21363
882.378	21291
882.505	21458
882.631	21184
882.757	21108
882.883	21142
883.01	21013
883.136	21104
883.262	20891
883.388	20842
883.514	21043
883.64	21096
883.766	20975
883.892	20754
884.018	20826
884.143	20986
884.269	21024
884.395	20815
884.52	20670
884.646	20727
884.772	20708
884.897	20712
885.023	20613
885.148	20800
885.274	20853
885.399	20842
885.524	20636
885.65	20811
885.775	20727
885.9	20693
886.025	20823
886.15	20621
886.275	20720
886.4	20659
886.525	20617
886.65	20556
886.775	20625
886.9	20781
887.025	20895
887.149	20533
887.274	20598
887.399	20423
887.523	20480
887.648	20377
887.773	20400
887.897	20549
888.021	20514
888.146	20503
888.27	20503
888.395	20530
888.519	20423
888.643	20465
888.767	20419
888.891	20320
889.015	20351
889.139	20317
889.263	20206
889.387	20320
889.511	20423
889.635	20366
889.759	20199
889.883	20195
890.006	20374
890.13	20305
890.254	20248
890.377	20134
890.501	20050
890.624	19974
890.748	20126
890.871	19921
890.995	19860
891.118	19723
891.241	19788
891.364	19761
891.488	19921
891.611	19887
891.734	19791
891.857	19906
891.98	19822
892.103	19898
892.226	19849
892.349	19841
892.471	19590
892.594	19689
892.717	19795
892.839	19704
892.962	19757
893.085	19875
893.207	19742
893.33	19616
893.452	19609
893.575	19795
893.697	19837
893.819	19830
893.941	19940
894.064	19936
894.186	19799
894.308	19693
894.43	19849
894.552	19986
894.674	19818
894.796	19769
894.918	19864
895.04	19742
895.161	19795
895.283	19750
895.405	19795
895.526	19746
895.648	19712
895.769	19742
895.891	19784
896.012	20008
896.134	19791
896.255	19818
896.376	19666
896.498	19731
896.619	19734
896.74	19731
896.861	19765
896.982	20062
897.103	20073
897.224	20088
897.345	19883
897.466	19928
897.587	19928
897.708	20157
897.828	19963
897.949	19909
898.07	19868
898.19	19974
898.311	20027
898.431	19864
898.552	20043
898.672	20005
898.792	19978
898.913	19959
899.033	19860
899.153	19818
899.273	19647
899.393	19693
899.513	19738
899.633	19715
899.753	19742
899.873	19715
899.993	19727
900.113	19753
900.232	19651
900.352	19616
900.472	19518
900.591	19514
900.711	19540
900.83	19415
900.95	19616
901.069	19518
901.189	19403
901.308	19179
901.427	19065
901.546	19015
901.665	19023
901.784	19225
901.904	18954
902.023	18928
902.141	18669
902.26	18608
902.379	18753
902.498	18631
902.617	18540
902.735	18635
902.854	18551
902.973	18612
903.091	18281
903.21	18296
903.328	18251
903.446	18251
903.565	18144
903.683	18030
903.801	17942
903.919	18034
904.038	18057
904.156	17904
904.274	18003
904.392	17885
904.51	17878
904.627	17889
904.745	17847
904.863	17935
904.981	17646
905.098	17566
905.216	17577
905.334	17566
905.451	17562
905.569	17417
905.686	17638
905.803	17516
905.921	17368
906.038	17315
906.155	17322
906.272	17223
906.389	17231
906.506	17048
906.623	17052
906.74	17128
906.857	16995
906.974	16942
907.091	17102
907.208	17258
907.324	17090
907.441	16987
907.557	16801
907.674	16801
907.79	16744
907.907	16778
908.023	16908
908.139	16786
908.256	16767
908.372	16637
908.488	16698
908.604	16546
908.72	16565
908.836	16470
908.952	16565
909.068	16523
909.184	16603
909.3	16538
909.415	16493
909.531	16554
909.647	16230
909.762	16246
909.878	16147
909.993	16188
910.108	16139
910.224	16234
910.339	16253
910.454	16101
910.57	16109
910.685	16036
910.8	16192
910.915	16249
911.03	16040
911.145	15899
911.259	15850
911.374	15838
911.489	15736
911.604	15705
911.718	15542
911.833	15595
911.947	15580
912.062	15507
912.176	15705
912.291	15587
912.405	15618
912.519	15747
912.633	15781
912.748	15553
912.862	15488
912.976	15378
913.09	15348
913.204	15466
913.318	15370
913.431	15507
913.545	15412
913.659	15492
913.772	15348
913.886	15321
914	15211
914.113	15367
914.226	15226
914.34	15313
914.453	15230
914.566	15256
914.68	15184
914.793	15085
914.906	14823
915.019	14891
915.132	14739
915.245	14758
915.358	14834
915.47	14857
915.583	14792
915.696	14929
915.809	14902
915.921	14952
916.034	14765
916.146	14724
916.259	14689
916.371	14826
916.483	14758
916.595	14613
916.708	14674
916.82	14590
916.932	14575
917.044	14594
917.156	14655
917.268	14503
917.38	14610
917.491	14465
917.603	14434
917.715	14556
917.826	14560
917.938	14503
918.049	14324
918.161	14396
918.272	14526
918.384	14629
918.495	14480
918.606	14324
918.717	14240
918.828	14339
918.939	14282
919.05	14180
919.161	14240
919.272	14058
919.383	14119
919.494	14240
919.604	14408
919.715	14286
919.826	14180
919.936	14214
920.047	14252
920.157	14214
920.267	14389
920.378	14142
920.488	14142
920.598	14374
920.708	14514
920.818	14339
920.928	14343
921.038	14419
921.148	14412
921.258	14176
921.368	14088
921.477	14016
921.587	13928
921.697	13898
921.806	13978
921.916	13875
922.025	13708
922.134	13563
922.244	13571
922.353	13567
922.462	13594
922.571	13491
922.68	13285
922.789	13297
922.898	13270
923.007	13149
923.116	13244
923.224	13236
923.333	13274
923.442	13187
923.55	13088
923.659	13080
923.767	13164
923.876	13118
923.984	13103
924.092	13034
924.201	13053
924.309	12977
924.417	12916
924.525	12901
924.633	12935
924.741	13655
924.849	12734
924.956	12856
925.064	12745
925.172	12639
925.279	12646
925.387	12741
925.494	12646
925.602	12696
925.709	12734
925.816	12578
925.924	12669
926.031	12726
926.138	12616
926.245	12745
926.352	12566
926.459	12662
926.566	12719
926.673	12559
926.779	12536
926.886	12395
926.993	12365
927.099	12273
927.206	12163
927.312	12239
927.419	12327
927.525	12182
927.631	12311
927.737	12232
927.843	12121
927.95	12019
928.056	12194
928.162	12102
928.267	12140
928.373	12620
928.479	12186
928.585	11973
928.69	12019
928.796	12083
928.901	11984
929.007	11764
929.112	11920
929.218	12091
929.323	11863
929.428	11798
929.533	11923
929.638	11817
929.743	11809
929.848	11805
929.953	11794
930.058	11577
930.163	11551
930.267	11543
930.372	11699
930.477	11463
930.581	11726
930.685	11524
930.79	11482
930.894	11497
930.998	11379
931.103	11539
931.207	11174
931.311	11075
931.415	11014
931.519	10835
931.623	10835
