Data from test_V78500241_1255.txt Node
Date: Fri Mar 25 15:18:35 CST 2022
User: usil
Spectrometer: V785-0024
Trigger mode: 0
Integration Time (sec): 4.000000E-1
Scans to average: 1
Nonlinearity correction enabled: false
Boxcar width: 0
Storing dark spectrum: false
XAxis mode: Wavelengths
Number of Pixels in Spectrum: 1024
>>>>>Begin Spectral Data<<<<<
801.071	27956
801.214	27759
801.356	27747
801.499	27660
801.641	27504
801.783	27454
801.926	27530
802.068	27572
802.211	27473
802.353	27378
802.496	27298
802.638	27268
802.78	27294
802.923	27055
803.065	27001
803.208	27127
803.35	27207
803.492	27302
803.635	27363
803.777	27336
803.919	27321
804.061	27762
804.204	27481
804.346	27180
804.488	27279
804.63	27283
804.773	27294
804.915	27336
805.057	27557
805.199	27435
805.341	27378
805.483	27564
805.626	27466
805.768	27412
805.91	27511
806.052	27355
806.194	27397
806.336	27720
806.478	27549
806.62	27477
806.762	27500
806.904	27698
807.046	27827
807.188	27717
807.33	28013
807.472	27960
807.614	27907
807.756	27914
807.898	27781
808.04	27720
808.182	27625
808.324	27709
808.465	27755
808.607	28025
808.749	28048
808.891	28242
809.033	28398
809.174	28268
809.316	28055
809.458	28109
809.6	28177
809.741	28086
809.883	28291
810.025	28379
810.166	28371
810.308	28455
810.45	28261
810.591	28295
810.733	28246
810.875	28169
811.016	27949
811.158	28006
811.299	28261
811.441	28261
811.582	28249
811.724	28375
811.865	28215
812.007	28105
812.148	28196
812.29	28173
812.431	28310
812.573	28348
812.714	28535
812.855	28603
812.997	28805
813.138	28877
813.279	28942
813.421	28694
813.562	28577
813.703	28550
813.845	28284
813.986	28139
814.127	27865
814.268	27797
814.41	27857
814.551	27838
814.692	27895
814.833	27778
814.974	27854
815.115	27857
815.256	27724
815.397	27812
815.539	27675
815.68	27622
815.821	27561
815.962	27648
816.103	27580
816.244	27530
816.385	27504
816.526	27500
816.666	27230
816.807	27024
816.948	27184
817.089	27325
817.23	27260
817.371	27135
817.512	27275
817.653	26910
817.793	26979
817.934	27184
818.075	27180
818.216	27096
818.356	27089
818.497	26940
818.638	26845
818.778	26883
818.919	26899
819.06	26819
819.2	26990
819.341	27119
819.481	27176
819.622	27173
819.762	27648
819.903	27386
820.043	27252
820.184	27287
820.324	27169
820.465	27291
820.605	27237
820.746	27184
820.886	27150
821.026	27070
821.167	27154
821.307	27336
821.447	27096
821.588	27093
821.728	26914
821.868	26781
822.008	26526
822.149	26602
822.289	26587
822.429	26377
822.569	26202
822.709	26240
822.849	26282
822.99	26180
823.13	26134
823.27	26065
823.41	25986
823.55	25879
823.69	25982
823.83	26008
823.97	25864
824.11	25849
824.25	25727
824.389	25887
824.529	25921
824.669	25715
824.809	25864
824.949	25791
825.089	25814
825.228	25860
825.368	25613
825.508	25616
825.648	25601
825.787	25666
825.927	25712
826.067	25537
826.206	25696
826.346	25628
826.485	25620
826.625	25700
826.765	25799
826.904	25605
827.044	25362
827.183	25518
827.323	25343
827.462	25377
827.601	25350
827.741	25335
827.88	25308
828.02	25126
828.159	25430
828.298	25392
828.437	25388
828.577	25240
828.716	25430
828.855	25327
828.994	25050
829.134	25031
829.273	25095
829.412	24996
829.551	25023
829.69	25072
829.829	25168
829.968	25126
830.107	25183
830.246	25221
830.385	24928
830.524	24916
830.663	24821
830.802	24829
830.941	24696
831.08	24582
831.219	24745
831.357	24863
831.496	24890
831.635	24593
831.774	24570
831.913	24403
832.051	24490
832.19	24475
832.329	24407
832.467	24369
832.606	24327
832.744	24201
832.883	24311
833.022	24353
833.16	24384
833.299	24388
833.437	24254
833.576	24380
833.714	24471
833.852	24593
833.991	24429
834.129	24433
834.267	24464
834.406	24445
834.544	24547
834.682	24483
834.821	24407
834.959	24540
835.097	24350
835.235	24467
835.373	24311
835.511	24410
835.65	24182
835.788	24258
835.926	24251
836.064	23992
836.202	24110
836.34	24213
836.478	24418
836.615	24247
836.753	24311
836.891	24289
837.029	24247
837.167	24194
837.305	24110
837.443	24091
837.58	23920
837.718	24079
837.856	24133
837.993	24022
838.131	24022
838.269	23984
838.406	24003
838.544	23935
838.681	23722
838.819	23786
838.956	23581
839.094	23589
839.231	23558
839.369	23767
839.506	24003
839.643	23832
839.781	23668
839.918	23566
840.055	23463
840.193	23524
840.33	23493
840.467	23539
840.604	23520
840.742	23756
840.879	23360
841.016	23512
841.153	23299
841.29	23528
841.427	23531
841.564	23509
841.701	23478
841.838	23543
841.975	23322
842.112	23402
842.249	23303
842.385	23162
842.522	23379
842.659	23246
842.796	23227
842.933	23166
843.069	23258
843.206	23170
843.343	23273
843.479	23288
843.616	23220
843.752	22904
843.889	23025
844.025	23235
844.162	22995
844.298	23166
844.435	22957
844.571	22923
844.708	23083
844.844	23197
844.98	23136
845.117	23200
845.253	23067
845.389	22885
845.525	22820
845.661	22995
845.798	22782
845.934	22729
846.07	22752
846.206	22713
846.342	22828
846.478	22729
846.614	22580
846.75	22474
846.886	22485
847.022	22485
847.158	22531
847.294	22443
847.429	22470
847.565	22424
847.701	22744
847.837	22265
847.972	22230
848.108	22284
848.244	22181
848.379	22128
848.515	22105
848.65	22074
848.786	22040
848.921	22120
849.057	22188
849.192	22040
849.328	22017
849.463	22055
849.598	21987
849.734	22055
849.869	21778
850.004	21880
850.14	21926
850.275	21850
850.41	21724
850.545	21778
850.68	21831
850.815	21793
850.95	21770
851.085	22010
851.22	21884
851.355	21850
851.49	21797
851.625	21671
851.76	21819
851.895	21648
852.03	21663
852.165	21850
852.299	21762
852.434	21865
852.569	21884
852.703	21846
852.838	21793
852.973	21930
853.107	21895
853.242	21774
853.376	21568
853.511	21583
853.645	21580
853.78	21846
853.914	21625
854.048	21618
854.183	21625
854.317	21591
854.451	21789
854.585	21633
854.72	21694
854.854	21793
854.988	21622
855.122	21785
855.256	21572
855.39	21629
855.524	21762
855.658	21625
855.792	21713
855.926	21644
856.06	21648
856.194	21793
856.327	21469
856.461	21481
856.595	21675
856.729	21583
856.862	21804
856.996	21690
857.13	21720
857.263	21854
857.397	21770
857.53	21564
857.664	21698
857.797	21671
857.931	21766
858.064	21675
858.197	21675
858.331	21641
858.464	21663
858.597	21462
858.731	21614
858.864	21587
858.997	21644
859.13	21622
859.263	21675
859.396	21793
859.529	21644
859.662	21595
859.795	21545
859.928	21660
860.061	21869
860.194	21903
860.327	21736
860.46	21686
860.592	21747
860.725	21701
860.858	21774
860.99	21720
861.123	21538
861.256	21587
861.388	21644
861.521	22261
861.653	21458
861.786	21374
861.918	21553
862.05	21568
862.183	21462
862.315	21572
862.447	21561
862.58	21557
862.712	21317
862.844	21279
862.976	21393
863.108	21374
863.24	21667
863.372	21287
863.504	21344
863.636	21294
863.768	21386
863.9	21488
864.032	21275
864.164	21344
864.296	21363
864.428	21549
864.559	21412
864.691	21287
864.823	21321
864.954	21332
865.086	21382
865.217	21268
865.349	21291
865.48	21199
865.612	21176
865.743	21294
865.875	21275
866.006	21310
866.137	21287
866.269	21207
866.4	21138
866.531	21268
866.662	21203
866.793	21131
866.924	21123
867.055	21241
867.186	21112
867.317	21165
867.448	21077
867.579	21180
867.71	21131
867.841	21108
867.972	21165
868.103	21108
868.233	21287
868.364	21157
868.495	21211
868.625	21523
868.756	21481
868.886	21302
869.017	21340
869.147	21595
869.278	21443
869.408	21447
869.539	21386
869.669	21443
869.799	21526
869.929	21534
870.06	21530
870.19	21755
870.32	21576
870.45	21732
870.58	21720
870.71	21774
870.84	21789
870.97	21827
871.1	21804
871.23	21934
871.36	21934
871.489	21930
871.619	21827
871.749	22032
871.879	22013
872.008	22150
872.138	22105
872.267	21983
872.397	21759
872.526	21850
872.656	21808
872.785	21945
872.915	22112
873.044	22215
873.173	21998
873.303	22032
873.432	21964
873.561	21975
873.69	22021
873.819	21998
873.948	22074
874.077	22036
874.206	21960
874.335	22166
874.464	22135
874.593	22223
874.722	22204
874.851	22265
874.979	22272
875.108	22409
875.237	22112
875.365	22067
875.494	22303
875.623	22356
875.751	22230
875.88	22242
876.008	22329
876.136	22417
876.265	22584
876.393	22744
876.521	22736
876.65	22615
876.778	22713
876.906	22588
877.034	22569
877.162	22489
877.29	22630
877.418	22580
877.546	22580
877.674	22542
877.802	22554
877.93	22554
878.058	22592
878.185	22451
878.313	22470
878.441	22672
878.568	22318
878.696	22512
878.824	22535
878.951	22557
879.079	22687
879.206	22854
879.333	22717
879.461	22546
879.588	22675
879.715	22736
879.842	22835
879.97	22649
880.097	22447
880.224	22428
880.351	22588
880.478	22352
880.605	22409
880.732	22303
880.859	22622
880.986	22409
881.112	22432
881.239	22318
881.366	22154
881.493	22070
881.619	22059
881.746	22032
881.872	22044
881.999	21949
882.125	22010
882.252	22013
882.378	21937
882.505	22158
882.631	21785
882.757	21713
882.883	21774
883.01	21793
883.136	21629
883.262	21488
883.388	21492
883.514	21595
883.64	21724
883.766	21572
883.892	21534
884.018	21481
884.143	21648
884.269	21652
884.395	21344
884.52	21298
884.646	21447
884.772	21268
884.897	21252
885.023	21401
885.148	21355
885.274	21462
885.399	21401
885.524	21401
885.65	21374
885.775	21306
885.9	21245
886.025	21393
886.15	21393
886.275	21310
886.4	21325
886.525	21298
886.65	21306
886.775	21272
886.9	21336
887.025	21583
887.149	21294
887.274	21096
887.399	21089
887.523	21085
887.648	20971
887.773	21032
887.897	21077
888.021	21039
888.146	21074
888.27	21245
888.395	21142
888.519	21150
888.643	21108
888.767	21032
888.891	21051
889.015	20902
889.139	20941
889.263	20876
889.387	20876
889.511	21100
889.635	20921
889.759	20872
889.883	20845
890.006	20777
890.13	20986
890.254	20769
890.377	20781
890.501	20693
890.624	20579
890.748	20606
890.871	20598
890.995	20309
891.118	20434
891.241	20419
891.364	20427
891.488	20537
891.611	20415
891.734	20419
891.857	20473
891.98	20355
892.103	20473
892.226	20408
892.349	20476
892.471	20233
892.594	20347
892.717	20347
892.839	20286
892.962	20400
893.085	20229
893.207	20290
893.33	20233
893.452	20328
893.575	20370
893.697	20290
893.819	20537
893.941	20537
894.064	20473
894.186	20301
894.308	20290
894.43	20507
894.552	20347
894.674	20549
894.796	20233
894.918	20400
895.04	20320
895.161	20347
895.283	20377
895.405	20317
895.526	20244
895.648	20370
895.769	20339
895.891	20332
896.012	20275
896.134	20347
896.255	20381
896.376	20351
896.498	20286
896.619	20408
896.74	20282
896.861	20434
896.982	20632
897.103	20830
897.224	20530
897.345	20442
897.466	20526
897.587	20495
897.708	20629
897.828	20575
897.949	20545
898.07	20351
898.19	20545
898.311	20537
898.431	20461
898.552	20522
898.672	20579
898.792	20705
898.913	20427
899.033	20511
899.153	20324
899.273	20221
899.393	20248
899.513	20343
899.633	20389
899.753	20221
899.873	20233
899.993	20423
900.113	20168
900.232	20168
900.352	20161
900.472	20084
900.591	20073
900.711	20084
900.83	19967
900.95	20214
901.069	20172
901.189	19986
901.308	19818
901.427	19635
901.546	19677
901.665	19578
901.784	19605
901.904	19533
902.023	19384
902.141	19206
902.26	19129
902.379	19240
902.498	19152
902.617	19137
902.735	19168
902.854	19141
902.973	19099
903.091	18890
903.21	18844
903.328	18802
903.446	18684
903.565	18589
903.683	18589
903.801	18490
903.919	18658
904.038	18475
904.156	18391
904.274	18547
904.392	18365
904.51	18346
904.627	18330
904.745	18509
904.863	18365
904.981	18197
905.098	18022
905.216	17954
905.334	18125
905.451	18095
905.569	18068
905.686	18034
905.803	18136
905.921	17916
906.038	17923
906.155	17992
906.272	17821
906.389	17756
906.506	17733
906.623	17741
906.74	17691
906.857	17448
906.974	17501
907.091	17695
907.208	17729
907.324	17665
907.441	17436
907.557	17379
907.674	17341
907.79	17227
907.907	17315
908.023	17341
908.139	17349
908.256	17189
908.372	17121
908.488	17166
908.604	17037
908.72	17037
908.836	17162
908.952	17052
909.068	17045
909.184	17136
909.3	16961
909.415	17010
909.531	17025
909.647	16736
909.762	16767
909.878	16618
909.993	16698
910.108	16721
910.224	16710
910.339	16774
910.454	16565
910.57	16687
910.685	16459
910.8	16774
910.915	16634
911.03	16462
911.145	16443
911.259	16261
911.374	16344
911.489	16226
911.604	16188
911.718	16067
911.833	16086
911.947	16010
912.062	15876
912.176	16105
912.291	16090
912.405	16036
912.519	16310
912.633	16272
912.748	16226
912.862	16124
912.976	15937
913.09	15865
913.204	15808
913.318	15827
913.431	15857
913.545	15956
913.659	15975
913.772	15838
913.886	15789
914	15793
914.113	15793
914.226	15812
914.34	15751
914.453	15492
914.566	15698
914.68	15561
914.793	15515
914.906	15397
915.019	15302
915.132	15233
915.245	15256
915.358	15245
915.47	15176
915.583	15344
915.696	15287
915.809	15351
915.921	15363
916.034	15165
916.146	15123
916.259	15199
916.371	15161
916.483	15195
916.595	15180
916.708	15127
916.82	15062
916.932	15062
917.044	15108
917.156	14910
917.268	14895
917.38	15005
917.491	14883
917.603	14960
917.715	14941
917.826	14899
917.938	14910
918.049	14689
918.161	14975
918.272	15005
918.384	14864
918.495	14823
918.606	14674
918.717	14648
918.828	14769
918.939	14708
919.05	14579
919.161	14621
919.272	14408
919.383	14438
919.494	14781
919.604	14895
919.715	14617
919.826	14590
919.936	14560
920.047	14785
920.157	14617
920.267	14845
920.378	14648
920.488	14629
920.598	14826
920.708	14975
920.818	14861
920.928	14727
921.038	14994
921.148	14800
921.258	14541
921.368	14514
921.477	14358
921.587	14309
921.697	14290
921.806	14339
921.916	14267
922.025	13982
922.134	14142
922.244	13967
922.353	14046
922.462	13837
922.571	13837
922.68	13719
922.789	13693
922.898	13674
923.007	13575
923.116	13674
923.224	13620
923.333	13708
923.442	13457
923.55	13499
923.659	13468
923.767	13533
923.876	13403
923.984	13468
924.092	13430
924.201	13392
924.309	13388
924.417	13441
924.525	13312
924.633	13228
924.741	14031
924.849	13012
924.956	13270
925.064	13095
925.172	13034
925.279	12985
925.387	13031
925.494	13187
925.602	13308
925.709	13095
925.816	12981
925.924	13072
926.031	13072
926.138	12985
926.245	13004
926.352	12966
926.459	13065
926.566	13114
926.673	12844
926.779	12825
926.886	12810
926.993	12738
927.099	12700
927.206	12578
927.312	12506
927.419	12665
927.525	12604
927.631	12623
927.737	12490
927.843	12372
927.95	12418
928.056	12502
928.162	12490
928.267	12528
928.373	13057
928.479	12521
928.585	12323
928.69	12342
928.796	12414
928.901	12357
929.007	12190
929.112	12258
929.218	12258
929.323	12144
929.428	12167
929.533	12334
929.638	12091
929.743	12125
929.848	12163
929.953	12038
930.058	12011
930.163	11828
930.267	11927
930.372	11958
930.477	11847
930.581	12038
930.685	11897
930.79	11657
930.894	11874
930.998	11752
931.103	11832
931.207	11509
931.311	11433
931.415	11261
931.519	11109
931.623	11067
