Data from test_V78500241_1545.txt Node
Date: Fri Mar 25 15:20:36 CST 2022
User: usil
Spectrometer: V785-0024
Trigger mode: 0
Integration Time (sec): 4.000000E-1
Scans to average: 1
Nonlinearity correction enabled: false
Boxcar width: 0
Storing dark spectrum: false
XAxis mode: Wavelengths
Number of Pixels in Spectrum: 1024
>>>>>Begin Spectral Data<<<<<
801.071	27941
801.214	27781
801.356	27762
801.499	27648
801.641	27443
801.783	27473
801.926	27431
802.068	27408
802.211	27378
802.353	27332
802.496	27138
802.638	27112
802.78	27055
802.923	27066
803.065	26990
803.208	26986
803.35	27169
803.492	27207
803.635	27405
803.777	27237
803.919	27367
804.061	27682
804.204	27443
804.346	27359
804.488	27207
804.63	27294
804.773	27203
804.915	27382
805.057	27462
805.199	27283
805.341	27287
805.483	27439
805.626	27439
805.768	27405
805.91	27374
806.052	27469
806.194	27439
806.336	27557
806.478	27450
806.62	27408
806.762	27549
806.904	27751
807.046	27975
807.188	27918
807.33	27873
807.472	27968
807.614	27793
807.756	27956
807.898	27701
808.04	27599
808.182	27599
808.324	27705
808.465	27717
808.607	27956
808.749	28067
808.891	28105
809.033	28253
809.174	28166
809.316	28070
809.458	28036
809.6	28234
809.741	28246
809.883	28287
810.025	28322
810.166	28352
810.308	28413
810.45	28398
810.591	28147
810.733	28036
810.875	28051
811.016	27956
811.158	27994
811.299	28150
811.441	28272
811.582	28139
811.724	28078
811.865	28048
812.007	28124
812.148	28036
812.29	28093
812.431	28181
812.573	28341
812.714	28451
812.855	28683
812.997	28721
813.138	28919
813.279	28862
813.421	28531
813.562	28668
813.703	28329
813.845	28352
813.986	28116
814.127	27953
814.268	27610
814.41	27835
814.551	27694
814.692	27819
814.833	27774
814.974	27800
815.115	27850
815.256	27690
815.397	27739
815.539	27603
815.68	27416
815.821	27462
815.962	27663
816.103	27485
816.244	27401
816.385	27405
816.526	27233
816.666	27252
816.807	27070
816.948	27051
817.089	27165
817.23	27066
817.371	27184
817.512	27013
817.653	27028
817.793	26921
817.934	26971
818.075	27260
818.216	27176
818.356	26899
818.497	26815
818.638	26750
818.778	26674
818.919	26861
819.06	26906
819.2	26994
819.341	27096
819.481	27055
819.622	27268
819.762	27329
819.903	27272
820.043	27218
820.184	27104
820.324	27195
820.465	27207
820.605	27142
820.746	27135
820.886	27127
821.026	27169
821.167	27077
821.307	27370
821.447	27123
821.588	26921
821.728	26842
821.868	26727
822.008	26537
822.149	26514
822.289	26495
822.429	26183
822.569	26134
822.709	26153
822.849	26043
822.99	26088
823.13	26153
823.27	25959
823.41	25936
823.55	25814
823.69	25852
823.83	25909
823.97	25871
824.11	25704
824.25	25811
824.389	25696
824.529	25864
824.669	25807
824.809	25696
824.949	25731
825.089	25666
825.228	25822
825.368	25479
825.508	25464
825.648	25510
825.787	25502
825.927	25563
826.067	25449
826.206	25548
826.346	25563
826.485	25582
826.625	25594
826.765	25601
826.904	25521
827.044	25270
827.183	25312
827.323	25160
827.462	25327
827.601	25251
827.741	25308
827.88	25335
828.02	25251
828.159	25285
828.298	25225
828.437	25129
828.577	25236
828.716	25373
828.855	25145
828.994	24901
829.134	24867
829.273	25015
829.412	24905
829.551	24810
829.69	24989
829.829	25061
829.968	24947
830.107	24970
830.246	25095
830.385	24985
830.524	24795
830.663	24772
830.802	24681
830.941	24486
831.08	24494
831.219	24700
831.357	24631
831.496	24844
831.635	24570
831.774	24448
831.913	24445
832.051	24311
832.19	24304
832.329	24403
832.467	24224
832.606	24136
832.744	24327
832.883	24213
833.022	24144
833.16	24072
833.299	24239
833.437	24216
833.576	24197
833.714	24289
833.852	24342
833.991	24357
834.129	24327
834.267	24403
834.406	24285
834.544	24353
834.682	24365
834.821	24254
834.959	24471
835.097	24251
835.235	24357
835.373	24342
835.511	24285
835.65	24060
835.788	24167
835.926	24034
836.064	23920
836.202	23813
836.34	24129
836.478	24125
836.615	24022
836.753	24079
836.891	24163
837.029	24178
837.167	24186
837.305	24110
837.443	24018
837.58	23988
837.718	23988
837.856	23935
837.993	23901
838.131	23882
838.269	23863
838.406	23790
838.544	23737
838.681	23634
838.819	23455
838.956	23391
839.094	23356
839.231	23372
839.369	23608
839.506	23756
839.643	23737
839.781	23425
839.918	23299
840.055	23330
840.193	23273
840.33	23379
840.467	23318
840.604	23364
840.742	23493
840.879	23242
841.016	23151
841.153	23261
841.29	23429
841.427	23383
841.564	23414
841.701	23220
841.838	23242
841.975	23181
842.112	23200
842.249	23132
842.385	23147
842.522	23212
842.659	23025
842.796	23037
842.933	23105
843.069	22946
843.206	23048
843.343	23121
843.479	23056
843.616	22968
843.752	22915
843.889	22984
844.025	22911
844.162	22889
844.298	22877
844.435	23022
844.571	22759
844.708	22854
844.844	23018
844.98	22953
845.117	23010
845.253	22850
845.389	22698
845.525	22698
845.661	22889
845.798	22641
845.934	22793
846.07	22584
846.206	22599
846.342	22664
846.478	22310
846.614	22314
846.75	22348
846.886	22230
847.022	22284
847.158	22390
847.294	22280
847.429	22268
847.565	22223
847.701	22516
847.837	22040
847.972	22036
848.108	22150
848.244	22010
848.379	21831
848.515	21941
848.65	21968
848.786	21880
848.921	21892
849.057	22067
849.192	22074
849.328	21842
849.463	21956
849.598	21785
849.734	21793
849.869	21812
850.004	21694
850.14	21732
850.275	21732
850.41	21466
850.545	21545
850.68	21686
850.815	21759
850.95	21675
851.085	21831
851.22	21736
851.355	21781
851.49	21625
851.625	21644
851.76	21690
851.895	21572
852.03	21603
852.165	21732
852.299	21637
852.434	21785
852.569	21667
852.703	21690
852.838	21766
852.973	21800
853.107	21876
853.242	21656
853.376	21583
853.511	21389
853.645	21496
853.78	21538
853.914	21450
854.048	21568
854.183	21412
854.317	21492
854.451	21686
854.585	21545
854.72	21564
854.854	21618
854.988	21492
855.122	21466
855.256	21351
855.39	21530
855.524	21496
855.658	21450
855.792	21504
855.926	21408
856.06	21576
856.194	21507
856.327	21534
856.461	21473
856.595	21386
856.729	21481
856.862	21523
856.996	21439
857.13	21587
857.263	21660
857.397	21504
857.53	21481
857.664	21515
857.797	21576
857.931	21511
858.064	21519
858.197	21454
858.331	21519
858.464	21317
858.597	21443
858.731	21443
858.864	21382
858.997	21485
859.13	21549
859.263	21500
859.396	21553
859.529	21523
859.662	21523
859.795	21469
859.928	21504
860.061	21671
860.194	21671
860.327	21443
860.46	21591
860.592	21618
860.725	21526
860.858	21595
860.99	21504
861.123	21382
861.256	21557
861.388	21435
861.521	22185
861.653	21294
861.786	21313
861.918	21382
862.05	21408
862.183	21439
862.315	21332
862.447	21416
862.58	21279
862.712	21173
862.844	21249
862.976	21252
863.108	21317
863.24	21530
863.372	21268
863.504	21142
863.636	21112
863.768	21184
863.9	21211
864.032	21138
864.164	21165
864.296	21104
864.428	21344
864.559	21173
864.691	21249
864.823	21135
864.954	21089
865.086	21161
865.217	21127
865.349	21036
865.48	21119
865.612	21081
865.743	21112
865.875	21211
866.006	21123
866.137	21085
866.269	21104
866.4	21013
866.531	21039
866.662	20994
866.793	21036
866.924	20956
867.055	21127
867.186	21066
867.317	20960
867.448	20944
867.579	20868
867.71	20994
867.841	20868
867.972	20960
868.103	20956
868.233	21028
868.364	20979
868.495	21203
868.625	21195
868.756	21313
868.886	21131
869.017	21272
869.147	21351
869.278	21488
869.408	21313
869.539	21313
869.669	21363
869.799	21306
869.929	21291
870.06	21374
870.19	21656
870.32	21709
870.45	21686
870.58	21759
870.71	21823
870.84	21739
870.97	21671
871.1	21637
871.23	21941
871.36	21994
871.489	21778
871.619	21922
871.749	21869
871.879	21937
872.008	22017
872.138	21876
872.267	21880
872.397	21812
872.526	21705
872.656	21713
872.785	21705
872.915	21842
873.044	22010
873.173	21899
873.303	21831
873.432	22010
873.561	21975
873.69	21960
873.819	22040
873.948	22044
874.077	21968
874.206	21869
874.335	21873
874.464	21892
874.593	22120
874.722	22055
874.851	22029
874.979	22078
875.108	22109
875.237	22169
875.365	22051
875.494	22150
875.623	22169
875.751	22204
875.88	22150
876.008	22344
876.136	22230
876.265	22519
876.393	22672
876.521	22630
876.65	22596
876.778	22596
876.906	22497
877.034	22447
877.162	22493
877.29	22455
877.418	22508
877.546	22329
877.674	22398
877.802	22466
877.93	22341
878.058	22478
878.185	22462
878.313	22409
878.441	22394
878.568	22253
878.696	22417
878.824	22565
878.951	22432
879.079	22561
879.206	22721
879.333	22443
879.461	22493
879.588	22546
879.715	22641
879.842	22626
879.97	22459
880.097	22329
880.224	22204
880.351	22394
880.478	22398
880.605	22280
880.732	22299
880.859	22508
880.986	22310
881.112	22322
881.239	22188
881.366	22040
881.493	21831
881.619	21918
881.746	21865
881.872	21762
881.999	21831
882.125	21789
882.252	21869
882.378	21991
882.505	21907
882.631	21587
882.757	21473
882.883	21743
883.01	21549
883.136	21660
883.262	21363
883.388	21462
883.514	21564
883.64	21576
883.766	21511
883.892	21161
884.018	21306
884.143	21496
884.269	21564
884.395	21268
884.52	21199
884.646	21154
884.772	21127
884.897	21066
885.023	21222
885.148	21272
885.274	21321
885.399	21264
885.524	21249
885.65	21146
885.775	21283
885.9	21085
886.025	21237
886.15	21325
886.275	21241
886.4	21123
886.525	21127
886.65	21150
886.775	21070
886.9	21310
887.025	21408
887.149	21192
887.274	20906
887.399	20902
887.523	20925
887.648	20963
887.773	20914
887.897	20933
888.021	21146
888.146	20868
888.27	21150
888.395	21154
888.519	21100
888.643	20994
888.767	21017
888.891	20876
889.015	20815
889.139	20746
889.263	20701
889.387	20952
889.511	20956
889.635	20819
889.759	20758
889.883	20785
890.006	20739
890.13	20868
890.254	20663
890.377	20686
890.501	20613
890.624	20473
890.748	20560
890.871	20396
890.995	20336
891.118	20240
891.241	20317
891.364	20389
891.488	20484
891.611	20328
891.734	20358
891.857	20442
891.98	20317
892.103	20313
892.226	20355
892.349	20328
892.471	20142
892.594	20278
892.717	20286
892.839	20187
892.962	20320
893.085	20366
893.207	20275
893.33	20218
893.452	20119
893.575	20282
893.697	20214
893.819	20358
893.941	20396
894.064	20465
894.186	20176
894.308	20054
894.43	20324
894.552	20408
894.674	20317
894.796	20012
894.918	20267
895.04	20180
895.161	20259
895.283	20259
895.405	20012
895.526	20256
895.648	20168
895.769	20256
895.891	20248
896.012	20366
896.134	20282
896.255	20221
896.376	20153
896.498	20183
896.619	20358
896.74	20347
896.861	20195
896.982	20606
897.103	20625
897.224	20461
897.345	20473
897.466	20381
897.587	20492
897.708	20537
897.828	20431
897.949	20339
898.07	20320
898.19	20221
898.311	20587
898.431	20351
898.552	20415
898.672	20492
898.792	20465
898.913	20461
899.033	20320
899.153	20153
899.273	20092
899.393	20229
899.513	20210
899.633	20187
899.753	20199
899.873	20138
899.993	20233
900.113	20138
900.232	20039
900.352	20043
900.472	20115
900.591	19974
900.711	20069
900.83	19967
900.95	20069
901.069	19963
901.189	19845
901.308	19578
901.427	19556
901.546	19590
901.665	19693
901.784	19422
901.904	19445
902.023	19244
902.141	19133
902.26	19008
902.379	19289
902.498	19069
902.617	18943
902.735	19046
902.854	19027
902.973	18886
903.091	18829
903.21	18700
903.328	18779
903.446	18547
903.565	18525
903.683	18536
903.801	18407
903.919	18380
904.038	18395
904.156	18357
904.274	18311
904.392	18323
904.51	18152
904.627	18270
904.745	18281
904.863	18323
904.981	18106
905.098	18030
905.216	17946
905.334	18038
905.451	17950
905.569	17912
905.686	17988
905.803	17980
905.921	17707
906.038	17821
906.155	17737
906.272	17615
906.389	17676
906.506	17600
906.623	17459
906.74	17524
906.857	17345
906.974	17421
907.091	17551
907.208	17551
907.324	17490
907.441	17337
907.557	17254
907.674	17326
907.79	17006
907.907	17155
908.023	17231
908.139	17200
908.256	17113
908.372	17102
908.488	17052
908.604	17006
908.72	16843
908.836	16915
908.952	16934
909.068	17018
909.184	17018
909.3	16873
909.415	16942
909.531	16843
909.647	16748
909.762	16626
909.878	16626
909.993	16630
910.108	16527
910.224	16565
910.339	16561
910.454	16424
910.57	16531
910.685	16432
910.8	16573
910.915	16554
911.03	16428
911.145	16322
911.259	16276
911.374	16154
911.489	16215
911.604	16090
911.718	15968
911.833	15998
911.947	15762
912.062	15724
912.176	15979
912.291	15903
912.405	15907
912.519	16032
912.633	16207
912.748	16006
912.862	15960
912.976	15880
913.09	15622
913.204	15682
913.318	15762
913.431	15937
913.545	15884
913.659	15873
913.772	15705
913.886	15618
914	15614
914.113	15739
914.226	15694
914.34	15584
914.453	15408
914.566	15534
914.68	15568
914.793	15412
914.906	15256
915.019	15131
915.132	15176
915.245	15184
915.358	15302
915.47	15218
915.583	15207
915.696	15252
915.809	15252
915.921	15340
916.034	15169
916.146	15074
916.259	15077
916.371	15161
916.483	15169
916.595	14994
916.708	15005
916.82	15017
916.932	15009
917.044	14910
917.156	14941
917.268	14754
917.38	14883
917.491	14785
917.603	14838
917.715	14982
917.826	14979
917.938	14773
918.049	14693
918.161	14708
918.272	14876
918.384	14880
918.495	14796
918.606	14621
918.717	14549
918.828	14606
918.939	14613
919.05	14571
919.161	14533
919.272	14389
919.383	14415
919.494	14682
919.604	14826
919.715	14564
919.826	14514
919.936	14571
920.047	14640
920.157	14526
920.267	14796
920.378	14598
920.488	14560
920.598	14811
920.708	14746
920.818	14727
920.928	14674
921.038	14891
921.148	14716
921.258	14495
921.368	14457
921.477	14290
921.587	14366
921.697	14145
921.806	14263
921.916	14142
922.025	13970
922.134	13947
922.244	13894
922.353	13986
922.462	13864
922.571	13776
922.68	13601
922.789	13563
922.898	13704
923.007	13449
923.116	13548
923.224	13658
923.333	13548
923.442	13415
923.55	13415
923.659	13422
923.767	13529
923.876	13327
923.984	13430
924.092	13343
924.201	13293
924.309	13259
924.417	13327
924.525	13289
924.633	13225
924.741	14031
924.849	13110
924.956	13194
925.064	12977
925.172	12924
925.279	12973
925.387	13012
925.494	13000
925.602	13015
925.709	12981
925.816	12852
925.924	12947
926.031	13038
926.138	12928
926.245	13088
926.352	12753
926.459	13012
926.566	12954
926.673	12859
926.779	12703
926.886	12745
926.993	12589
927.099	12589
927.206	12525
927.312	12513
927.419	12673
927.525	12585
927.631	12612
927.737	12445
927.843	12388
927.95	12304
928.056	12471
928.162	12395
928.267	12376
928.373	13072
928.479	12536
928.585	12228
928.69	12372
928.796	12445
928.901	12251
929.007	12106
929.112	12232
929.218	12163
929.323	12133
929.428	12057
929.533	12197
929.638	12068
929.743	11958
929.848	12045
929.953	12129
930.058	11942
930.163	11726
930.267	11855
930.372	11882
930.477	11805
930.581	11920
930.685	11760
930.79	11600
930.894	11748
930.998	11642
931.103	11805
931.207	11440
931.311	11223
931.415	11288
931.519	11079
931.623	11010
