Data from test_V78500241_891.txt Node
Date: Fri Mar 25 15:16:03 CST 2022
User: usil
Spectrometer: V785-0024
Trigger mode: 0
Integration Time (sec): 4.000000E-1
Scans to average: 1
Nonlinearity correction enabled: false
Boxcar width: 0
Storing dark spectrum: false
XAxis mode: Wavelengths
Number of Pixels in Spectrum: 1024
>>>>>Begin Spectral Data<<<<<
801.071	28128
801.214	28169
801.356	27926
801.499	27873
801.641	27751
801.783	27759
801.926	27975
802.068	27751
802.211	27701
802.353	27652
802.496	27477
802.638	27466
802.78	27496
802.923	27488
803.065	27325
803.208	27412
803.35	27405
803.492	27427
803.635	27500
803.777	27561
803.919	27739
804.061	27873
804.204	27610
804.346	27488
804.488	27488
804.63	27599
804.773	27523
804.915	27701
805.057	27781
805.199	27701
805.341	27732
805.483	27759
805.626	27785
805.768	27606
805.91	27717
806.052	27732
806.194	27530
806.336	27975
806.478	27755
806.62	27846
806.762	27926
806.904	28105
807.046	28226
807.188	28211
807.33	28181
807.472	28257
807.614	28200
807.756	28090
807.898	28070
808.04	28032
808.182	27956
808.324	27956
808.465	27987
808.607	28272
808.749	28379
808.891	28470
809.033	28607
809.174	28573
809.316	28405
809.458	28474
809.6	28295
809.741	28634
809.883	28523
810.025	28752
810.166	28774
810.308	28729
810.45	28618
810.591	28740
810.733	28516
810.875	28253
811.016	28352
811.158	28386
811.299	28599
811.441	28622
811.582	28489
811.724	28466
811.865	28413
812.007	28287
812.148	28557
812.29	28504
812.431	28694
812.573	28713
812.714	28866
812.855	28991
812.997	29109
813.138	29189
813.279	29102
813.421	29151
813.562	28999
813.703	28904
813.845	28759
813.986	28493
814.127	28234
814.268	28074
814.41	28124
814.551	28067
814.692	28207
814.833	28097
814.974	28067
815.115	28192
815.256	28090
815.397	27983
815.539	27998
815.68	27983
815.821	27816
815.962	27972
816.103	27945
816.244	27937
816.385	27781
816.526	27743
816.666	27637
816.807	27485
816.948	27386
817.089	27458
817.23	27595
817.371	27652
817.512	27534
817.653	27416
817.793	27473
817.934	27580
818.075	27500
818.216	27606
818.356	27557
818.497	27416
818.638	27222
818.778	27142
818.919	27188
819.06	27389
819.2	27192
819.341	27370
819.481	27310
819.622	27675
819.762	27857
819.903	27660
820.043	27671
820.184	27557
820.324	27485
820.465	27549
820.605	27671
820.746	27572
820.886	27348
821.026	27504
821.167	27583
821.307	27576
821.447	27443
821.588	27291
821.728	27382
821.868	27127
822.008	27001
822.149	26864
822.289	26979
822.429	26537
822.569	26552
822.709	26644
822.849	26427
822.99	26328
823.13	26313
823.27	26324
823.41	26294
823.55	25993
823.69	26370
823.83	26263
823.97	26183
824.11	26172
824.25	26107
824.389	26043
824.529	26252
824.669	26107
824.809	26263
824.949	26092
825.089	26199
825.228	26172
825.368	25982
825.508	25944
825.648	26062
825.787	25974
825.927	26046
826.067	25928
826.206	25814
826.346	26005
826.485	26046
826.625	26046
826.765	26069
826.904	26084
827.044	25769
827.183	25799
827.323	25757
827.462	25708
827.601	25769
827.741	25689
827.88	25693
828.02	25575
828.159	25677
828.298	25620
828.437	25723
828.577	25670
828.716	25715
828.855	25681
828.994	25495
829.134	25460
829.273	25575
829.412	25381
829.551	25411
829.69	25278
829.829	25441
829.968	25460
830.107	25457
830.246	25476
830.385	25377
830.524	25293
830.663	25278
830.802	25118
830.941	25019
831.08	25080
831.219	25084
831.357	25156
831.496	25247
831.635	25072
831.774	24859
831.913	24920
832.051	24810
832.19	24760
832.329	24924
832.467	24764
832.606	24711
832.744	24757
832.883	24642
833.022	24658
833.16	24563
833.299	24730
833.437	24601
833.576	24806
833.714	24795
833.852	24768
833.991	24817
834.129	24951
834.267	24848
834.406	24806
834.544	24791
834.682	24821
834.821	24935
834.959	24909
835.097	24692
835.235	24787
835.373	24692
835.511	24707
835.65	24528
835.788	24589
835.926	24517
836.064	24361
836.202	24490
836.34	24437
836.478	24574
836.615	24521
836.753	24642
836.891	24719
837.029	24703
837.167	24627
837.305	24528
837.443	24559
837.58	24361
837.718	24342
837.856	24357
837.993	24342
838.131	24464
838.269	24369
838.406	24247
838.544	24281
838.681	24106
838.819	23958
838.956	23813
839.094	23950
839.231	23897
839.369	23988
839.506	24281
839.643	24095
839.781	23863
839.918	23851
840.055	23802
840.193	23901
840.33	23707
840.467	23870
840.604	23771
840.742	24049
840.879	23543
841.016	23699
841.153	23737
841.29	23699
841.427	23870
841.564	23840
841.701	23798
841.838	23783
841.975	23699
842.112	23691
842.249	23661
842.385	23516
842.522	23821
842.659	23573
842.796	23497
842.933	23501
843.069	23414
843.206	23493
843.343	23661
843.479	23531
843.616	23554
843.752	23280
843.889	23395
844.025	23520
844.162	23398
844.298	23448
844.435	23360
844.571	23254
844.708	23296
844.844	23448
844.98	23360
845.117	23455
845.253	23258
845.389	23269
845.525	23261
845.661	23204
845.798	23113
845.934	23155
846.07	23109
846.206	23044
846.342	23136
846.478	23090
846.614	22949
846.75	22675
846.886	22850
847.022	22740
847.158	22748
847.294	22885
847.429	22793
847.565	22839
847.701	22987
847.837	22561
847.972	22417
848.108	22592
848.244	22527
848.379	22455
848.515	22451
848.65	22367
848.786	22287
848.921	22367
849.057	22519
849.192	22489
849.328	22424
849.463	22268
849.598	22390
849.734	22322
849.869	22257
850.004	22200
850.14	22185
850.275	22276
850.41	22025
850.545	22086
850.68	22188
850.815	22067
850.95	22211
851.085	22265
851.22	22337
851.355	22139
851.49	22158
851.625	22090
851.76	22139
851.895	21994
852.03	22139
852.165	22086
852.299	22150
852.434	22181
852.569	22249
852.703	22188
852.838	22204
852.973	22261
853.107	22150
853.242	22101
853.376	21983
853.511	21747
853.645	21987
853.78	22013
853.914	21994
854.048	21888
854.183	21945
854.317	21934
854.451	22154
854.585	21895
854.72	21895
854.854	22093
854.988	21991
855.122	21846
855.256	21838
855.39	21831
855.524	22059
855.658	21956
855.792	22013
855.926	21842
856.06	21918
856.194	22173
856.327	21930
856.461	21934
856.595	21960
856.729	21953
856.862	22120
856.996	21953
857.13	21998
857.263	21983
857.397	21983
857.53	21979
857.664	21983
857.797	21926
857.931	22021
858.064	22059
858.197	22147
858.331	21956
858.464	21907
858.597	21903
858.731	22013
858.864	21949
858.997	21876
859.13	21930
859.263	21823
859.396	22032
859.529	21983
859.662	21873
859.795	21880
859.928	22002
860.061	22105
860.194	22135
860.327	22074
860.46	21907
860.592	22070
860.725	22128
860.858	22135
860.99	21865
861.123	21911
861.256	21888
861.388	22002
861.521	22729
861.653	21873
861.786	21717
861.918	21762
862.05	21823
862.183	21895
862.315	21953
862.447	22025
862.58	21987
862.712	21739
862.844	21641
862.976	21770
863.108	21793
863.24	22006
863.372	21610
863.504	21591
863.636	21583
863.768	21614
863.9	21663
864.032	21583
864.164	21641
864.296	21603
864.428	21633
864.559	21850
864.691	21800
864.823	21648
864.954	21644
865.086	21694
865.217	21576
865.349	21393
865.48	21473
865.612	21614
865.743	21648
865.875	21576
866.006	21389
866.137	21504
866.269	21599
866.4	21408
866.531	21485
866.662	21424
866.793	21420
866.924	21500
867.055	21469
867.186	21439
867.317	21511
867.448	21370
867.579	21534
867.71	21329
867.841	21424
867.972	21283
868.103	21473
868.233	21378
868.364	21412
868.495	21542
868.625	21652
868.756	21804
868.886	21610
869.017	21622
869.147	21816
869.278	21800
869.408	21778
869.539	21663
869.669	21766
869.799	21823
869.929	21724
870.06	21789
870.19	21960
870.32	22017
870.45	22051
870.58	22044
870.71	22226
870.84	22204
870.97	22166
871.1	22070
871.23	22143
871.36	22253
871.489	22333
871.619	22344
871.749	22215
871.879	22272
872.008	22276
872.138	22246
872.267	22341
872.397	22147
872.526	22139
872.656	22158
872.785	22246
872.915	22390
873.044	22500
873.173	22424
873.303	22390
873.432	22303
873.561	22371
873.69	22386
873.819	22238
873.948	22417
874.077	22333
874.206	22344
874.335	22268
874.464	22409
874.593	22538
874.722	22538
874.851	22603
874.979	22759
875.108	22599
875.237	22497
875.365	22356
875.494	22428
875.623	22752
875.751	22527
875.88	22645
876.008	22694
876.136	22797
876.265	22809
876.393	23037
876.521	22957
876.65	23071
876.778	22843
876.906	22938
877.034	22862
877.162	22927
877.29	22763
877.418	22915
877.546	22862
877.674	22736
877.802	22873
877.93	22809
878.058	22828
878.185	22752
878.313	22835
878.441	22904
878.568	22687
878.696	22850
878.824	22919
878.951	22934
879.079	23121
879.206	23117
879.333	23178
879.461	23033
879.588	23075
879.715	23052
879.842	23170
879.97	22953
880.097	22713
880.224	22710
880.351	22675
880.478	22805
880.605	22679
880.732	22710
880.859	22885
880.986	22713
881.112	22721
881.239	22592
881.366	22390
881.493	22436
881.619	22219
881.746	22322
881.872	22261
881.999	22185
882.125	22219
882.252	22409
882.378	22291
882.505	22238
882.631	21975
882.757	22048
882.883	22055
883.01	22067
883.136	21964
883.262	22002
883.388	21755
883.514	22055
883.64	22029
883.766	21884
883.892	21781
884.018	21785
884.143	21888
884.269	21972
884.395	21652
884.52	21599
884.646	21568
884.772	21439
884.897	21397
885.023	21568
885.148	21690
885.274	21831
885.399	21587
885.524	21644
885.65	21557
885.775	21519
885.9	21473
886.025	21694
886.15	21679
886.275	21549
886.4	21568
886.525	21580
886.65	21519
886.775	21477
886.9	21648
887.025	21800
887.149	21614
887.274	21382
887.399	21332
887.523	21393
887.648	21287
887.773	21321
887.897	21389
888.021	21264
888.146	21336
888.27	21428
888.395	21431
888.519	21351
888.643	21294
888.767	21447
888.891	21214
889.015	21184
889.139	21173
889.263	21317
889.387	21256
889.511	21317
889.635	21256
889.759	21081
889.883	21161
890.006	21119
890.13	21237
890.254	20967
890.377	21020
890.501	20880
890.624	20921
890.748	20842
890.871	20902
890.995	20762
891.118	20632
891.241	20746
891.364	20838
891.488	20788
891.611	20655
891.734	20727
891.857	20701
891.98	20705
892.103	20705
892.226	20788
892.349	20678
892.471	20507
892.594	20678
892.717	20571
892.839	20629
892.962	20457
893.085	20648
893.207	20556
893.33	20473
893.452	20549
893.575	20667
893.697	20537
893.819	20750
893.941	20693
894.064	20788
894.186	20613
894.308	20476
894.43	20739
894.552	20720
894.674	20571
894.796	20537
894.918	20503
895.04	20533
895.161	20686
895.283	20674
895.405	20602
895.526	20533
895.648	20476
895.769	20659
895.891	20617
896.012	20640
896.134	20739
896.255	20644
896.376	20503
896.498	20621
896.619	20590
896.74	20533
896.861	20720
896.982	20921
897.103	21009
897.224	20849
897.345	20785
897.466	20765
897.587	20716
897.708	20918
897.828	20838
897.949	20716
898.07	20735
898.19	20590
898.311	20838
898.431	20697
898.552	20807
898.672	20773
898.792	20788
898.913	20697
899.033	20682
899.153	20705
899.273	20469
899.393	20419
899.513	20552
899.633	20495
899.753	20594
899.873	20560
899.993	20697
900.113	20579
900.232	20480
900.352	20461
900.472	20450
900.591	20256
900.711	20339
900.83	20305
900.95	20374
901.069	20438
901.189	20218
901.308	19909
901.427	19883
901.546	19879
901.665	19921
901.784	19917
901.904	19715
902.023	19613
902.141	19495
902.26	19415
902.379	19453
902.498	19422
902.617	19373
902.735	19373
902.854	19396
902.973	19343
903.091	19080
903.21	19095
903.328	19069
903.446	18947
903.565	18783
903.683	18810
903.801	18730
903.919	18943
904.038	18825
904.156	18597
904.274	18745
904.392	18684
904.51	18540
904.627	18589
904.745	18654
904.863	18703
904.981	18532
905.098	18327
905.216	18365
905.334	18319
905.451	18353
905.569	18384
905.686	18384
905.803	18224
905.921	18121
906.038	18171
906.155	18095
906.272	17927
906.389	18030
906.506	17813
906.623	17885
906.74	17665
906.857	17790
906.974	17714
907.091	17847
907.208	17901
907.324	17836
907.441	17634
907.557	17532
907.674	17532
907.79	17474
907.907	17551
908.023	17566
908.139	17638
908.256	17436
908.372	17383
908.488	17440
908.604	17250
908.72	17094
908.836	17208
908.952	17258
909.068	17372
909.184	17345
909.3	17227
909.415	17318
909.531	17216
909.647	16919
909.762	17010
909.878	16904
909.993	16991
910.108	16927
910.224	16854
910.339	16927
910.454	16858
910.57	16771
910.685	16710
910.8	16930
910.915	16881
911.03	16862
911.145	16554
911.259	16538
911.374	16409
911.489	16455
911.604	16504
911.718	16344
911.833	16314
911.947	16131
912.062	16071
912.176	16322
912.291	16215
912.405	16280
912.519	16424
912.633	16413
912.748	16284
912.862	16322
912.976	16067
913.09	15983
913.204	16093
913.318	16101
913.431	16253
913.545	16166
913.659	16238
913.772	15960
913.886	15915
914	15903
914.113	15994
914.226	16006
914.34	15880
914.453	15671
914.566	15895
914.68	15819
914.793	15766
914.906	15641
915.019	15557
915.132	15534
915.245	15393
915.358	15481
915.47	15386
915.583	15591
915.696	15454
915.809	15530
915.921	15629
916.034	15481
916.146	15439
916.259	15344
916.371	15481
916.483	15405
916.595	15279
916.708	15355
916.82	15211
916.932	15211
917.044	15325
917.156	15264
917.268	15135
917.38	15142
917.491	15062
917.603	15085
917.715	15272
917.826	15230
917.938	15165
918.049	14918
918.161	15055
918.272	15180
918.384	15070
918.495	14994
918.606	14902
918.717	14781
918.828	14944
918.939	14948
919.05	14686
919.161	14765
919.272	14701
919.383	14640
919.494	14925
919.604	15047
919.715	14834
919.826	14689
919.936	14834
920.047	14845
920.157	14925
920.267	15036
920.378	14769
920.488	14804
920.598	15020
920.708	15085
920.818	14994
920.928	14876
921.038	15116
921.148	15081
921.258	14853
921.368	14689
921.477	14594
921.587	14522
921.697	14454
921.806	14556
921.916	14492
922.025	14199
922.134	14256
922.244	14161
922.353	14248
922.462	14065
922.571	14046
922.68	13871
922.789	13837
922.898	13909
923.007	13780
923.116	13830
923.224	13780
923.333	13750
923.442	13647
923.55	13601
923.659	13582
923.767	13765
923.876	13578
923.984	13632
924.092	13639
924.201	13575
924.309	13582
924.417	13597
924.525	13529
924.633	13396
924.741	14149
924.849	13225
924.956	13491
925.064	13331
925.172	13175
925.279	13228
925.387	13304
925.494	13270
925.602	13415
925.709	13266
925.816	13095
925.924	13202
926.031	13232
926.138	13183
926.245	13202
926.352	13088
926.459	13190
926.566	13289
926.673	13160
926.779	13053
926.886	12985
926.993	12833
927.099	12871
927.206	12631
927.312	12817
927.419	12844
927.525	12757
927.631	12760
927.737	12681
927.843	12665
927.95	12555
928.056	12616
928.162	12684
928.267	12719
928.373	13266
928.479	12684
928.585	12445
928.69	12551
928.796	12627
928.901	12528
929.007	12346
929.112	12395
929.218	12346
929.323	12319
929.428	12304
929.533	12346
929.638	12380
929.743	12289
929.848	12342
929.953	12304
930.058	12186
930.163	12060
930.267	12041
930.372	12186
930.477	11973
930.581	12182
930.685	12095
930.79	11988
930.894	11904
930.998	11824
931.103	12015
931.207	11596
931.311	11535
931.415	11547
931.519	11239
931.623	11311
