Data from test_V78500241_59.txt Node
Date: Fri Mar 25 15:10:16 CST 2022
User: usil
Spectrometer: V785-0024
Trigger mode: 0
Integration Time (sec): 4.000000E-1
Scans to average: 1
Nonlinearity correction enabled: false
Boxcar width: 0
Storing dark spectrum: false
XAxis mode: Wavelengths
Number of Pixels in Spectrum: 1024
>>>>>Begin Spectral Data<<<<<
801.071	28702
801.214	28542
801.356	28371
801.499	28177
801.641	28211
801.783	28268
801.926	28128
802.068	28246
802.211	28219
802.353	27945
802.496	27861
802.638	27709
802.78	27739
802.923	27728
803.065	27625
803.208	27724
803.35	27720
803.492	27865
803.635	27823
803.777	27850
803.919	27907
804.061	28204
804.204	27949
804.346	27960
804.488	27682
804.63	27770
804.773	27774
804.915	27766
805.057	28067
805.199	27888
805.341	27953
805.483	27941
805.626	27842
805.768	27949
805.91	27899
806.052	27816
806.194	27812
806.336	28158
806.478	28002
806.62	28082
806.762	28032
806.904	28166
807.046	28432
807.188	28325
807.33	28360
807.472	28421
807.614	28291
807.756	28169
807.898	28128
808.04	27979
808.182	28059
808.324	28211
808.465	28207
808.607	28204
808.749	28432
808.891	28554
809.033	28527
809.174	28432
809.316	28375
809.458	28497
809.6	28360
809.741	28500
809.883	28599
810.025	28653
810.166	28565
810.308	28797
810.45	28550
810.591	28622
810.733	28261
810.875	28398
811.016	28261
811.158	28135
811.299	28421
811.441	28516
811.582	28538
811.724	28398
811.865	28238
812.007	28337
812.148	28295
812.29	28314
812.431	28443
812.573	28649
812.714	28748
812.855	28755
812.997	28892
813.138	29147
813.279	28999
813.421	28888
813.562	28908
813.703	28710
813.845	28527
813.986	28226
814.127	28044
814.268	28010
814.41	28010
814.551	27918
814.692	28090
814.833	27823
814.974	27880
815.115	27914
815.256	27759
815.397	27789
815.539	27804
815.68	27572
815.821	27660
815.962	27892
816.103	27781
816.244	27564
816.385	27443
816.526	27511
816.666	27192
816.807	27100
816.948	27154
817.089	27127
817.23	27161
817.371	27241
817.512	27192
817.653	27047
817.793	27028
817.934	27165
818.075	27005
818.216	27055
818.356	27043
818.497	26929
818.638	26727
818.778	26842
818.919	26788
819.06	26765
819.2	26963
819.341	26914
819.481	27062
819.622	27074
819.762	27310
819.903	27256
820.043	27036
820.184	27074
820.324	27089
820.465	27150
820.605	27055
820.746	26963
820.886	26834
821.026	27112
821.167	27043
821.307	27081
821.447	26952
821.588	26845
821.728	26724
821.868	26571
822.008	26419
822.149	26385
822.289	26370
822.429	26149
822.569	26107
822.709	26172
822.849	25928
822.99	25974
823.13	25963
823.27	25677
823.41	25628
823.55	25548
823.69	25860
823.83	25575
823.97	25632
824.11	25403
824.25	25499
824.389	25388
824.529	25582
824.669	25468
824.809	25635
824.949	25632
825.089	25552
825.228	25457
825.368	25396
825.508	25213
825.648	25316
825.787	25270
825.927	25270
826.067	25403
826.206	25107
826.346	25236
826.485	25373
826.625	25278
826.765	25392
826.904	25289
827.044	25015
827.183	25046
827.323	24871
827.462	24954
827.601	24920
827.741	25099
827.88	24837
828.02	24833
828.159	24886
828.298	24890
828.437	24871
828.577	24882
828.716	24932
828.855	24757
828.994	24601
829.134	24563
829.273	24760
829.412	24597
829.551	24445
829.69	24555
829.829	24582
829.968	24757
830.107	24604
830.246	24658
830.385	24433
830.524	24532
830.663	24399
830.802	24262
830.941	24041
831.08	24083
831.219	24182
831.357	24110
831.496	24304
831.635	24129
831.774	23980
831.913	23920
832.051	23942
832.19	23893
832.329	23927
832.467	23729
832.606	23745
832.744	23748
832.883	23813
833.022	23741
833.16	23714
833.299	23771
833.437	23813
833.576	23821
833.714	23726
833.852	23813
833.991	23764
834.129	23916
834.267	23828
834.406	23786
834.544	23760
834.682	23745
834.821	23707
834.959	23984
835.097	23714
835.235	23851
835.373	23665
835.511	23798
835.65	23585
835.788	23558
835.926	23516
836.064	23402
836.202	23452
836.34	23653
836.478	23726
836.615	23566
836.753	23459
836.891	23630
837.029	23497
837.167	23455
837.305	23463
837.443	23444
837.58	23345
837.718	23459
837.856	23471
837.993	23322
838.131	23395
838.269	23315
838.406	23277
838.544	23140
838.681	23109
838.819	23022
838.956	22809
839.094	22755
839.231	22965
839.369	22889
839.506	23261
839.643	23086
839.781	22805
839.918	22774
840.055	22877
840.193	22679
840.33	22691
840.467	22774
840.604	22752
840.742	22942
840.879	22660
841.016	22630
841.153	22634
841.29	22733
841.427	22664
841.564	22679
841.701	22736
841.838	22615
841.975	22497
842.112	22603
842.249	22565
842.385	22413
842.522	22611
842.659	22504
842.796	22405
842.933	22375
843.069	22402
843.206	22253
843.343	22466
843.479	22382
843.616	22295
843.752	22166
843.889	22249
844.025	22325
844.162	22082
844.298	22226
844.435	22097
844.571	22139
844.708	22116
844.844	22287
844.98	22344
845.117	22367
845.253	22044
845.389	21911
845.525	22120
845.661	21945
845.798	21861
845.934	21903
846.07	21888
846.206	21960
846.342	21949
846.478	21869
846.614	21648
846.75	21538
846.886	21545
847.022	21633
847.158	21599
847.294	21614
847.429	21606
847.565	21629
847.701	21850
847.837	21287
847.972	21351
848.108	21405
848.244	21321
848.379	21093
848.515	21100
848.65	21127
848.786	21199
848.921	21192
849.057	21226
849.192	21260
849.328	21066
849.463	21036
849.598	21154
849.734	21017
849.869	20990
850.004	20788
850.14	20944
850.275	20765
850.41	20815
850.545	20849
850.68	20720
850.815	20876
850.95	20800
851.085	20979
851.22	20941
851.355	20899
851.49	20815
851.625	20758
851.76	20785
851.895	20701
852.03	20731
852.165	20819
852.299	20853
852.434	20887
852.569	21001
852.703	20750
852.838	20823
852.973	21058
853.107	20982
853.242	20834
853.376	20651
853.511	20629
853.645	20598
853.78	20921
853.914	20739
854.048	20663
854.183	20556
854.317	20473
854.451	20857
854.585	20640
854.72	20606
854.854	20648
854.988	20667
855.122	20758
855.256	20492
855.39	20545
855.524	20724
855.658	20575
855.792	20602
855.926	20667
856.06	20659
856.194	20853
856.327	20663
856.461	20613
856.595	20571
856.729	20663
856.862	20659
856.996	20511
857.13	20617
857.263	20667
857.397	20640
857.53	20667
857.664	20746
857.797	20663
857.931	20701
858.064	20632
858.197	20765
858.331	20625
858.464	20571
858.597	20560
858.731	20381
858.864	20530
858.997	20511
859.13	20568
859.263	20556
859.396	20571
859.529	20560
859.662	20457
859.795	20511
859.928	20541
860.061	20773
860.194	20708
860.327	20648
860.46	20560
860.592	20655
860.725	20796
860.858	20701
860.99	20568
861.123	20492
861.256	20484
861.388	20507
861.521	21116
861.653	20381
861.786	20355
861.918	20427
862.05	20564
862.183	20476
862.315	20640
862.447	20682
862.58	20492
862.712	20355
862.844	20286
862.976	20438
863.108	20362
863.24	20651
863.372	20153
863.504	20290
863.636	20355
863.768	20355
863.9	20328
864.032	20172
864.164	20233
864.296	20259
864.428	20225
864.559	20351
864.691	20298
864.823	20271
864.954	20233
865.086	20263
865.217	20210
865.349	20065
865.48	20206
865.612	20202
865.743	20214
865.875	20134
866.006	20088
866.137	20145
866.269	20031
866.4	20138
866.531	20157
866.662	19917
866.793	20077
866.924	20225
867.055	19955
867.186	20058
867.317	20103
867.448	20058
867.579	20096
867.71	19951
867.841	19982
867.972	20062
868.103	20073
868.233	20065
868.364	20016
868.495	20275
868.625	20298
868.756	20339
868.886	20294
869.017	20298
869.147	20454
869.278	20400
869.408	20396
869.539	20301
869.669	20396
869.799	20457
869.929	20393
870.06	20526
870.19	20495
870.32	20552
870.45	20682
870.58	20629
870.71	20906
870.84	20845
870.97	20667
871.1	20731
871.23	20796
871.36	20899
871.489	20769
871.619	20895
871.749	20895
871.879	20967
872.008	20921
872.138	20937
872.267	20906
872.397	20826
872.526	20781
872.656	20693
872.785	20773
872.915	20929
873.044	21013
873.173	20811
873.303	20845
873.432	21020
873.561	21089
873.69	20975
873.819	20979
873.948	21070
874.077	20967
874.206	20796
874.335	20960
874.464	21024
874.593	21184
874.722	21077
874.851	21336
874.979	21214
875.108	21214
875.237	21131
875.365	21062
875.494	21116
875.623	21211
875.751	21142
875.88	21154
876.008	21332
876.136	21340
876.265	21599
876.393	21762
876.521	21564
876.65	21732
876.778	21549
876.906	21473
877.034	21488
877.162	21622
877.29	21469
877.418	21644
877.546	21572
877.674	21511
877.802	21603
877.93	21469
878.058	21348
878.185	21367
878.313	21450
878.441	21496
878.568	21401
878.696	21462
878.824	21507
878.951	21671
879.079	21523
879.206	21713
879.333	21580
879.461	21485
879.588	21466
879.715	21671
879.842	21808
879.97	21660
880.097	21237
880.224	21408
880.351	21393
880.478	21359
880.605	21184
880.732	21329
880.859	21614
880.986	21412
881.112	21359
881.239	21306
881.366	21161
881.493	21062
881.619	21009
881.746	21017
881.872	20982
881.999	20891
882.125	20811
882.252	20994
882.378	20952
882.505	21100
882.631	20811
882.757	20712
882.883	20777
883.01	20594
883.136	20556
883.262	20564
883.388	20530
883.514	20697
883.64	20746
883.766	20568
883.892	20606
884.018	20568
884.143	20560
884.269	20511
884.395	20469
884.52	20317
884.646	20351
884.772	20294
884.897	20111
885.023	20301
885.148	20377
885.274	20514
885.399	20355
885.524	20176
885.65	20313
885.775	20313
885.9	20225
886.025	20396
886.15	20328
886.275	20290
886.4	20259
886.525	20176
886.65	20343
886.775	20358
886.9	20358
887.025	20358
887.149	20301
887.274	20100
887.399	20126
887.523	19955
887.648	19982
887.773	19959
887.897	20008
888.021	20149
888.146	19959
888.27	20237
888.395	20130
888.519	20046
888.643	20122
888.767	20153
888.891	19970
889.015	19765
889.139	20005
889.263	19818
889.387	20005
889.511	20065
889.635	20031
889.759	19845
889.883	19890
890.006	19864
890.13	19925
890.254	19700
890.377	19818
890.501	19567
890.624	19487
890.748	19693
890.871	19502
890.995	19365
891.118	19343
891.241	19544
891.364	19419
891.488	19590
891.611	19434
891.734	19434
891.857	19495
891.98	19422
892.103	19487
892.226	19369
892.349	19392
892.471	19297
892.594	19419
892.717	19396
892.839	19388
892.962	19365
893.085	19518
893.207	19358
893.33	19179
893.452	19285
893.575	19392
893.697	19266
893.819	19502
893.941	19510
894.064	19537
894.186	19285
894.308	19228
894.43	19388
894.552	19441
894.674	19426
894.796	19255
894.918	19354
895.04	19297
895.161	19457
895.283	19460
895.405	19324
895.526	19419
895.648	19312
895.769	19403
895.891	19384
896.012	19514
896.134	19331
896.255	19430
896.376	19426
896.498	19415
896.619	19346
896.74	19392
896.861	19590
896.982	19845
897.103	19833
897.224	19753
897.345	19556
897.466	19571
897.587	19696
897.708	19723
897.828	19696
897.949	19491
898.07	19616
898.19	19457
898.311	19696
898.431	19590
898.552	19639
898.672	19647
898.792	19662
898.913	19639
899.033	19441
899.153	19384
899.273	19133
899.393	19293
899.513	19285
899.633	19282
899.753	19297
899.873	19240
899.993	19263
900.113	19289
900.232	19274
900.352	19198
900.472	19251
900.591	19107
900.711	19145
900.83	19042
900.95	19114
901.069	19156
901.189	18928
901.308	18829
901.427	18570
901.546	18711
901.665	18764
901.784	18753
901.904	18437
902.023	18433
902.141	18262
902.26	18197
902.379	18410
902.498	18273
902.617	18117
902.735	18213
902.854	18285
902.973	18098
903.091	17885
903.21	17893
903.328	17866
903.446	17794
903.565	17710
903.683	17642
903.801	17532
903.919	17668
904.038	17627
904.156	17478
904.274	17535
904.392	17596
904.51	17474
904.627	17436
904.745	17493
904.863	17528
904.981	17326
905.098	17128
905.216	17136
905.334	17124
905.451	17090
905.569	17079
905.686	17280
905.803	17094
905.921	16949
906.038	17147
906.155	16968
906.272	16786
906.389	16828
906.506	16736
906.623	16767
906.74	16516
906.857	16531
906.974	16702
907.091	16702
907.208	16759
907.324	16645
907.441	16497
907.557	16390
907.674	16462
907.79	16272
907.907	16382
908.023	16329
908.139	16379
908.256	16375
908.372	16314
908.488	16219
908.604	16101
908.72	16002
908.836	16063
908.952	16040
909.068	16032
909.184	16158
909.3	15960
909.415	16082
909.531	15968
909.647	15755
909.762	15823
909.878	15778
909.993	15823
910.108	15705
910.224	15671
910.339	15778
910.454	15667
910.57	15576
910.685	15481
910.8	15701
910.915	15713
911.03	15545
911.145	15496
911.259	15397
911.374	15355
911.489	15249
911.604	15233
911.718	15138
911.833	15138
911.947	14941
912.062	14876
912.176	15173
912.291	15077
912.405	15055
912.519	15237
912.633	15226
912.748	15077
912.862	15093
912.976	14785
913.09	14796
913.204	14838
913.318	14899
913.431	15028
913.545	14956
913.659	15028
913.772	14815
913.886	14686
914	14716
914.113	14902
914.226	14883
914.34	14823
914.453	14613
914.566	14773
914.68	14686
914.793	14667
914.906	14389
915.019	14267
915.132	14286
915.245	14320
915.358	14423
915.47	14377
915.583	14469
915.696	14427
915.809	14541
915.921	14442
916.034	14271
916.146	14206
916.259	14221
916.371	14301
916.483	14328
916.595	14100
916.708	14267
916.82	14240
916.932	14134
917.044	14183
917.156	14123
917.268	14039
917.38	13959
917.491	14001
917.603	13982
917.715	14031
917.826	14050
917.938	13955
918.049	13932
918.161	14012
918.272	14100
918.384	14180
918.495	13978
918.606	13894
918.717	13784
918.828	13757
918.939	13791
919.05	13658
919.161	13830
919.272	13586
919.383	13639
919.494	13791
919.604	13959
919.715	13830
919.826	13624
919.936	13715
920.047	13868
920.157	13651
920.267	13890
920.378	13788
920.488	13666
920.598	13894
920.708	14020
920.818	13841
920.928	13871
921.038	14081
921.148	13906
921.258	13662
921.368	13586
921.477	13571
921.587	13449
921.697	13407
921.806	13472
921.916	13247
922.025	13232
922.134	13099
922.244	13122
922.353	13088
922.462	13004
922.571	12924
922.68	12764
922.789	12783
922.898	12806
923.007	12719
923.116	12810
923.224	12665
923.333	12700
923.442	12677
923.55	12635
923.659	12601
923.767	12631
923.876	12536
923.984	12563
924.092	12536
924.201	12544
924.309	12506
924.417	12540
924.525	12414
924.633	12467
924.741	13259
924.849	12308
924.956	12369
925.064	12285
925.172	12117
925.279	12213
925.387	12228
925.494	12186
925.602	12361
925.709	12323
925.816	12159
925.924	12201
926.031	12289
926.138	12209
926.245	12254
926.352	12045
926.459	12296
926.566	12266
926.673	12087
926.779	12007
926.886	12030
926.993	11874
927.099	11741
927.206	11726
927.312	11775
927.419	11863
927.525	11828
927.631	11832
927.737	11699
927.843	11665
927.95	11592
928.056	11623
928.162	11611
928.267	11703
928.373	12319
928.479	11733
928.585	11509
928.69	11562
928.796	11630
928.901	11535
929.007	11364
929.112	11528
929.218	11471
929.323	11440
929.428	11315
929.533	11539
929.638	11387
929.743	11280
929.848	11383
929.953	11288
930.058	11204
930.163	11003
930.267	11045
930.372	11318
930.477	11083
930.581	11261
930.685	11121
930.79	10946
930.894	10961
930.998	10892
931.103	11094
931.207	10714
931.311	10717
931.415	10459
931.519	10356
931.623	10318
