Data from test_V78500241_7.txt Node
Date: Fri Mar 25 15:09:54 CST 2022
User: usil
Spectrometer: V785-0024
Trigger mode: 0
Integration Time (sec): 4.000000E-1
Scans to average: 1
Nonlinearity correction enabled: false
Boxcar width: 0
Storing dark spectrum: false
XAxis mode: Wavelengths
Number of Pixels in Spectrum: 1024
>>>>>Begin Spectral Data<<<<<
801.071	27473
801.214	27439
801.356	27226
801.499	27332
801.641	27020
801.783	26918
801.926	26990
802.068	27032
802.211	26739
802.353	26925
802.496	26746
802.638	26640
802.78	26480
802.923	26507
803.065	26488
803.208	26457
803.35	26446
803.492	26461
803.635	26663
803.777	26518
803.919	26575
804.061	26963
804.204	26727
804.346	26545
804.488	26408
804.63	26423
804.773	26423
804.915	26499
805.057	26552
805.199	26396
805.341	26598
805.483	26609
805.626	26697
805.768	26465
805.91	26549
806.052	26678
806.194	26571
806.336	26750
806.478	26488
806.62	26427
806.762	26575
806.904	26724
807.046	27055
807.188	26971
807.33	26921
807.472	26948
807.614	26853
807.756	26773
807.898	26644
808.04	26769
808.182	26526
808.324	26701
808.465	26590
808.607	26739
808.749	27047
808.891	27104
809.033	27096
809.174	27157
809.316	27047
809.458	26975
809.6	27001
809.741	27077
809.883	27085
810.025	27218
810.166	27180
810.308	27256
810.45	27211
810.591	27093
810.733	27005
810.875	26952
811.016	26796
811.158	26731
811.299	26944
811.441	27032
811.582	26963
811.724	26948
811.865	26788
812.007	26796
812.148	26933
812.29	26864
812.431	26849
812.573	27218
812.714	27370
812.855	27393
812.997	27355
813.138	27660
813.279	27542
813.421	27348
813.562	27408
813.703	27085
813.845	27032
813.986	26754
814.127	26686
814.268	26374
814.41	26568
814.551	26514
814.692	26480
814.833	26514
814.974	26438
815.115	26393
815.256	26290
815.397	26168
815.539	26252
815.68	26111
815.821	26073
815.962	26214
816.103	26134
816.244	25932
816.385	25856
816.526	25776
816.666	25651
816.807	25411
816.948	25563
817.089	25742
817.23	25594
817.371	25487
817.512	25624
817.653	25449
817.793	25434
817.934	25548
818.075	25518
818.216	25514
818.356	25468
818.497	25445
818.638	25183
818.778	25270
818.919	25164
819.06	25209
819.2	25301
819.341	25320
819.481	25331
819.622	25460
819.762	25613
819.903	25643
820.043	25495
820.184	25616
820.324	25422
820.465	25544
820.605	25514
820.746	25415
820.886	25285
821.026	25567
821.167	25381
821.307	25487
821.447	25445
821.588	25358
821.728	25141
821.868	24992
822.008	24943
822.149	24825
822.289	24688
822.429	24593
822.569	24578
822.709	24418
822.849	24266
822.99	24369
823.13	24235
823.27	24258
823.41	24087
823.55	24038
823.69	24110
823.83	24003
823.97	24053
824.11	23863
824.25	23760
824.389	23817
824.529	23942
824.669	23878
824.809	24026
824.949	23904
825.089	23935
825.228	23729
825.368	23668
825.508	23554
825.648	23619
825.787	23596
825.927	23619
826.067	23478
826.206	23695
826.346	23786
826.485	23627
826.625	23600
826.765	23737
826.904	23608
827.044	23505
827.183	23353
827.323	23269
827.462	23387
827.601	23223
827.741	23311
827.88	23322
828.02	23223
828.159	23296
828.298	23223
828.437	23124
828.577	23261
828.716	23391
828.855	23174
828.994	22953
829.134	22938
829.273	23044
829.412	22885
829.551	22869
829.69	22854
829.829	22953
829.968	23010
830.107	23044
830.246	23064
830.385	22824
830.524	22866
830.663	22809
830.802	22462
830.941	22478
831.08	22554
831.219	22508
831.357	22512
831.496	22706
831.635	22424
831.774	22421
831.913	22268
832.051	22242
832.19	22230
832.329	22291
832.467	22109
832.606	22063
832.744	22135
832.883	22150
833.022	21998
833.16	22078
833.299	22272
833.437	22055
833.576	22124
833.714	22188
833.852	22139
833.991	22109
834.129	22249
834.267	22196
834.406	22063
834.544	22116
834.682	22135
834.821	22017
834.959	22352
835.097	22124
835.235	22185
835.373	21991
835.511	22185
835.65	22082
835.788	21880
835.926	21854
836.064	21743
836.202	21861
836.34	21964
836.478	22078
836.615	22010
836.753	22036
836.891	22032
837.029	22013
837.167	21983
837.305	21926
837.443	21903
837.58	21827
837.718	21918
837.856	21880
837.993	21892
838.131	21751
838.269	21698
838.406	21793
838.544	21625
838.681	21408
838.819	21469
838.956	21310
839.094	21355
839.231	21256
839.369	21485
839.506	21583
839.643	21435
839.781	21272
839.918	21184
840.055	21207
840.193	21218
840.33	21173
840.467	21272
840.604	21135
840.742	21424
840.879	20933
841.016	21039
841.153	21108
841.29	21283
841.427	21150
841.564	21154
841.701	21112
841.838	21066
841.975	20933
842.112	21013
842.249	20804
842.385	20773
842.522	21028
842.659	20868
842.796	20826
842.933	20815
843.069	20777
843.206	20906
843.343	20914
843.479	20800
843.616	20765
843.752	20621
843.889	20659
844.025	20697
844.162	20579
844.298	20724
844.435	20556
844.571	20556
844.708	20564
844.844	20804
844.98	20682
845.117	20640
845.253	20419
845.389	20370
845.525	20503
845.661	20286
845.798	20298
845.934	20320
846.07	20294
846.206	20320
846.342	20427
846.478	20199
846.614	20126
846.75	20073
846.886	20027
847.022	20077
847.158	20005
847.294	20065
847.429	19967
847.565	19951
847.701	20298
847.837	19647
847.972	19734
848.108	19849
848.244	19837
848.379	19601
848.515	19635
848.65	19586
848.786	19578
848.921	19544
849.057	19715
849.192	19753
849.328	19639
849.463	19685
849.598	19453
849.734	19464
849.869	19438
850.004	19213
850.14	19464
850.275	19274
850.41	19198
850.545	19327
850.68	19240
850.815	19384
850.95	19297
851.085	19438
851.22	19365
851.355	19396
851.49	19156
851.625	19141
851.76	19187
851.895	19164
852.03	19095
852.165	19301
852.299	19297
852.434	19350
852.569	19343
852.703	19187
852.838	19327
852.973	19365
853.107	19430
853.242	19225
853.376	19072
853.511	18981
853.645	19057
853.78	19175
853.914	19148
854.048	19148
854.183	19095
854.317	19168
854.451	19259
854.585	19107
854.72	19034
854.854	19160
854.988	19000
855.122	19164
855.256	18932
855.39	19088
855.524	19129
855.658	19084
855.792	18947
855.926	19206
856.06	19114
856.194	19217
856.327	19065
856.461	19072
856.595	19050
856.729	19061
856.862	19175
856.996	19069
857.13	19069
857.263	19270
857.397	19225
857.53	18996
857.664	19118
857.797	19072
857.931	19137
858.064	19168
858.197	19034
858.331	19050
858.464	19091
858.597	18913
858.731	18935
858.864	19061
858.997	18996
859.13	19038
859.263	19057
859.396	19141
859.529	19065
859.662	18973
859.795	19019
859.928	18905
860.061	19232
860.194	19148
860.327	19046
860.46	18958
860.592	19042
860.725	19057
860.858	19076
860.99	19110
861.123	18897
861.256	18871
861.388	18973
861.521	19510
861.653	18779
861.786	18890
861.918	18894
862.05	18939
862.183	18996
862.315	19088
862.447	19187
862.58	19015
862.712	18798
862.844	18700
862.976	18890
863.108	18802
863.24	19156
863.372	18764
863.504	18681
863.636	18734
863.768	18722
863.9	18749
864.032	18627
864.164	18635
864.296	18719
864.428	18848
864.559	18639
864.691	18669
864.823	18707
864.954	18707
865.086	18681
865.217	18604
865.349	18517
865.48	18616
865.612	18597
865.743	18886
865.875	18547
866.006	18612
866.137	18612
866.269	18623
866.4	18677
866.531	18498
866.662	18574
866.793	18620
866.924	18574
867.055	18631
867.186	18635
867.317	18525
867.448	18502
867.579	18525
867.71	18433
867.841	18544
867.972	18582
868.103	18513
868.233	18582
868.364	18692
868.495	18612
868.625	18760
868.756	18897
868.886	18772
869.017	18837
869.147	18867
869.278	18909
869.408	18913
869.539	18749
869.669	18859
869.799	18932
869.929	18882
870.06	18916
870.19	19080
870.32	19053
870.45	19065
870.58	19293
870.71	19232
870.84	19407
870.97	19202
871.1	19255
871.23	19419
871.36	19422
871.489	19392
871.619	19422
871.749	19316
871.879	19445
872.008	19552
872.138	19407
872.267	19502
872.397	19335
872.526	19217
872.656	19285
872.785	19293
872.915	19445
873.044	19430
873.173	19343
873.303	19521
873.432	19502
873.561	19567
873.69	19384
873.819	19472
873.948	19453
874.077	19445
874.206	19449
874.335	19453
874.464	19563
874.593	19742
874.722	19677
874.851	19689
874.979	19795
875.108	19734
875.237	19723
875.365	19578
875.494	19632
875.623	19727
875.751	19655
875.88	19734
876.008	19807
876.136	19814
876.265	20084
876.393	20275
876.521	20153
876.65	20206
876.778	20180
876.906	20043
877.034	20058
877.162	19902
877.29	20062
877.418	20092
877.546	20115
877.674	20050
877.802	20069
877.93	20077
878.058	19997
878.185	19913
878.313	20237
878.441	20062
878.568	19860
878.696	19951
878.824	20145
878.951	20073
879.079	20237
879.206	20370
879.333	20290
879.461	20107
879.588	20214
879.715	20305
879.842	20446
879.97	20214
880.097	19928
880.224	19833
880.351	19993
880.478	20035
880.605	19909
880.732	19963
880.859	20214
880.986	19940
881.112	20039
881.239	19757
881.366	19624
881.493	19723
881.619	19476
881.746	19430
881.872	19616
881.999	19384
882.125	19445
882.252	19647
882.378	19518
882.505	19677
882.631	19441
882.757	19365
882.883	19407
883.01	19335
883.136	19202
883.262	19217
883.388	19183
883.514	19187
883.64	19373
883.766	19266
883.892	19110
884.018	19088
884.143	19358
884.269	19365
884.395	19004
884.52	18913
884.646	18954
884.772	18810
884.897	18833
885.023	18825
885.148	18977
885.274	19148
885.399	19034
885.524	19042
885.65	18943
885.775	18901
885.9	18943
886.025	19008
886.15	19000
886.275	18916
886.4	18837
886.525	18814
886.65	18779
886.775	18897
886.9	19080
887.025	19141
887.149	18882
887.274	18688
887.399	18681
887.523	18734
887.648	18661
887.773	18593
887.897	18719
888.021	18757
888.146	18555
888.27	18848
888.395	18806
888.519	18601
888.643	18730
888.767	18642
888.891	18566
889.015	18589
889.139	18570
889.263	18494
889.387	18673
889.511	18707
889.635	18551
889.759	18410
889.883	18513
890.006	18486
890.13	18513
890.254	18357
890.377	18407
890.501	18281
890.624	18254
890.748	18235
890.871	18178
890.995	18038
891.118	18102
891.241	18144
891.364	18098
891.488	18262
891.611	18117
891.734	18228
891.857	18254
891.98	18186
892.103	18121
892.226	18053
892.349	18045
892.471	17878
892.594	18148
892.717	18114
892.839	18038
892.962	18136
893.085	18114
893.207	18076
893.33	17897
893.452	17980
893.575	18178
893.697	18019
893.819	18258
893.941	18194
894.064	18091
894.186	18057
894.308	18041
894.43	18152
894.552	18163
894.674	18155
894.796	17855
894.918	18060
895.04	18022
895.161	18171
895.283	18117
895.405	18057
895.526	18068
895.648	18163
895.769	18178
895.891	18216
896.012	18053
896.134	18228
896.255	18163
896.376	18003
896.498	18152
896.619	18201
896.74	18091
896.861	18239
896.982	18498
897.103	18707
897.224	18361
897.345	18486
897.466	18315
897.587	18426
897.708	18467
897.828	18353
897.949	18315
898.07	18239
898.19	18342
898.311	18365
898.431	18251
898.552	18410
898.672	18395
898.792	18403
898.913	18315
899.033	18243
899.153	18152
899.273	18060
899.393	18125
899.513	18239
899.633	18182
899.753	18129
899.873	18060
899.993	18102
900.113	17942
900.232	18205
900.352	18030
900.472	18041
900.591	17931
900.711	17931
900.83	17920
900.95	17996
901.069	17992
901.189	17961
901.308	17687
901.427	17581
901.546	17486
901.665	17532
901.784	17570
901.904	17433
902.023	17376
902.141	17109
902.26	16934
902.379	17094
902.498	17064
902.617	16987
902.735	17140
902.854	17060
902.973	17033
903.091	16748
903.21	16672
903.328	16660
903.446	16641
903.565	16550
903.683	16649
903.801	16474
903.919	16531
904.038	16481
904.156	16310
904.274	16413
904.392	16280
904.51	16265
904.627	16333
904.745	16402
904.863	16455
904.981	16055
905.098	16074
905.216	16055
905.334	16090
905.451	16017
905.569	16074
905.686	16044
905.803	16071
905.921	15857
906.038	15941
906.155	15869
906.272	15717
906.389	15778
906.506	15599
906.623	15618
906.74	15667
906.857	15420
906.974	15526
907.091	15660
907.208	15675
907.324	15561
907.441	15424
907.557	15329
907.674	15207
907.79	15230
907.907	15233
908.023	15275
908.139	15291
908.256	15127
908.372	15066
908.488	15131
908.604	14998
908.72	14956
908.836	14925
908.952	14998
909.068	14933
909.184	15074
909.3	14944
909.415	14918
909.531	14887
909.647	14689
909.762	14632
909.878	14606
909.993	14686
910.108	14636
910.224	14625
910.339	14636
910.454	14602
910.57	14480
910.685	14332
910.8	14693
910.915	14594
911.03	14442
911.145	14370
911.259	14252
911.374	14351
911.489	14225
911.604	14172
911.718	14027
911.833	14046
911.947	13875
912.062	13837
912.176	13967
912.291	14027
912.405	14065
912.519	14195
912.633	14263
912.748	14123
912.862	14035
912.976	13841
913.09	13719
913.204	13818
913.318	13803
913.431	13875
913.545	13932
913.659	13936
913.772	13837
913.886	13784
914	13613
914.113	13780
914.226	13799
914.34	13852
914.453	13609
914.566	13742
914.68	13609
914.793	13533
914.906	13403
915.019	13362
915.132	13304
915.245	13384
915.358	13411
915.47	13400
915.583	13422
915.696	13384
915.809	13540
915.921	13552
916.034	13392
916.146	13324
916.259	13255
916.371	13217
916.483	13324
916.595	13183
916.708	13217
916.82	13198
916.932	13187
917.044	13187
917.156	13137
917.268	13122
917.38	13053
917.491	13027
917.603	13072
917.715	13076
917.826	13221
917.938	12981
918.049	12913
918.161	13069
918.272	13171
918.384	13152
918.495	12973
918.606	12920
918.717	12837
918.828	12840
918.939	12935
919.05	12795
919.161	12757
919.272	12700
919.383	12722
919.494	12829
919.604	13004
919.715	12852
919.826	12707
919.936	12776
920.047	12859
920.157	12825
920.267	12981
920.378	12924
920.488	12791
920.598	13023
920.708	13095
920.818	12939
920.928	13000
921.038	13076
921.148	13122
921.258	12719
921.368	12760
921.477	12684
921.587	12639
921.697	12365
921.806	12642
921.916	12525
922.025	12330
922.134	12235
922.244	12213
922.353	12205
922.462	12133
922.571	12152
922.68	11878
922.789	11866
922.898	11992
923.007	11760
923.116	11847
923.224	11935
923.333	11897
923.442	11805
923.55	11745
923.659	11726
923.767	11748
923.876	11646
923.984	11775
924.092	11691
924.201	11722
924.309	11653
924.417	11695
924.525	11573
924.633	11642
924.741	12547
924.849	11444
924.956	11547
925.064	11417
925.172	11330
925.279	11406
925.387	11509
925.494	11421
925.602	11551
925.709	11512
925.816	11322
925.924	11299
926.031	11509
926.138	11376
926.245	11490
926.352	11296
926.459	11455
926.566	11505
926.673	11322
926.779	11280
926.886	11128
926.993	11056
927.099	11140
927.206	11033
927.312	10923
927.419	11022
927.525	11067
927.631	11083
927.737	10957
927.843	10915
927.95	10774
928.056	10953
928.162	10854
928.267	10927
928.373	11539
928.479	10949
928.585	10687
928.69	10835
928.796	10862
928.901	10763
929.007	10603
929.112	10771
929.218	10748
929.323	10691
929.428	10519
929.533	10675
929.638	10622
929.743	10656
929.848	10622
929.953	10668
930.058	10542
930.163	10303
930.267	10379
930.372	10455
930.477	10314
930.581	10535
930.685	10337
930.79	10177
930.894	10303
930.998	10227
931.103	10356
931.207	9987
931.311	10006
931.415	9747
931.519	9641
931.623	9679
