Data from test_V78500241_1750.txt Node
Date: Fri Mar 25 15:22:02 CST 2022
User: usil
Spectrometer: V785-0024
Trigger mode: 0
Integration Time (sec): 4.000000E-1
Scans to average: 1
Nonlinearity correction enabled: false
Boxcar width: 0
Storing dark spectrum: false
XAxis mode: Wavelengths
Number of Pixels in Spectrum: 1024
>>>>>Begin Spectral Data<<<<<
801.071	27808
801.214	27911
801.356	27530
801.499	27530
801.641	27488
801.783	27397
801.926	27515
802.068	27329
802.211	27374
802.353	27351
802.496	27036
802.638	27070
802.78	27123
802.923	26940
803.065	26967
803.208	26998
803.35	26952
803.492	27184
803.635	27294
803.777	27230
803.919	27169
804.061	27545
804.204	27306
804.346	27351
804.488	27294
804.63	27294
804.773	27173
804.915	27340
805.057	27272
805.199	27207
805.341	27351
805.483	27504
805.626	27386
805.768	27359
805.91	27294
806.052	27507
806.194	27344
806.336	27705
806.478	27317
806.62	27378
806.762	27488
806.904	27709
807.046	27998
807.188	27876
807.33	27759
807.472	27739
807.614	27781
807.756	27667
807.898	27564
808.04	27682
808.182	27564
808.324	27622
808.465	27686
808.607	27827
808.749	28048
808.891	28143
809.033	28090
809.174	28120
809.316	27964
809.458	27930
809.6	27831
809.741	28017
809.883	28093
810.025	28314
810.166	28265
810.308	28261
810.45	28207
810.591	28078
810.733	28154
810.875	28070
811.016	27880
811.158	27911
811.299	28139
811.441	28109
811.582	28188
811.724	28002
811.865	28021
812.007	28017
812.148	28010
812.29	28036
812.431	28109
812.573	28386
812.714	28299
812.855	28451
812.997	28535
813.138	28687
813.279	28729
813.421	28424
813.562	28421
813.703	28219
813.845	28105
813.986	28044
814.127	27903
814.268	27751
814.41	27583
814.551	27728
814.692	27652
814.833	27701
814.974	27557
815.115	27759
815.256	27549
815.397	27599
815.539	27523
815.68	27542
815.821	27587
815.962	27622
816.103	27447
816.244	27332
816.385	27272
816.526	27116
816.666	27047
816.807	26948
816.948	26956
817.089	27081
817.23	27013
817.371	26944
817.512	26880
817.653	26887
817.793	26979
817.934	26982
818.075	26902
818.216	27085
818.356	26906
818.497	26830
818.638	26674
818.778	26640
818.919	26560
819.06	26754
819.2	26853
819.341	26979
819.481	26960
819.622	26971
819.762	27218
819.903	27298
820.043	27150
820.184	27077
820.324	27009
820.465	27142
820.605	26967
820.746	27131
820.886	27028
821.026	27039
821.167	27066
821.307	27089
821.447	26948
821.588	26960
821.728	26861
821.868	26537
822.008	26564
822.149	26336
822.289	26469
822.429	26305
822.569	26054
822.709	26134
822.849	25864
822.99	26016
823.13	25936
823.27	25986
823.41	25803
823.55	25590
823.69	25849
823.83	25997
823.97	25765
824.11	25639
824.25	25548
824.389	25525
824.529	25772
824.669	25597
824.809	25696
824.949	25814
825.089	25674
825.228	25658
825.368	25563
825.508	25369
825.648	25537
825.787	25464
825.927	25525
826.067	25491
826.206	25476
826.346	25586
826.485	25479
826.625	25468
826.765	25548
826.904	25506
827.044	25289
827.183	25346
827.323	25179
827.462	25274
827.601	25274
827.741	25244
827.88	25141
828.02	25107
828.159	25247
828.298	25266
828.437	25228
828.577	25023
828.716	25282
828.855	25141
828.994	24852
829.134	24996
829.273	24913
829.412	24757
829.551	24863
829.69	24760
829.829	24920
829.968	24833
830.107	24985
830.246	24840
830.385	24856
830.524	24722
830.663	24623
830.802	24707
830.941	24532
831.08	24547
831.219	24589
831.357	24521
831.496	24779
831.635	24407
831.774	24494
831.913	24399
832.051	24319
832.19	24262
832.329	24254
832.467	24292
832.606	24235
832.744	24129
832.883	24201
833.022	24194
833.16	24110
833.299	24144
833.437	24174
833.576	24159
833.714	24311
833.852	24300
833.991	24273
834.129	24365
834.267	24285
834.406	24289
834.544	24209
834.682	24186
834.821	24171
834.959	24391
835.097	24163
835.235	24140
835.373	24163
835.511	24315
835.65	24060
835.788	24110
835.926	24045
836.064	23889
836.202	23901
836.34	23992
836.478	24011
836.615	24060
836.753	24201
836.891	24125
837.029	24083
837.167	24053
837.305	23996
837.443	23923
837.58	23824
837.718	23965
837.856	23977
837.993	23916
838.131	23847
838.269	23832
838.406	23958
838.544	23771
838.681	23653
838.819	23589
838.956	23414
839.094	23379
839.231	23414
839.369	23642
839.506	23828
839.643	23767
839.781	23356
839.918	23368
840.055	23414
840.193	23421
840.33	23330
840.467	23326
840.604	23299
840.742	23581
840.879	23185
841.016	23143
841.153	23223
841.29	23467
841.427	23353
841.564	23296
841.701	23261
841.838	23246
841.975	23227
842.112	23178
842.249	23071
842.385	23022
842.522	23246
842.659	23044
842.796	23124
842.933	23124
843.069	23014
843.206	23010
843.343	23132
843.479	23121
843.616	23029
843.752	22900
843.889	22961
844.025	22968
844.162	22759
844.298	23071
844.435	22824
844.571	22858
844.708	22965
844.844	22984
844.98	22980
845.117	23083
845.253	22694
845.389	22717
845.525	22847
845.661	22702
845.798	22561
845.934	22710
846.07	22698
846.206	22580
846.342	22649
846.478	22485
846.614	22459
846.75	22268
846.886	22367
847.022	22474
847.158	22360
847.294	22341
847.429	22447
847.565	22207
847.701	22535
847.837	21949
847.972	22025
848.108	22242
848.244	22086
848.379	21949
848.515	22021
848.65	21979
848.786	21941
848.921	21899
849.057	22010
849.192	21979
849.328	22048
849.463	21861
849.598	21945
849.734	21759
849.869	21701
850.004	21614
850.14	21648
850.275	21679
850.41	21690
850.545	21644
850.68	21682
850.815	21682
850.95	21561
851.085	21793
851.22	21732
851.355	21656
851.49	21766
851.625	21485
851.76	21618
851.895	21576
852.03	21553
852.165	21705
852.299	21656
852.434	21736
852.569	21587
852.703	21751
852.838	21774
852.973	21766
853.107	21766
853.242	21663
853.376	21488
853.511	21370
853.645	21439
853.78	21549
853.914	21435
854.048	21496
854.183	21454
854.317	21583
854.451	21568
854.585	21530
854.72	21393
854.854	21557
854.988	21504
855.122	21496
855.256	21374
855.39	21667
855.524	21641
855.658	21504
855.792	21485
855.926	21477
856.06	21633
856.194	21595
856.327	21435
856.461	21416
856.595	21561
856.729	21424
856.862	21595
856.996	21507
857.13	21515
857.263	21526
857.397	21637
857.53	21523
857.664	21492
857.797	21477
857.931	21561
858.064	21507
858.197	21504
858.331	21443
858.464	21382
858.597	21374
858.731	21431
858.864	21473
858.997	21420
859.13	21530
859.263	21386
859.396	21553
859.529	21523
859.662	21515
859.795	21580
859.928	21454
860.061	21686
860.194	21667
860.327	21504
860.46	21488
860.592	21507
860.725	21595
860.858	21542
860.99	21454
861.123	21367
861.256	21389
861.388	21363
861.521	22265
861.653	21462
861.786	21275
861.918	21389
862.05	21359
862.183	21344
862.315	21450
862.447	21492
862.58	21382
862.712	21283
862.844	21211
862.976	21237
863.108	21325
863.24	21583
863.372	21123
863.504	21256
863.636	21287
863.768	21260
863.9	21256
864.032	21001
864.164	21256
864.296	21230
864.428	21237
864.559	21298
864.691	21214
864.823	21135
864.954	21184
865.086	21195
865.217	21058
865.349	21005
865.48	21043
865.612	21024
865.743	21268
865.875	21119
866.006	21028
866.137	21093
866.269	21104
866.4	21058
866.531	21032
866.662	20921
866.793	20986
866.924	21055
867.055	21161
867.186	21127
867.317	21074
867.448	20876
867.579	21062
867.71	21005
867.841	20967
867.972	21005
868.103	21062
868.233	21036
868.364	21070
868.495	21173
868.625	21173
868.756	21386
868.886	21260
869.017	21325
869.147	21325
869.278	21397
869.408	21313
869.539	21298
869.669	21321
869.799	21386
869.929	21378
870.06	21428
870.19	21583
870.32	21564
870.45	21663
870.58	21698
870.71	21709
870.84	21709
870.97	21561
871.1	21717
871.23	21789
871.36	21895
871.489	21831
871.619	21789
871.749	21762
871.879	21949
872.008	22036
872.138	21876
872.267	21762
872.397	21808
872.526	21675
872.656	21774
872.785	21751
872.915	21884
873.044	21968
873.173	21865
873.303	21964
873.432	21793
873.561	21865
873.69	21953
873.819	21865
873.948	21964
874.077	21918
874.206	21804
874.335	21892
874.464	22082
874.593	22051
874.722	22055
874.851	22192
874.979	22093
875.108	22268
875.237	22040
875.365	21953
875.494	21983
875.623	22116
875.751	22040
875.88	22124
876.008	22120
876.136	22265
876.265	22432
876.393	22679
876.521	22599
876.65	22557
876.778	22538
876.906	22367
877.034	22413
877.162	22523
877.29	22527
877.418	22413
877.546	22447
877.674	22535
877.802	22428
877.93	22428
878.058	22485
878.185	22295
878.313	22371
878.441	22424
878.568	22291
878.696	22333
878.824	22497
878.951	22565
879.079	22622
879.206	22774
879.333	22615
879.461	22478
879.588	22656
879.715	22725
879.842	22778
879.97	22462
880.097	22219
880.224	22242
880.351	22322
880.478	22306
880.605	22242
880.732	22310
880.859	22474
880.986	22306
881.112	22303
881.239	22192
881.366	22101
881.493	21873
881.619	21876
881.746	21937
881.872	21827
881.999	21793
882.125	21770
882.252	21876
882.378	21690
882.505	21876
882.631	21618
882.757	21576
882.883	21625
883.01	21610
883.136	21523
883.262	21329
883.388	21412
883.514	21568
883.64	21557
883.766	21477
883.892	21237
884.018	21321
884.143	21591
884.269	21477
884.395	21329
884.52	21249
884.646	21226
884.772	21161
884.897	21188
885.023	21291
885.148	21249
885.274	21355
885.399	21370
885.524	21340
885.65	21077
885.775	21199
885.9	21199
886.025	21252
886.15	21184
886.275	21161
886.4	21093
886.525	21119
886.65	21142
886.775	21222
886.9	21279
887.025	21386
887.149	21214
887.274	21047
887.399	21013
887.523	20906
887.648	20849
887.773	20914
887.897	21077
888.021	20952
888.146	20891
888.27	21100
888.395	21013
888.519	20921
888.643	20960
888.767	20963
888.891	20842
889.015	20804
889.139	20937
889.263	20727
889.387	20823
889.511	21081
889.635	20872
889.759	20826
889.883	20792
890.006	20697
890.13	20727
890.254	20693
890.377	20735
890.501	20632
890.624	20541
890.748	20571
890.871	20389
890.995	20256
891.118	20240
891.241	20301
891.364	20355
891.488	20469
891.611	20366
891.734	20320
891.857	20454
891.98	20336
892.103	20389
892.226	20290
892.349	20286
892.471	20161
892.594	20138
892.717	20256
892.839	20172
892.962	20328
893.085	20237
893.207	20221
893.33	20046
893.452	20259
893.575	20263
893.697	20259
893.819	20351
893.941	20370
894.064	20229
894.186	20206
894.308	20122
894.43	20298
894.552	20324
894.674	20324
894.796	20145
894.918	20221
895.04	20256
895.161	20256
895.283	20221
895.405	20206
895.526	20187
895.648	20233
895.769	20324
895.891	20305
896.012	20282
896.134	20164
896.255	20214
896.376	20202
896.498	20233
896.619	20168
896.74	20153
896.861	20244
896.982	20640
897.103	20609
897.224	20575
897.345	20419
897.466	20484
897.587	20396
897.708	20396
897.828	20461
897.949	20415
898.07	20271
898.19	20366
898.311	20507
898.431	20389
898.552	20381
898.672	20533
898.792	20438
898.913	20457
899.033	20320
899.153	20271
899.273	20157
899.393	20176
899.513	20168
899.633	20096
899.753	20218
899.873	20153
899.993	20202
900.113	20107
900.232	20149
900.352	20164
900.472	19955
900.591	19921
900.711	19936
900.83	19814
900.95	20065
901.069	20054
901.189	19803
901.308	19643
901.427	19605
901.546	19468
901.665	19586
901.784	19548
901.904	19438
902.023	19217
902.141	19099
902.26	19088
902.379	19160
902.498	18977
902.617	18947
902.735	19061
902.854	18947
902.973	18985
903.091	18745
903.21	18681
903.328	18730
903.446	18559
903.565	18593
903.683	18616
903.801	18452
903.919	18410
904.038	18452
904.156	18273
904.274	18437
904.392	18194
904.51	18209
904.627	18258
904.745	18304
904.863	18285
904.981	18114
905.098	17954
905.216	17863
905.334	18019
905.451	18049
905.569	17927
905.686	17965
905.803	17984
905.921	17771
906.038	17786
906.155	17813
906.272	17649
906.389	17695
906.506	17509
906.623	17554
906.74	17585
906.857	17429
906.974	17421
907.091	17558
907.208	17581
907.324	17440
907.441	17372
907.557	17235
907.674	17159
907.79	17140
907.907	17098
908.023	17166
908.139	17280
908.256	17246
908.372	17178
908.488	17109
908.604	16961
908.72	16942
908.836	16995
908.952	16923
909.068	16934
909.184	16900
909.3	16965
909.415	16949
909.531	16847
909.647	16653
909.762	16653
909.878	16675
909.993	16721
910.108	16554
910.224	16626
910.339	16653
910.454	16508
910.57	16508
910.685	16287
910.8	16683
910.915	16584
911.03	16394
911.145	16204
911.259	16261
911.374	16196
911.489	16173
911.604	16120
911.718	15987
911.833	15945
911.947	15850
912.062	15808
912.176	15880
912.291	15964
912.405	15903
912.519	16048
912.633	16063
912.748	15953
912.862	16013
912.976	15831
913.09	15679
913.204	15698
913.318	15785
913.431	15884
913.545	15842
913.659	15895
913.772	15591
913.886	15614
914	15519
914.113	15717
914.226	15629
914.34	15667
914.453	15485
914.566	15652
914.68	15492
914.793	15431
914.906	15256
915.019	15207
915.132	15051
915.245	15169
915.358	15184
915.47	15146
915.583	15176
915.696	15173
915.809	15294
915.921	15332
916.034	15184
916.146	15199
916.259	14925
916.371	15142
916.483	15024
916.595	14990
916.708	14910
916.82	14979
916.932	14956
917.044	15005
917.156	14982
917.268	14815
917.38	14937
917.491	14743
917.603	14807
917.715	14830
917.826	14880
917.938	14785
918.049	14640
918.161	14686
918.272	14929
918.384	14918
918.495	14781
918.606	14640
918.717	14549
918.828	14571
918.939	14602
919.05	14514
919.161	14503
919.272	14332
919.383	14393
919.494	14644
919.604	14788
919.715	14590
919.826	14450
919.936	14533
920.047	14598
920.157	14537
920.267	14693
920.378	14594
920.488	14434
920.598	14689
920.708	14864
920.818	14739
920.928	14659
921.038	14785
921.148	14834
921.258	14511
921.368	14480
921.477	14393
921.587	14244
921.697	14111
921.806	14385
921.916	14142
922.025	13982
922.134	13963
922.244	13868
922.353	14005
922.462	13776
922.571	13708
922.68	13529
922.789	13597
922.898	13529
923.007	13518
923.116	13590
923.224	13510
923.333	13487
923.442	13464
923.55	13358
923.659	13445
923.767	13445
923.876	13339
923.984	13483
924.092	13282
924.201	13358
924.309	13384
924.417	13266
924.525	13244
924.633	13320
924.741	14039
924.849	12970
924.956	13110
925.064	13069
925.172	12935
925.279	12920
925.387	13015
925.494	13012
925.602	13103
925.709	13023
925.816	12856
925.924	12966
926.031	12958
926.138	12966
926.245	13088
926.352	12852
926.459	13046
926.566	13057
926.673	12810
926.779	12715
926.886	12745
926.993	12582
927.099	12509
927.206	12486
927.312	12460
927.419	12608
927.525	12563
927.631	12578
927.737	12441
927.843	12414
927.95	12330
928.056	12395
928.162	12448
928.267	12410
928.373	12989
928.479	12490
928.585	12232
928.69	12300
928.796	12361
928.901	12209
929.007	12079
929.112	12235
929.218	12205
929.323	12171
929.428	12030
929.533	12213
929.638	11992
929.743	12095
929.848	12068
929.953	12019
930.058	11908
930.163	11722
930.267	11745
930.372	11958
930.477	11741
930.581	12007
930.685	11851
930.79	11703
930.894	11627
930.998	11642
931.103	11707
931.207	11417
931.311	11326
931.415	11239
931.519	11067
931.623	11064
