Data from test_V78500241_2225.txt Node
Date: Fri Mar 25 15:25:21 CST 2022
User: usil
Spectrometer: V785-0024
Trigger mode: 0
Integration Time (sec): 4.000000E-1
Scans to average: 1
Nonlinearity correction enabled: false
Boxcar width: 0
Storing dark spectrum: false
XAxis mode: Wavelengths
Number of Pixels in Spectrum: 1024
>>>>>Begin Spectral Data<<<<<
801.071	27477
801.214	27504
801.356	27355
801.499	27275
801.641	27062
801.783	27119
801.926	27051
802.068	27161
802.211	27131
802.353	26967
802.496	26838
802.638	26655
802.78	26864
802.923	26769
803.065	26613
803.208	26754
803.35	26864
803.492	26834
803.635	27047
803.777	26868
803.919	27074
804.061	27313
804.204	27024
804.346	26883
804.488	26887
804.63	26990
804.773	26811
804.915	27058
805.057	27020
805.199	26925
805.341	27077
805.483	27123
805.626	27150
805.768	27017
805.91	27093
806.052	27123
806.194	27100
806.336	27131
806.478	27173
806.62	26982
806.762	27138
806.904	27272
807.046	27576
807.188	27606
807.33	27393
807.472	27580
807.614	27389
807.756	27492
807.898	27370
808.04	27332
808.182	27329
808.324	27382
808.465	27348
808.607	27485
808.749	27838
808.891	27732
809.033	27934
809.174	27743
809.316	27663
809.458	27656
809.6	27637
809.741	27739
809.883	27842
810.025	27937
810.166	27991
810.308	28017
810.45	27892
810.591	27903
810.733	27671
810.875	27603
811.016	27397
811.158	27496
811.299	27789
811.441	27720
811.582	27736
811.724	27705
811.865	27656
812.007	27808
812.148	27542
812.29	27679
812.431	27789
812.573	28029
812.714	28249
812.855	28181
812.997	28329
813.138	28436
813.279	28196
813.421	28185
813.562	28169
813.703	27979
813.845	27785
813.986	27679
814.127	27595
814.268	27336
814.41	27492
814.551	27325
814.692	27530
814.833	27241
814.974	27275
815.115	27298
815.256	27214
815.397	27389
815.539	27264
815.68	27123
815.821	27096
815.962	27195
816.103	27173
816.244	27047
816.385	26990
816.526	26861
816.666	26686
816.807	26537
816.948	26701
817.089	26724
817.23	26667
817.371	26568
817.512	26724
817.653	26655
817.793	26545
817.934	26629
818.075	26644
818.216	26590
818.356	26450
818.497	26556
818.638	26431
818.778	26469
818.919	26492
819.06	26434
819.2	26495
819.341	26549
819.481	26625
819.622	26712
819.762	26918
819.903	26807
820.043	26838
820.184	26644
820.324	26670
820.465	26979
820.605	26716
820.746	26625
820.886	26644
821.026	26777
821.167	26697
821.307	26758
821.447	26533
821.588	26503
821.728	26393
821.868	26313
822.008	26237
822.149	26012
822.289	26195
822.429	25803
822.569	25814
822.709	25712
822.849	25609
822.99	25662
823.13	25578
823.27	25643
823.41	25339
823.55	25209
823.69	25384
823.83	25403
823.97	25324
824.11	25259
824.25	25301
824.389	25069
824.529	25304
824.669	25209
824.809	25320
824.949	25445
825.089	25339
825.228	25217
825.368	25065
825.508	25012
825.648	25137
825.787	25148
825.927	25190
826.067	25095
826.206	25012
826.346	25168
826.485	25012
826.625	25175
826.765	25107
826.904	25076
827.044	24852
827.183	24848
827.323	24722
827.462	24806
827.601	24760
827.741	24745
827.88	24867
828.02	24745
828.159	24692
828.298	24768
828.437	24951
828.577	24620
828.716	24989
828.855	24642
828.994	24563
829.134	24475
829.273	24490
829.412	24544
829.551	24369
829.69	24471
829.829	24525
829.968	24635
830.107	24665
830.246	24608
830.385	24414
830.524	24467
830.663	24384
830.802	24174
830.941	24076
831.08	24110
831.219	24289
831.357	24129
831.496	24410
831.635	24155
831.774	24045
831.913	24114
832.051	23817
832.19	23843
832.329	23958
832.467	23794
832.606	23775
832.744	23748
832.883	23813
833.022	23638
833.16	23786
833.299	23824
833.437	23916
833.576	23802
833.714	23923
833.852	23809
833.991	23878
834.129	23817
834.267	23897
834.406	23847
834.544	23855
834.682	23859
834.821	23790
834.959	24018
835.097	23866
835.235	23764
835.373	23923
835.511	23764
835.65	23714
835.788	23771
835.926	23649
836.064	23509
836.202	23581
836.34	23703
836.478	23771
836.615	23707
836.753	23703
836.891	23718
837.029	23649
837.167	23630
837.305	23573
837.443	23543
837.58	23486
837.718	23703
837.856	23577
837.993	23425
838.131	23467
838.269	23250
838.406	23383
838.544	23258
838.681	23242
838.819	23155
838.956	22976
839.094	23018
839.231	23086
839.369	23124
839.506	23318
839.643	23189
839.781	22976
839.918	22824
840.055	22919
840.193	22900
840.33	22881
840.467	22957
840.604	22885
840.742	23197
840.879	22816
841.016	22812
841.153	22767
841.29	23075
841.427	22991
841.564	22953
841.701	22809
841.838	22729
841.975	22797
842.112	22839
842.249	22668
842.385	22546
842.522	22873
842.659	22733
842.796	22508
842.933	22672
843.069	22592
843.206	22542
843.343	22771
843.479	22622
843.616	22668
843.752	22455
843.889	22432
844.025	22630
844.162	22398
844.298	22413
844.435	22428
844.571	22409
844.708	22538
844.844	22550
844.98	22584
845.117	22459
845.253	22363
845.389	22215
845.525	22360
845.661	22272
845.798	22169
845.934	22166
846.07	22029
846.206	22268
846.342	22303
846.478	22128
846.614	21972
846.75	21937
846.886	22036
847.022	22059
847.158	21964
847.294	22013
847.429	21884
847.565	21827
847.701	22002
847.837	21656
847.972	21637
848.108	21736
848.244	21614
848.379	21561
848.515	21439
848.65	21435
848.786	21473
848.921	21545
849.057	21542
849.192	21553
849.328	21507
849.463	21500
849.598	21458
849.734	21424
849.869	21370
850.004	21249
850.14	21313
850.275	21226
850.41	21119
850.545	21203
850.68	21226
850.815	21412
850.95	21199
851.085	21370
851.22	21378
851.355	21272
851.49	21165
851.625	21230
851.76	21192
851.895	21157
852.03	21245
852.165	21207
852.299	21260
852.434	21386
852.569	21294
852.703	21291
852.838	21264
852.973	21367
853.107	21313
853.242	21214
853.376	21028
853.511	20941
853.645	20975
853.78	21089
853.914	21089
854.048	21055
854.183	21028
854.317	21055
854.451	21302
854.585	21055
854.72	21036
854.854	21146
854.988	21032
855.122	21074
855.256	20921
855.39	20929
855.524	21112
855.658	21096
855.792	21077
855.926	21150
856.06	21294
856.194	21275
856.327	21062
856.461	21043
856.595	20963
856.729	21100
856.862	21211
856.996	21039
857.13	21199
857.263	21154
857.397	21218
857.53	21100
857.664	21180
857.797	21146
857.931	21249
858.064	21066
858.197	21260
858.331	21157
858.464	20960
858.597	20956
858.731	20994
858.864	21047
858.997	20998
859.13	20994
859.263	21017
859.396	21150
859.529	21085
859.662	20948
859.795	20956
859.928	20990
860.061	21203
860.194	21161
860.327	21188
860.46	21093
860.592	21222
860.725	21283
860.858	21154
860.99	21017
861.123	20899
861.256	21005
861.388	21100
861.521	21816
861.653	20880
861.786	20910
861.918	20960
862.05	20918
862.183	20960
862.315	20982
862.447	20990
862.58	20910
862.712	20880
862.844	20724
862.976	20952
863.108	20864
863.24	21047
863.372	20762
863.504	20754
863.636	20587
863.768	20735
863.9	20838
864.032	20667
864.164	20743
864.296	20731
864.428	20921
864.559	20815
864.691	20838
864.823	20731
864.954	20838
865.086	20720
865.217	20788
865.349	20587
865.48	20655
865.612	20609
865.743	20788
865.875	20674
866.006	20564
866.137	20716
866.269	20617
866.4	20583
866.531	20651
866.662	20579
866.793	20697
866.924	20560
867.055	20609
867.186	20621
867.317	20568
867.448	20499
867.579	20511
867.71	20503
867.841	20511
867.972	20670
868.103	20727
868.233	20651
868.364	20522
868.495	20716
868.625	20811
868.756	20933
868.886	20861
869.017	20933
869.147	20967
869.278	21070
869.408	20868
869.539	20933
869.669	20975
869.799	20872
869.929	21051
870.06	20944
870.19	21161
870.32	21100
870.45	21108
870.58	21245
870.71	21298
870.84	21359
870.97	21249
871.1	21260
871.23	21408
871.36	21485
871.489	21310
871.619	21344
871.749	21386
871.879	21549
872.008	21641
872.138	21568
872.267	21492
872.397	21184
872.526	21283
872.656	21332
872.785	21378
872.915	21485
873.044	21549
873.173	21477
873.303	21473
873.432	21511
873.561	21614
873.69	21629
873.819	21477
873.948	21477
874.077	21568
874.206	21420
874.335	21481
874.464	21534
874.593	21717
874.722	21641
874.851	21694
874.979	21739
875.108	21641
875.237	21625
875.365	21701
875.494	21641
875.623	21660
875.751	21648
875.88	21728
876.008	21747
876.136	21785
876.265	22181
876.393	22207
876.521	22116
876.65	22169
876.778	22101
876.906	22006
877.034	22059
877.162	22082
877.29	21975
877.418	22017
877.546	22044
877.674	22074
877.802	22070
877.93	22078
878.058	22036
878.185	21793
878.313	22124
878.441	22036
878.568	21850
878.696	22040
878.824	22086
878.951	22124
879.079	22166
879.206	22333
879.333	22200
879.461	22169
879.588	22078
879.715	22173
879.842	22348
879.97	22112
880.097	21861
880.224	21937
880.351	21922
880.478	21922
880.605	21903
880.732	21865
880.859	22051
880.986	21949
881.112	21835
881.239	21690
881.366	21625
881.493	21481
881.619	21374
881.746	21492
881.872	21485
881.999	21306
882.125	21332
882.252	21572
882.378	21420
882.505	21572
882.631	21325
882.757	21028
882.883	21161
883.01	21138
883.136	21001
883.262	21096
883.388	20864
883.514	21165
883.64	21165
883.766	21108
883.892	20963
884.018	20963
884.143	21135
884.269	21131
884.395	20849
884.52	20773
884.646	20781
884.772	20670
884.897	20693
885.023	20712
885.148	20830
885.274	20887
885.399	20944
885.524	20724
885.65	20807
885.775	20807
885.9	20746
886.025	20811
886.15	20838
886.275	20686
886.4	20693
886.525	20648
886.65	20716
886.775	20716
886.9	20830
887.025	21001
887.149	20697
887.274	20617
887.399	20457
887.523	20511
887.648	20537
887.773	20545
887.897	20511
888.021	20461
888.146	20518
888.27	20682
888.395	20735
888.519	20625
888.643	20564
888.767	20560
888.891	20476
889.015	20282
889.139	20480
889.263	20484
889.387	20465
889.511	20469
889.635	20457
889.759	20343
889.883	20225
890.006	20389
890.13	20518
890.254	20282
890.377	20385
890.501	20073
890.624	20107
890.748	20168
890.871	20081
890.995	19902
891.118	20039
891.241	19898
891.364	19951
891.488	19963
891.611	20039
891.734	19944
891.857	20058
891.98	19986
892.103	19997
892.226	19849
892.349	19898
892.471	19776
892.594	19868
892.717	19890
892.839	19849
892.962	19906
893.085	19803
893.207	19795
893.33	19681
893.452	19791
893.575	19890
893.697	19784
893.819	20001
893.941	20065
894.064	19894
894.186	19791
894.308	19814
894.43	19928
894.552	19963
894.674	19963
894.796	19788
894.918	19879
895.04	19845
895.161	19883
895.283	19986
895.405	19826
895.526	19902
895.648	19826
895.769	19795
895.891	19974
896.012	19982
896.134	19917
896.255	19902
896.376	19704
896.498	19849
896.619	19982
896.74	19890
896.861	19917
896.982	20225
897.103	20282
897.224	20153
897.345	20081
897.466	20092
897.587	20088
897.708	20149
897.828	20088
897.949	20069
898.07	19921
898.19	20054
898.311	20161
898.431	19940
898.552	20035
898.672	20240
898.792	20164
898.913	20054
899.033	20035
899.153	19902
899.273	19814
899.393	19875
899.513	19890
899.633	19936
899.753	19860
899.873	19776
899.993	19826
900.113	19780
900.232	19860
900.352	19715
900.472	19685
900.591	19643
900.711	19795
900.83	19529
900.95	19632
901.069	19704
901.189	19552
901.308	19232
901.427	19129
901.546	19183
901.665	19232
901.784	19179
901.904	19099
902.023	19091
902.141	18726
902.26	18776
902.379	18745
902.498	18738
902.617	18650
902.735	18677
902.854	18639
902.973	18620
903.091	18384
903.21	18437
903.328	18445
903.446	18289
903.565	18194
903.683	18213
903.801	18007
903.919	18117
904.038	18129
904.156	17973
904.274	17946
904.392	18049
904.51	17931
904.627	17904
904.745	18011
904.863	18026
904.981	17710
905.098	17634
905.216	17634
905.334	17642
905.451	17756
905.569	17615
905.686	17699
905.803	17592
905.921	17406
906.038	17429
906.155	17467
906.272	17288
906.389	17311
906.506	17124
906.623	17189
906.74	17189
906.857	17041
906.974	17048
907.091	17368
907.208	17208
907.324	17170
907.441	17071
907.557	16885
907.674	16831
907.79	16858
907.907	16778
908.023	16889
908.139	16831
908.256	16793
908.372	16774
908.488	16839
908.604	16653
908.72	16478
908.836	16561
908.952	16470
909.068	16691
909.184	16664
909.3	16504
909.415	16649
909.531	16493
909.647	16341
909.762	16325
909.878	16424
909.993	16223
910.108	16322
910.224	16310
910.339	16310
910.454	16192
910.57	16017
910.685	16029
910.8	16223
910.915	16238
911.03	16162
911.145	16013
911.259	15964
911.374	15778
911.489	15816
911.604	15789
911.718	15686
911.833	15595
911.947	15447
912.062	15416
912.176	15675
912.291	15618
912.405	15591
912.519	15911
912.633	15835
912.748	15599
912.862	15629
912.976	15447
913.09	15481
913.204	15466
913.318	15492
913.431	15557
913.545	15564
913.659	15553
913.772	15496
913.886	15310
914	15275
914.113	15416
914.226	15412
914.34	15348
914.453	15085
914.566	15214
914.68	15085
914.793	15127
914.906	15013
915.019	14842
915.132	14826
915.245	14868
915.358	14956
915.47	14963
915.583	14895
915.696	14899
915.809	14975
915.921	14960
916.034	14918
916.146	14727
916.259	14697
916.371	14883
916.483	14910
916.595	14731
916.708	14834
916.82	14716
916.932	14640
917.044	14743
917.156	14621
917.268	14606
917.38	14610
917.491	14514
917.603	14564
917.715	14705
917.826	14571
917.938	14514
918.049	14393
918.161	14514
918.272	14693
918.384	14640
918.495	14606
918.606	14415
918.717	14385
918.828	14339
918.939	14305
919.05	14256
919.161	14343
919.272	14149
919.383	14225
919.494	14370
919.604	14495
919.715	14240
919.826	14195
919.936	14161
920.047	14412
920.157	14218
920.267	14389
920.378	14358
920.488	14244
920.598	14492
920.708	14518
920.818	14446
920.928	14442
921.038	14590
921.148	14560
921.258	14244
921.368	14130
921.477	14065
921.587	14024
921.697	13826
921.806	14027
921.916	13974
922.025	13761
922.134	13681
922.244	13586
922.353	13700
922.462	13636
922.571	13411
922.68	13388
922.789	13362
922.898	13339
923.007	13244
923.116	13304
923.224	13274
923.333	13312
923.442	13217
923.55	13122
923.659	13240
923.767	13255
923.876	13145
923.984	13141
924.092	13076
924.201	13141
924.309	13118
924.417	13088
924.525	13008
924.633	12981
924.741	13723
924.849	12814
924.956	12916
925.064	12757
925.172	12738
925.279	12722
925.387	12825
925.494	12753
925.602	12875
925.709	12738
925.816	12642
925.924	12711
926.031	12772
926.138	12715
926.245	12722
926.352	12608
926.459	12715
926.566	12730
926.673	12635
926.779	12540
926.886	12544
926.993	12357
927.099	12319
927.206	12319
927.312	12281
927.419	12395
927.525	12239
927.631	12323
927.737	12239
927.843	12148
927.95	12121
928.056	12175
928.162	12144
928.267	12186
928.373	12863
928.479	12163
928.585	11931
928.69	12114
928.796	12209
928.901	12022
929.007	11878
929.112	11954
929.218	11942
929.323	12003
929.428	11954
929.533	12049
929.638	11843
929.743	11836
929.848	11771
929.953	11874
930.058	11745
930.163	11627
930.267	11596
930.372	11710
930.477	11524
930.581	11798
930.685	11680
930.79	11490
930.894	11497
930.998	11467
931.103	11615
931.207	11250
931.311	11178
931.415	11064
931.519	10889
931.623	10869
