Data from test_V78500241_57.txt Node
Date: Fri Mar 25 15:10:15 CST 2022
User: usil
Spectrometer: V785-0024
Trigger mode: 0
Integration Time (sec): 4.000000E-1
Scans to average: 1
Nonlinearity correction enabled: false
Boxcar width: 0
Storing dark spectrum: false
XAxis mode: Wavelengths
Number of Pixels in Spectrum: 1024
>>>>>Begin Spectral Data<<<<<
801.071	28687
801.214	28478
801.356	28428
801.499	28242
801.641	28291
801.783	28295
801.926	28356
802.068	28211
802.211	28006
802.353	28013
802.496	27831
802.638	27903
802.78	27671
802.923	27755
803.065	27762
803.208	27717
803.35	27785
803.492	27964
803.635	27937
803.777	27937
803.919	28029
804.061	28219
804.204	27972
804.346	27873
804.488	27774
804.63	27850
804.773	27675
804.915	27838
805.057	27998
805.199	27759
805.341	27873
805.483	28055
805.626	27941
805.768	27956
805.91	27987
806.052	27880
806.194	27781
806.336	28082
806.478	27956
806.62	27914
806.762	27968
806.904	28257
807.046	28344
807.188	28382
807.33	28158
807.472	28470
807.614	28143
807.756	28223
807.898	28204
808.04	28120
808.182	28010
808.324	28154
808.465	27964
808.607	28287
808.749	28424
808.891	28398
809.033	28577
809.174	28455
809.316	28306
809.458	28413
809.6	28516
809.741	28508
809.883	28630
810.025	28713
810.166	28687
810.308	28733
810.45	28675
810.591	28504
810.733	28375
810.875	28329
811.016	28238
811.158	28306
811.299	28409
811.441	28527
811.582	28462
811.724	28234
811.865	28318
812.007	28371
812.148	28299
812.29	28295
812.431	28504
812.573	28698
812.714	28736
812.855	28793
812.997	28881
813.138	29143
813.279	29029
813.421	28733
813.562	28702
813.703	28573
813.845	28554
813.986	28131
814.127	27903
814.268	27968
814.41	27991
814.551	27972
814.692	28101
814.833	27964
814.974	27778
815.115	27918
815.256	27747
815.397	27755
815.539	27808
815.68	27717
815.821	27583
815.962	27816
816.103	27538
816.244	27481
816.385	27439
816.526	27507
816.666	27116
816.807	27192
816.948	27127
817.089	27180
817.23	27131
817.371	27074
817.512	27100
817.653	27085
817.793	26956
817.934	26986
818.075	27131
818.216	26952
818.356	27028
818.497	26864
818.638	26765
818.778	26781
818.919	26758
819.06	26906
819.2	26792
819.341	26902
819.481	26979
819.622	27077
819.762	27336
819.903	27195
820.043	26979
820.184	27039
820.324	27058
820.465	27173
820.605	27074
820.746	27096
820.886	26902
821.026	27142
821.167	26925
821.307	27119
821.447	27005
821.588	26895
821.728	26823
821.868	26590
822.008	26446
822.149	26313
822.289	26412
822.429	26244
822.569	26122
822.709	25955
822.849	25947
822.99	25921
823.13	25830
823.27	25791
823.41	25552
823.55	25525
823.69	25727
823.83	25734
823.97	25559
824.11	25381
824.25	25430
824.389	25358
824.529	25571
824.669	25365
824.809	25441
824.949	25499
825.089	25647
825.228	25460
825.368	25236
825.508	25221
825.648	25301
825.787	25263
825.927	25263
826.067	25202
826.206	25247
826.346	25266
826.485	25179
826.625	25194
826.765	25457
826.904	25122
827.044	25034
827.183	24871
827.323	24886
827.462	25023
827.601	24875
827.741	24924
827.88	24958
828.02	24688
828.159	24768
828.298	24905
828.437	25019
828.577	24791
828.716	24905
828.855	24973
828.994	24582
829.134	24517
829.273	24540
829.412	24684
829.551	24456
829.69	24555
829.829	24532
829.968	24601
830.107	24490
830.246	24544
830.385	24521
830.524	24388
830.663	24433
830.802	24254
830.941	24129
831.08	24049
831.219	24277
831.357	24110
831.496	24403
831.635	24045
831.774	23946
831.913	23920
832.051	23950
832.19	23790
832.329	23889
832.467	23821
832.606	23604
832.744	23783
832.883	23710
833.022	23649
833.16	23836
833.299	23646
833.437	23687
833.576	23771
833.714	23786
833.852	23920
833.991	23859
834.129	23828
834.267	23824
834.406	23771
834.544	23786
834.682	23805
834.821	23779
834.959	23870
835.097	23779
835.235	23745
835.373	23722
835.511	23745
835.65	23691
835.788	23474
835.926	23429
836.064	23235
836.202	23395
836.34	23573
836.478	23589
836.615	23482
836.753	23570
836.891	23497
837.029	23539
837.167	23535
837.305	23566
837.443	23356
837.58	23558
837.718	23573
837.856	23421
837.993	23383
838.131	23334
838.269	23258
838.406	23349
838.544	23174
838.681	23121
838.819	22938
838.956	22900
839.094	22816
839.231	22835
839.369	23041
839.506	23193
839.643	23136
839.781	22755
839.918	22778
840.055	22835
840.193	22767
840.33	22691
840.467	22691
840.604	22611
840.742	22854
840.879	22683
841.016	22664
841.153	22577
841.29	22824
841.427	22767
841.564	22649
841.701	22679
841.838	22672
841.975	22561
842.112	22531
842.249	22512
842.385	22390
842.522	22535
842.659	22459
842.796	22348
842.933	22421
843.069	22367
843.206	22299
843.343	22428
843.479	22295
843.616	22348
843.752	22109
843.889	22204
844.025	22303
844.162	22101
844.298	22185
844.435	22169
844.571	21972
844.708	22082
844.844	22226
844.98	22226
845.117	22135
845.253	22048
845.389	22002
845.525	21934
845.661	21918
845.798	21850
845.934	21926
846.07	21827
846.206	21937
846.342	21968
846.478	21816
846.614	21591
846.75	21603
846.886	21675
847.022	21549
847.158	21511
847.294	21561
847.429	21679
847.565	21553
847.701	21816
847.837	21332
847.972	21321
848.108	21264
848.244	21389
848.379	21192
848.515	21108
848.65	20998
848.786	21112
848.921	21192
849.057	21214
849.192	21138
849.328	21138
849.463	20948
849.598	21039
849.734	21123
849.869	20967
850.004	20826
850.14	20845
850.275	20906
850.41	20716
850.545	20743
850.68	20880
850.815	20800
850.95	20788
851.085	21036
851.22	20948
851.355	20902
851.49	20838
851.625	20765
851.76	20845
851.895	20648
852.03	20697
852.165	20678
852.299	20746
852.434	20910
852.569	20864
852.703	20880
852.838	20849
852.973	21028
853.107	20986
853.242	20826
853.376	20651
853.511	20461
853.645	20541
853.78	20705
853.914	20636
854.048	20644
854.183	20735
854.317	20720
854.451	20720
854.585	20575
854.72	20667
854.854	20545
854.988	20469
855.122	20674
855.256	20526
855.39	20556
855.524	20727
855.658	20697
855.792	20648
855.926	20701
856.06	20682
856.194	20727
856.327	20674
856.461	20514
856.595	20609
856.729	20609
856.862	20686
856.996	20716
857.13	20625
857.263	20621
857.397	20640
857.53	20571
857.664	20659
857.797	20686
857.931	20682
858.064	20530
858.197	20659
858.331	20686
858.464	20549
858.597	20499
858.731	20560
858.864	20473
858.997	20602
859.13	20556
859.263	20564
859.396	20450
859.529	20545
859.662	20552
859.795	20480
859.928	20629
860.061	20667
860.194	20739
860.327	20545
860.46	20579
860.592	20621
860.725	20636
860.858	20659
860.99	20568
861.123	20499
861.256	20385
861.388	20541
861.521	21108
861.653	20355
861.786	20301
861.918	20400
862.05	20484
862.183	20625
862.315	20511
862.447	20648
862.58	20590
862.712	20267
862.844	20206
862.976	20503
863.108	20313
863.24	20697
863.372	20290
863.504	20374
863.636	20225
863.768	20408
863.9	20271
864.032	20142
864.164	20054
864.296	20164
864.428	20351
864.559	20275
864.691	20244
864.823	20191
864.954	20195
865.086	20256
865.217	20050
865.349	20077
865.48	20039
865.612	20153
865.743	20324
865.875	20180
866.006	20122
866.137	20145
866.269	20218
866.4	20111
866.531	20054
866.662	20103
866.793	20065
866.924	20046
867.055	19989
867.186	20138
867.317	19989
867.448	20008
867.579	20020
867.71	19932
867.841	19967
867.972	20050
868.103	20081
868.233	20073
868.364	20054
868.495	20134
868.625	20218
868.756	20381
868.886	20096
869.017	20351
869.147	20362
869.278	20362
869.408	20263
869.539	20328
869.669	20393
869.799	20328
869.929	20404
870.06	20374
870.19	20613
870.32	20579
870.45	20651
870.58	20731
870.71	20815
870.84	20857
870.97	20648
871.1	20609
871.23	20899
871.36	20952
871.489	20632
871.619	20921
871.749	20773
871.879	20864
872.008	21032
872.138	20910
872.267	20792
872.397	20823
872.526	20765
872.656	20735
872.785	20716
872.915	20925
873.044	20979
873.173	20944
873.303	20944
873.432	21055
873.561	21024
873.69	20902
873.819	20842
873.948	21123
874.077	20876
874.206	20861
874.335	20823
874.464	21020
874.593	21249
874.722	21100
874.851	21203
874.979	21077
875.108	21272
875.237	21093
875.365	21081
875.494	21070
875.623	21233
875.751	21157
875.88	21131
876.008	21382
876.136	21279
876.265	21564
876.393	21778
876.521	21690
876.65	21686
876.778	21530
876.906	21473
877.034	21408
877.162	21477
877.29	21382
877.418	21564
877.546	21648
877.674	21538
877.802	21428
877.93	21507
878.058	21477
878.185	21355
878.313	21439
878.441	21454
878.568	21340
878.696	21466
878.824	21534
878.951	21625
879.079	21671
879.206	21732
879.333	21709
879.461	21504
879.588	21648
879.715	21686
879.842	21755
879.97	21641
880.097	21332
880.224	21374
880.351	21340
880.478	21397
880.605	21313
880.732	21386
880.859	21439
880.986	21386
881.112	21420
881.239	21260
881.366	21096
881.493	21051
881.619	20891
881.746	20990
881.872	20925
881.999	20990
882.125	21020
882.252	20937
882.378	20834
882.505	20963
882.631	20826
882.757	20731
882.883	20811
883.01	20739
883.136	20644
883.262	20526
883.388	20571
883.514	20678
883.64	20632
883.766	20594
883.892	20575
884.018	20556
884.143	20594
884.269	20746
884.395	20419
884.52	20305
884.646	20271
884.772	20206
884.897	20252
885.023	20358
885.148	20404
885.274	20446
885.399	20492
885.524	20282
885.65	20286
885.775	20248
885.9	20309
886.025	20450
886.15	20374
886.275	20271
886.4	20142
886.525	20275
886.65	20195
886.775	20237
886.9	20469
887.025	20431
887.149	20252
887.274	20142
887.399	20027
887.523	20100
887.648	19940
887.773	19967
887.897	20084
888.021	20008
888.146	20115
888.27	20237
888.395	20084
888.519	20077
888.643	20172
888.767	20122
888.891	19917
889.015	19712
889.139	19909
889.263	19887
889.387	19982
889.511	20016
889.635	20008
889.759	19818
889.883	19772
890.006	19799
890.13	19830
890.254	19681
890.377	19776
890.501	19582
890.624	19495
890.748	19632
890.871	19628
890.995	19400
891.118	19365
891.241	19468
891.364	19438
891.488	19605
891.611	19556
891.734	19407
891.857	19430
891.98	19381
892.103	19578
892.226	19449
892.349	19434
892.471	19236
892.594	19419
892.717	19331
892.839	19407
892.962	19369
893.085	19419
893.207	19422
893.33	19232
893.452	19350
893.575	19422
893.697	19278
893.819	19502
893.941	19578
894.064	19453
894.186	19221
894.308	19179
894.43	19426
894.552	19582
894.674	19430
894.796	19316
894.918	19301
895.04	19244
895.161	19464
895.283	19320
895.405	19308
895.526	19327
895.648	19316
895.769	19388
895.891	19400
896.012	19502
896.134	19506
896.255	19400
896.376	19301
896.498	19438
896.619	19533
896.74	19381
896.861	19575
896.982	19635
897.103	20039
897.224	19742
897.345	19658
897.466	19552
897.587	19666
897.708	19761
897.828	19525
897.949	19499
898.07	19422
898.19	19499
898.311	19628
898.431	19483
898.552	19552
898.672	19742
898.792	19662
898.913	19548
899.033	19430
899.153	19289
899.273	19141
899.393	19365
899.513	19369
899.633	19270
899.753	19327
899.873	19202
899.993	19320
900.113	19297
900.232	19316
900.352	19285
900.472	19168
900.591	19038
900.711	19057
900.83	19107
900.95	19251
901.069	19266
901.189	18970
901.308	18768
901.427	18734
901.546	18791
901.665	18772
901.784	18681
901.904	18525
902.023	18509
902.141	18292
902.26	18243
902.379	18262
902.498	18190
902.617	18117
902.735	18178
902.854	18258
902.973	18015
903.091	17904
903.21	17843
903.328	17923
903.446	17828
903.565	17745
903.683	17691
903.801	17577
903.919	17676
904.038	17687
904.156	17474
904.274	17512
904.392	17391
904.51	17497
904.627	17455
904.745	17402
904.863	17509
904.981	17299
905.098	17128
905.216	17128
905.334	17174
905.451	17094
905.569	17166
905.686	17155
905.803	17052
905.921	16976
906.038	17029
906.155	16908
906.272	16847
906.389	16877
906.506	16740
906.623	16786
906.74	16569
906.857	16527
906.974	16584
907.091	16668
907.208	16729
907.324	16664
907.441	16588
907.557	16390
907.674	16402
907.79	16318
907.907	16394
908.023	16405
908.139	16344
908.256	16215
908.372	16215
908.488	16226
908.604	16109
908.72	15987
908.836	16067
908.952	15941
909.068	16006
909.184	16158
909.3	16071
909.415	16021
909.531	15926
909.647	15755
909.762	15778
909.878	15606
909.993	15755
910.108	15751
910.224	15675
910.339	15705
910.454	15564
910.57	15553
910.685	15515
910.8	15793
910.915	15580
911.03	15656
911.145	15393
911.259	15386
911.374	15332
911.489	15188
911.604	15157
911.718	15070
911.833	15104
911.947	14975
912.062	15020
912.176	15058
912.291	15051
912.405	15074
912.519	15195
912.633	15252
912.748	15108
912.862	15039
912.976	14891
913.09	14804
913.204	14834
913.318	14872
913.431	14925
913.545	15013
913.659	14887
913.772	14746
913.886	14769
914	14754
914.113	14792
914.226	14788
914.34	14769
914.453	14689
914.566	14701
914.68	14678
914.793	14545
914.906	14492
915.019	14385
915.132	14278
915.245	14374
915.358	14396
915.47	14347
915.583	14355
915.696	14465
915.809	14438
915.921	14518
916.034	14385
916.146	14317
916.259	14199
916.371	14252
916.483	14317
916.595	14237
916.708	14111
916.82	14172
916.932	14168
917.044	14111
917.156	14134
917.268	14016
917.38	14039
917.491	13967
917.603	13982
917.715	14005
917.826	14180
917.938	13906
918.049	13784
918.161	14103
918.272	14073
918.384	14130
918.495	13982
918.606	13902
918.717	13769
918.828	13780
918.939	13765
919.05	13643
919.161	13757
919.272	13472
919.383	13518
919.494	13788
919.604	13986
919.715	13833
919.826	13563
919.936	13734
920.047	13742
920.157	13681
920.267	13997
920.378	13693
920.488	13666
920.598	13913
920.708	14050
920.818	13902
920.928	13833
921.038	14130
921.148	14005
921.258	13677
921.368	13548
921.477	13552
921.587	13426
921.697	13285
921.806	13495
921.916	13365
922.025	13129
922.134	13122
922.244	13038
922.353	13183
922.462	13004
922.571	12844
922.68	12806
922.789	12692
922.898	12802
923.007	12719
923.116	12848
923.224	12719
923.333	12669
923.442	12540
923.55	12578
923.659	12574
923.767	12589
923.876	12551
923.984	12688
924.092	12517
924.201	12528
924.309	12494
924.417	12513
924.525	12376
924.633	12441
924.741	13251
924.849	12304
924.956	12445
925.064	12186
925.172	12235
925.279	12197
925.387	12254
925.494	12228
925.602	12369
925.709	12342
925.816	12167
925.924	12186
926.031	12281
926.138	12159
926.245	12175
926.352	12049
926.459	12209
926.566	12197
926.673	12003
926.779	12060
926.886	12015
926.993	11904
927.099	11741
927.206	11836
927.312	11726
927.419	11798
927.525	11718
927.631	11813
927.737	11691
927.843	11752
927.95	11562
928.056	11608
928.162	11642
928.267	11665
928.373	12384
928.479	11809
928.585	11535
928.69	11558
928.796	11642
928.901	11493
929.007	11246
929.112	11448
929.218	11459
929.323	11391
929.428	11273
929.533	11528
929.638	11204
929.743	11349
929.848	11433
929.953	11353
930.058	11223
930.163	11048
930.267	11067
930.372	11250
930.477	11037
930.581	11223
930.685	11045
930.79	10919
930.894	11037
930.998	10889
931.103	11090
931.207	10660
931.311	10645
931.415	10542
931.519	10390
931.623	10306
