Data from test_V78500241_2663.txt Node
Date: Fri Mar 25 15:28:24 CST 2022
User: usil
Spectrometer: V785-0024
Trigger mode: 0
Integration Time (sec): 4.000000E-1
Scans to average: 1
Nonlinearity correction enabled: false
Boxcar width: 0
Storing dark spectrum: false
XAxis mode: Wavelengths
Number of Pixels in Spectrum: 1024
>>>>>Begin Spectral Data<<<<<
801.071	26994
801.214	26971
801.356	26796
801.499	26613
801.641	26632
801.783	26609
801.926	26587
802.068	26670
802.211	26537
802.353	26461
802.496	26275
802.638	26271
802.78	26191
802.923	25982
803.065	25978
803.208	26115
803.35	26252
803.492	26256
803.635	26351
803.777	26294
803.919	26278
804.061	26648
804.204	26347
804.346	26229
804.488	26305
804.63	26195
804.773	26145
804.915	26434
805.057	26423
805.199	26176
805.341	26484
805.483	26309
805.626	26381
805.768	26153
805.91	26499
806.052	26473
806.194	26305
806.336	26621
806.478	26408
806.62	26495
806.762	26606
806.904	26617
807.046	26845
807.188	26792
807.33	26807
807.472	26853
807.614	26769
807.756	26636
807.898	26625
808.04	26613
808.182	26556
808.324	26716
808.465	26712
808.607	26838
808.749	27123
808.891	27100
809.033	27211
809.174	27039
809.316	26948
809.458	26963
809.6	26868
809.741	26971
809.883	27165
810.025	27291
810.166	27188
810.308	27287
810.45	27108
810.591	27222
810.733	27066
810.875	27017
811.016	26940
811.158	27028
811.299	27062
811.441	27287
811.582	27199
811.724	26937
811.865	26868
812.007	26960
812.148	26845
812.29	26994
812.431	27066
812.573	27203
812.714	27469
812.855	27363
812.997	27595
813.138	27774
813.279	27587
813.421	27351
813.562	27348
813.703	27306
813.845	27062
813.986	26899
814.127	26743
814.268	26648
814.41	26571
814.551	26552
814.692	26667
814.833	26609
814.974	26724
815.115	26590
815.256	26415
815.397	26518
815.539	26427
815.68	26434
815.821	26324
815.962	26404
816.103	26309
816.244	26328
816.385	26199
816.526	26084
816.666	25947
816.807	25826
816.948	25947
817.089	25917
817.23	25963
817.371	25868
817.512	25852
817.653	25898
817.793	25715
817.934	25818
818.075	25932
818.216	25894
818.356	25719
818.497	25712
818.638	25632
818.778	25677
818.919	25708
819.06	25689
819.2	25715
819.341	25738
819.481	25814
819.622	26065
819.762	26153
819.903	26103
820.043	25997
820.184	26088
820.324	26005
820.465	26024
820.605	25986
820.746	26024
820.886	25727
821.026	25913
821.167	25868
821.307	25868
821.447	25875
821.588	25750
821.728	25772
821.868	25518
822.008	25278
822.149	25339
822.289	25304
822.429	25095
822.569	25012
822.709	25019
822.849	24890
822.99	24852
823.13	24878
823.27	24753
823.41	24654
823.55	24483
823.69	24795
823.83	24726
823.97	24669
824.11	24475
824.25	24445
824.389	24479
824.529	24623
824.669	24445
824.809	24490
824.949	24570
825.089	24570
825.228	24525
825.368	24338
825.508	24300
825.648	24243
825.787	24521
825.927	24376
826.067	24243
826.206	24296
826.346	24334
826.485	24490
826.625	24254
826.765	24384
826.904	24357
827.044	24068
827.183	24057
827.323	24117
827.462	24178
827.601	24053
827.741	24095
827.88	24209
828.02	23775
828.159	24041
828.298	24079
828.437	24148
828.577	23973
828.716	24095
828.855	23931
828.994	23733
829.134	23745
829.273	23733
829.412	23634
829.551	23729
829.69	23779
829.829	23771
829.968	23901
830.107	23783
830.246	23767
830.385	23707
830.524	23566
830.663	23520
830.802	23402
830.941	23284
831.08	23376
831.219	23509
831.357	23486
831.496	23520
831.635	23189
831.774	23330
831.913	23212
832.051	23174
832.19	23212
832.329	23193
832.467	23128
832.606	23094
832.744	22968
832.883	22953
833.022	23056
833.16	23029
833.299	23083
833.437	23117
833.576	23162
833.714	23109
833.852	23143
833.991	23124
834.129	23170
834.267	23105
834.406	23071
834.544	23147
834.682	23060
834.821	23079
834.959	23223
835.097	23060
835.235	23105
835.373	23102
835.511	23109
835.65	22995
835.788	23018
835.926	22782
836.064	22854
836.202	22858
836.34	23037
836.478	23155
836.615	22824
836.753	22919
836.891	23102
837.029	22889
837.167	22877
837.305	22904
837.443	22839
837.58	22797
837.718	22835
837.856	22729
837.993	22694
838.131	22778
838.269	22641
838.406	22679
838.544	22599
838.681	22527
838.819	22413
838.956	22257
839.094	22284
839.231	22379
839.369	22504
839.506	22740
839.643	22546
839.781	22211
839.918	22261
840.055	22413
840.193	22196
840.33	22265
840.467	22234
840.604	22261
840.742	22481
840.879	22143
841.016	22116
841.153	22150
841.29	22402
841.427	22131
841.564	22219
841.701	22276
841.838	22139
841.975	22128
842.112	22234
842.249	22086
842.385	22078
842.522	22268
842.659	22120
842.796	22044
842.933	22120
843.069	21937
843.206	21892
843.343	22036
843.479	22090
843.616	21915
843.752	21827
843.889	21850
844.025	21880
844.162	21850
844.298	21915
844.435	21720
844.571	21812
844.708	21755
844.844	21911
844.98	21895
845.117	21835
845.253	21667
845.389	21564
845.525	21690
845.661	21572
845.798	21450
845.934	21545
846.07	21519
846.206	21542
846.342	21564
846.478	21580
846.614	21420
846.75	21184
846.886	21249
847.022	21336
847.158	21214
847.294	21359
847.429	21287
847.565	21173
847.701	21325
847.837	20990
847.972	20921
848.108	21028
848.244	21093
848.379	20872
848.515	20842
848.65	20815
848.786	20838
848.921	20800
849.057	20921
849.192	20906
849.328	20914
849.463	20872
849.598	20800
849.734	20743
849.869	20697
850.004	20613
850.14	20727
850.275	20568
850.41	20609
850.545	20549
850.68	20522
850.815	20571
850.95	20552
851.085	20826
851.22	20716
851.355	20625
851.49	20537
851.625	20537
851.76	20541
851.895	20507
852.03	20522
852.165	20545
852.299	20746
852.434	20727
852.569	20663
852.703	20564
852.838	20663
852.973	20857
853.107	20746
853.242	20579
853.376	20526
853.511	20339
853.645	20286
853.78	20598
853.914	20343
854.048	20480
854.183	20385
854.317	20328
854.451	20640
854.585	20537
854.72	20499
854.854	20492
854.988	20396
855.122	20503
855.256	20404
855.39	20499
855.524	20560
855.658	20473
855.792	20499
855.926	20564
856.06	20396
856.194	20473
856.327	20389
856.461	20393
856.595	20252
856.729	20427
856.862	20476
856.996	20408
857.13	20454
857.263	20621
857.397	20625
857.53	20476
857.664	20465
857.797	20518
857.931	20590
858.064	20442
858.197	20476
858.331	20461
858.464	20434
858.597	20294
858.731	20514
858.864	20415
858.997	20454
859.13	20438
859.263	20488
859.396	20583
859.529	20400
859.662	20366
859.795	20294
859.928	20518
860.061	20545
860.194	20750
860.327	20613
860.46	20442
860.592	20499
860.725	20587
860.858	20625
860.99	20503
861.123	20187
861.256	20400
861.388	20419
861.521	20994
861.653	20317
861.786	20149
861.918	20347
862.05	20408
862.183	20271
862.315	20404
862.447	20663
862.58	20309
862.712	20058
862.844	20035
862.976	20206
863.108	20149
863.24	20678
863.372	20046
863.504	20157
863.636	20153
863.768	20271
863.9	20305
864.032	20035
864.164	20176
864.296	20145
864.428	20244
864.559	20286
864.691	20221
864.823	20164
864.954	20176
865.086	20046
865.217	20046
865.349	19906
865.48	20088
865.612	20031
865.743	20130
865.875	20077
866.006	19849
866.137	20122
866.269	20031
866.4	20157
866.531	19986
866.662	19951
866.793	19887
866.924	19997
867.055	19963
867.186	20039
867.317	19970
867.448	19875
867.579	20130
867.71	19928
867.841	19955
867.972	19997
868.103	19963
868.233	20020
868.364	19993
868.495	20084
868.625	20187
868.756	20221
868.886	20168
869.017	20248
869.147	20343
869.278	20313
869.408	20290
869.539	20210
869.669	20347
869.799	20309
869.929	20366
870.06	20454
870.19	20564
870.32	20514
870.45	20625
870.58	20651
870.71	20746
870.84	20792
870.97	20598
871.1	20655
871.23	20838
871.36	20800
871.489	20727
871.619	20804
871.749	20792
871.879	20773
872.008	21047
872.138	20956
872.267	20887
872.397	20754
872.526	20720
872.656	20724
872.785	20636
872.915	20842
873.044	20944
873.173	20910
873.303	20883
873.432	20929
873.561	20906
873.69	20819
873.819	20864
873.948	20937
874.077	20948
874.206	20792
874.335	20887
874.464	20899
874.593	21131
874.722	21184
874.851	21135
874.979	21104
875.108	21192
875.237	21028
875.365	21005
875.494	21066
875.623	21245
875.751	21081
875.88	21058
876.008	21287
876.136	21161
876.265	21564
876.393	21622
876.521	21603
876.65	21603
876.778	21488
876.906	21458
877.034	21469
877.162	21462
877.29	21424
877.418	21431
877.546	21485
877.674	21545
877.802	21591
877.93	21439
878.058	21416
878.185	21268
878.313	21469
878.441	21428
878.568	21268
878.696	21405
878.824	21492
878.951	21469
879.079	21682
879.206	21743
879.333	21561
879.461	21534
879.588	21652
879.715	21637
879.842	21804
879.97	21534
880.097	21348
880.224	21218
880.351	21359
880.478	21389
880.605	21317
880.732	21393
880.859	21549
880.986	21408
881.112	21431
881.239	21203
881.366	21047
881.493	21009
881.619	20853
881.746	20883
881.872	20944
881.999	20921
882.125	20944
882.252	20804
882.378	20918
882.505	21074
882.631	20670
882.757	20594
882.883	20788
883.01	20655
883.136	20632
883.262	20408
883.388	20385
883.514	20636
883.64	20518
883.766	20412
883.892	20309
884.018	20446
884.143	20598
884.269	20571
884.395	20324
884.52	19982
884.646	20237
884.772	20244
884.897	20115
885.023	20164
885.148	20233
885.274	20374
885.399	20362
885.524	20195
885.65	20377
885.775	20225
885.9	20145
886.025	20400
886.15	20244
886.275	20199
886.4	20134
886.525	20229
886.65	20142
886.775	20077
886.9	20355
887.025	20457
887.149	20138
887.274	20111
887.399	19997
887.523	20107
887.648	19940
887.773	20008
887.897	20092
888.021	20035
888.146	19947
888.27	20161
888.395	20073
888.519	20012
888.643	20035
888.767	20008
888.891	19772
889.015	19807
889.139	19864
889.263	19799
889.387	20001
889.511	20005
889.635	19928
889.759	19807
889.883	19780
890.006	19826
890.13	19849
890.254	19696
890.377	19776
890.501	19586
890.624	19605
890.748	19685
890.871	19506
890.995	19350
891.118	19392
891.241	19457
891.364	19480
891.488	19525
891.611	19441
891.734	19350
891.857	19480
891.98	19388
892.103	19518
892.226	19563
892.349	19365
892.471	19187
892.594	19369
892.717	19514
892.839	19381
892.962	19335
893.085	19400
893.207	19240
893.33	19289
893.452	19263
893.575	19369
893.697	19297
893.819	19415
893.941	19445
894.064	19419
894.186	19270
894.308	19217
894.43	19365
894.552	19495
894.674	19320
894.796	19171
894.918	19343
895.04	19350
895.161	19472
895.283	19426
895.405	19244
895.526	19396
895.648	19358
895.769	19289
895.891	19301
896.012	19373
896.134	19392
896.255	19266
896.376	19301
896.498	19441
896.619	19327
896.74	19365
896.861	19369
896.982	19723
897.103	19822
897.224	19540
897.345	19533
897.466	19495
897.587	19529
897.708	19788
897.828	19658
897.949	19388
898.07	19339
898.19	19396
898.311	19647
898.431	19521
898.552	19704
898.672	19708
898.792	19601
898.913	19571
899.033	19464
899.153	19457
899.273	19350
899.393	19422
899.513	19373
899.633	19365
899.753	19411
899.873	19316
899.993	19453
900.113	19259
900.232	19293
900.352	19350
900.472	19160
900.591	19221
900.711	19099
900.83	19065
900.95	19255
901.069	19107
901.189	19034
901.308	18768
901.427	18715
901.546	18730
901.665	18692
901.784	18859
901.904	18597
902.023	18399
902.141	18323
902.26	18262
902.379	18292
902.498	18136
902.617	18171
902.735	18311
902.854	18167
902.973	18098
903.091	17965
903.21	17813
903.328	17916
903.446	17870
903.565	17608
903.683	17802
903.801	17733
903.919	17684
904.038	17707
904.156	17551
904.274	17566
904.392	17440
904.51	17528
904.627	17440
904.745	17623
904.863	17570
904.981	17383
905.098	17136
905.216	17223
905.334	17178
905.451	17147
905.569	17113
905.686	17231
905.803	17075
905.921	17006
906.038	17143
906.155	16984
906.272	16843
906.389	16881
906.506	16740
906.623	16786
906.74	16694
906.857	16634
906.974	16668
907.091	16797
907.208	16782
907.324	16717
907.441	16592
907.557	16519
907.674	16417
907.79	16428
907.907	16440
908.023	16504
908.139	16440
908.256	16322
908.372	16344
908.488	16348
908.604	16230
908.72	16131
908.836	16196
908.952	16200
909.068	16162
909.184	16268
909.3	16215
909.415	16226
909.531	16215
909.647	15975
909.762	15892
909.878	15911
909.993	15911
910.108	15857
910.224	15823
910.339	15892
910.454	15785
910.57	15679
910.685	15682
910.8	15857
910.915	15823
911.03	15835
911.145	15595
911.259	15614
911.374	15443
911.489	15564
911.604	15477
911.718	15302
911.833	15294
911.947	15272
912.062	15112
912.176	15317
912.291	15329
912.405	15378
912.519	15389
912.633	15428
912.748	15336
912.862	15306
912.976	15203
913.09	14956
913.204	15127
913.318	15135
913.431	15214
913.545	15192
913.659	15199
913.772	14975
913.886	14975
914	14853
914.113	14994
914.226	15058
914.34	15062
914.453	14765
914.566	14960
914.68	14830
914.793	14769
914.906	14606
915.019	14473
915.132	14484
915.245	14492
915.358	14450
915.47	14602
915.583	14503
915.696	14594
915.809	14629
915.921	14655
916.034	14545
916.146	14446
916.259	14484
916.371	14530
916.483	14408
916.595	14366
916.708	14324
916.82	14419
916.932	14347
917.044	14259
917.156	14199
917.268	14252
917.38	14202
917.491	14218
917.603	14199
917.715	14370
917.826	14275
917.938	14153
918.049	14024
918.161	14172
918.272	14267
918.384	14263
918.495	14092
918.606	13989
918.717	13940
918.828	13993
918.939	14031
919.05	13887
919.161	13955
919.272	13849
919.383	13868
919.494	13989
919.604	14103
919.715	14069
919.826	13879
919.936	13917
920.047	13974
920.157	14001
920.267	14126
920.378	13997
920.488	13864
920.598	14191
920.708	14309
920.818	14138
920.928	14081
921.038	14358
921.148	14199
921.258	13856
921.368	13731
921.477	13670
921.587	13765
921.697	13651
921.806	13738
921.916	13597
922.025	13434
922.134	13472
922.244	13293
922.353	13457
922.462	13308
922.571	13247
922.68	13012
922.789	13004
922.898	13031
923.007	13050
923.116	12996
923.224	13061
923.333	13053
923.442	12772
923.55	12833
923.659	12856
923.767	12962
923.876	12821
923.984	12848
924.092	12688
924.201	12791
924.309	12802
924.417	12711
924.525	12700
924.633	12757
924.741	13620
924.849	12380
924.956	12673
925.064	12422
925.172	12361
925.279	12410
925.387	12471
925.494	12467
925.602	12570
925.709	12536
925.816	12407
925.924	12388
926.031	12555
926.138	12426
926.245	12361
926.352	12304
926.459	12540
926.566	12490
926.673	12319
926.779	12304
926.886	12136
926.993	12076
927.099	12049
927.206	12026
927.312	11992
927.419	12121
927.525	12053
927.631	12102
927.737	11893
927.843	11870
927.95	11748
928.056	11821
928.162	11946
928.267	11904
928.373	12414
928.479	11977
928.585	11748
928.69	11859
928.796	11882
928.901	11707
929.007	11596
929.112	11824
929.218	11642
929.323	11710
929.428	11668
929.533	11657
929.638	11467
929.743	11516
929.848	11615
929.953	11611
930.058	11421
930.163	11372
930.267	11341
930.372	11330
930.477	11280
930.581	11486
930.685	11395
930.79	11193
930.894	11204
930.998	11132
931.103	11288
931.207	10999
931.311	10831
931.415	10820
931.519	10542
931.623	10561
