Data from test_V78500241_755.txt Node
Date: Fri Mar 25 15:15:06 CST 2022
User: usil
Spectrometer: V785-0024
Trigger mode: 0
Integration Time (sec): 4.000000E-1
Scans to average: 1
Nonlinearity correction enabled: false
Boxcar width: 0
Storing dark spectrum: false
XAxis mode: Wavelengths
Number of Pixels in Spectrum: 1024
>>>>>Begin Spectral Data<<<<<
801.071	27762
801.214	27644
801.356	27534
801.499	27344
801.641	27211
801.783	27233
801.926	27477
802.068	27249
802.211	27291
802.353	27214
802.496	26944
802.638	27020
802.78	27058
802.923	26910
803.065	26956
803.208	26819
803.35	26826
803.492	27028
803.635	26979
803.777	26914
803.919	27116
804.061	27481
804.204	27127
804.346	27108
804.488	27074
804.63	27058
804.773	26948
804.915	27085
805.057	27226
805.199	27241
805.341	27336
805.483	27302
805.626	27260
805.768	27199
805.91	27260
806.052	27188
806.194	27131
806.336	27424
806.478	27241
806.62	27241
806.762	27260
806.904	27580
807.046	27762
807.188	27732
807.33	27633
807.472	27690
807.614	27488
807.756	27549
807.898	27515
808.04	27462
808.182	27523
808.324	27492
808.465	27591
808.607	27671
808.749	27846
808.891	27895
809.033	28051
809.174	28082
809.316	27934
809.458	27884
809.6	27899
809.741	28048
809.883	28120
810.025	28097
810.166	28211
810.308	28200
810.45	28086
810.591	28051
810.733	28029
810.875	27808
811.016	27827
811.158	27667
811.299	27956
811.441	28192
811.582	27998
811.724	27991
811.865	27854
812.007	27789
812.148	27941
812.29	27880
812.431	28051
812.573	28382
812.714	28516
812.855	28512
812.997	28447
813.138	28713
813.279	28550
813.421	28519
813.562	28375
813.703	28219
813.845	28139
813.986	27778
814.127	27698
814.268	27564
814.41	27553
814.551	27720
814.692	27515
814.833	27679
814.974	27431
815.115	27576
815.256	27435
815.397	27526
815.539	27538
815.68	27389
815.821	27291
815.962	27351
816.103	27359
816.244	27287
816.385	27169
816.526	27104
816.666	26952
816.807	26910
816.948	27039
817.089	26990
817.23	26853
817.371	27036
817.512	26960
817.653	26998
817.793	26925
817.934	26960
818.075	26914
818.216	26921
818.356	26876
818.497	26686
818.638	26670
818.778	26701
818.919	26689
819.06	26746
819.2	26735
819.341	26921
819.481	26910
819.622	27074
819.762	27199
819.903	27116
820.043	27066
820.184	27009
820.324	26960
820.465	27089
820.605	27013
820.746	26998
820.886	26899
821.026	27001
821.167	26895
821.307	26956
821.447	26975
821.588	26765
821.728	26743
821.868	26560
822.008	26396
822.149	26358
822.289	26252
822.429	26012
822.569	26001
822.709	26180
822.849	25871
822.99	25898
823.13	25898
823.27	25856
823.41	25734
823.55	25586
823.69	25628
823.83	25655
823.97	25590
824.11	25548
824.25	25479
824.389	25613
824.529	25628
824.669	25464
824.809	25639
824.949	25563
825.089	25537
825.228	25537
825.368	25259
825.508	25331
825.648	25407
825.787	25377
825.927	25422
826.067	25400
826.206	25247
826.346	25415
826.485	25434
826.625	25312
826.765	25499
826.904	25457
827.044	25263
827.183	25061
827.323	24958
827.462	25107
827.601	25000
827.741	25019
827.88	25038
828.02	24973
828.159	25110
828.298	25122
828.437	25148
828.577	25110
828.716	25251
828.855	24973
828.994	24806
829.134	24825
829.273	24825
829.412	24734
829.551	24726
829.69	24764
829.829	24802
829.968	24848
830.107	24825
830.246	24787
830.385	24661
830.524	24745
830.663	24635
830.802	24448
830.941	24372
831.08	24346
831.219	24407
831.357	24414
831.496	24635
831.635	24353
831.774	24243
831.913	24273
832.051	24216
832.19	24095
832.329	24251
832.467	24102
832.606	24045
832.744	24038
832.883	24121
833.022	23996
833.16	24038
833.299	24015
833.437	24095
833.576	24209
833.714	24045
833.852	24098
833.991	24361
834.129	24140
834.267	24140
834.406	24117
834.544	24125
834.682	24129
834.821	23969
834.959	24315
835.097	23996
835.235	24152
835.373	24095
835.511	24133
835.65	23950
835.788	24041
835.926	23798
836.064	23775
836.202	23828
836.34	23912
836.478	24034
836.615	23889
836.753	24083
836.891	24007
837.029	23939
837.167	23954
837.305	23931
837.443	23726
837.58	23748
837.718	23718
837.856	23832
837.993	23726
838.131	23809
838.269	23684
838.406	23600
838.544	23703
838.681	23356
838.819	23322
838.956	23292
839.094	23204
839.231	23326
839.369	23387
839.506	23634
839.643	23577
839.781	23269
839.918	23174
840.055	23303
840.193	23250
840.33	23075
840.467	23197
840.604	23220
840.742	23410
840.879	22915
841.016	23200
841.153	23018
841.29	23254
841.427	23220
841.564	23181
841.701	23250
841.838	23132
841.975	23041
842.112	23067
842.249	22896
842.385	22873
842.522	23121
842.659	22930
842.796	22949
842.933	22896
843.069	22908
843.206	22946
843.343	23056
843.479	22896
843.616	22881
843.752	22641
843.889	22771
844.025	22854
844.162	22615
844.298	22797
844.435	22664
844.571	22603
844.708	22771
844.844	22953
844.98	22869
845.117	22767
845.253	22660
845.389	22508
845.525	22622
845.661	22489
845.798	22474
845.934	22516
846.07	22436
846.206	22421
846.342	22519
846.478	22436
846.614	22192
846.75	22109
846.886	22002
847.022	22230
847.158	22223
847.294	22188
847.429	22265
847.565	22158
847.701	22421
847.837	21945
847.972	21892
848.108	21941
848.244	21972
848.379	21781
848.515	21690
848.65	21705
848.786	21838
848.921	21812
849.057	21876
849.192	21846
849.328	21785
849.463	21701
849.598	21690
849.734	21724
849.869	21515
850.004	21610
850.14	21462
850.275	21606
850.41	21450
850.545	21504
850.68	21549
850.815	21572
850.95	21530
851.085	21538
851.22	21587
851.355	21610
851.49	21420
851.625	21481
851.76	21507
851.895	21367
852.03	21443
852.165	21481
852.299	21523
852.434	21542
852.569	21549
852.703	21595
852.838	21530
852.973	21644
853.107	21504
853.242	21500
853.376	21336
853.511	21291
853.645	21317
853.78	21454
853.914	21363
854.048	21416
854.183	21336
854.317	21450
854.451	21587
854.585	21355
854.72	21348
854.854	21591
854.988	21351
855.122	21294
855.256	21306
855.39	21275
855.524	21310
855.658	21355
855.792	21317
855.926	21412
856.06	21435
856.194	21534
856.327	21325
856.461	21233
856.595	21211
856.729	21382
856.862	21473
856.996	21298
857.13	21416
857.263	21603
857.397	21450
857.53	21294
857.664	21351
857.797	21340
857.931	21420
858.064	21374
858.197	21538
858.331	21241
858.464	21275
858.597	21272
858.731	21462
858.864	21310
858.997	21313
859.13	21260
859.263	21294
859.396	21488
859.529	21317
859.662	21321
859.795	21363
859.928	21321
860.061	21500
860.194	21534
860.327	21447
860.46	21355
860.592	21568
860.725	21412
860.858	21519
860.99	21397
861.123	21313
861.256	21211
861.388	21325
861.521	22124
861.653	21199
861.786	21127
861.918	21119
862.05	21188
862.183	21226
862.315	21176
862.447	21435
862.58	21283
862.712	21131
862.844	21043
862.976	21237
863.108	21218
863.24	21374
863.372	20944
863.504	21135
863.636	21043
863.768	21066
863.9	21005
864.032	20929
864.164	20937
864.296	21142
864.428	21157
864.559	21096
864.691	21028
864.823	21074
864.954	20990
865.086	21131
865.217	20979
865.349	20902
865.48	20960
865.612	20944
865.743	21070
865.875	20971
866.006	20944
866.137	20998
866.269	20864
866.4	20979
866.531	20914
866.662	20754
866.793	20861
866.924	20876
867.055	20857
867.186	20887
867.317	20880
867.448	20819
867.579	20895
867.71	20750
867.841	20743
867.972	20937
868.103	20899
868.233	20902
868.364	20891
868.495	21017
868.625	21081
868.756	21173
868.886	20971
869.017	21154
869.147	21192
869.278	21287
869.408	21013
869.539	21127
869.669	21195
869.799	21176
869.929	21291
870.06	21138
870.19	21359
870.32	21458
870.45	21397
870.58	21519
870.71	21618
870.84	21454
870.97	21549
871.1	21500
871.23	21671
871.36	21686
871.489	21542
871.619	21774
871.749	21682
871.879	21720
872.008	21743
872.138	21751
872.267	21713
872.397	21564
872.526	21557
872.656	21530
872.785	21466
872.915	21724
873.044	21671
873.173	21766
873.303	21778
873.432	21724
873.561	21915
873.69	21739
873.819	21766
873.948	21747
874.077	21610
874.206	21660
874.335	21553
874.464	21774
874.593	21941
874.722	22029
874.851	21972
874.979	21983
875.108	22131
875.237	21861
875.365	21876
875.494	21934
875.623	21956
875.751	21899
875.88	21922
876.008	22017
876.136	22120
876.265	22318
876.393	22459
876.521	22299
876.65	22341
876.778	22249
876.906	22268
877.034	22230
877.162	22356
877.29	22116
877.418	22386
877.546	22341
877.674	22284
877.802	22379
877.93	22291
878.058	22246
878.185	22219
878.313	22261
878.441	22337
878.568	22158
878.696	22238
878.824	22341
878.951	22474
879.079	22508
879.206	22687
879.333	22382
879.461	22367
879.588	22394
879.715	22470
879.842	22512
879.97	22341
880.097	22211
880.224	22040
880.351	22097
880.478	22070
880.605	22048
880.732	22116
880.859	22421
880.986	22105
881.112	22154
881.239	21903
881.366	21778
881.493	21846
881.619	21713
881.746	21827
881.872	21648
881.999	21637
882.125	21622
882.252	21682
882.378	21614
882.505	21701
882.631	21458
882.757	21302
882.883	21481
883.01	21363
883.136	21264
883.262	21161
883.388	21344
883.514	21401
883.64	21408
883.766	21287
883.892	21157
884.018	21188
884.143	21310
884.269	21401
884.395	21119
884.52	21131
884.646	20948
884.772	20979
884.897	20864
885.023	21039
885.148	21245
885.274	21237
885.399	21093
885.524	20986
885.65	21093
885.775	21024
885.9	21047
886.025	21119
886.15	21039
886.275	20982
886.4	20929
886.525	21051
886.65	20986
886.775	20872
886.9	21226
887.025	21264
887.149	20948
887.274	20716
887.399	20849
887.523	20800
887.648	20773
887.773	20545
887.897	20853
888.021	20796
888.146	20811
888.27	20948
888.395	20971
888.519	20872
888.643	20853
888.767	20815
888.891	20670
889.015	20629
889.139	20606
889.263	20606
889.387	20693
889.511	20712
889.635	20750
889.759	20499
889.883	20625
890.006	20590
890.13	20686
890.254	20530
890.377	20511
890.501	20415
890.624	20457
890.748	20358
890.871	20339
890.995	20202
891.118	20008
891.241	20191
891.364	20119
891.488	20320
891.611	20199
891.734	20202
891.857	20218
891.98	20187
892.103	20271
892.226	20081
892.349	20149
892.471	19970
892.594	20126
892.717	20035
892.839	19928
892.962	20138
893.085	20119
893.207	20077
893.33	19959
893.452	20027
893.575	20100
893.697	19978
893.819	20309
893.941	20248
894.064	20168
894.186	19951
894.308	20043
894.43	20126
894.552	20221
894.674	20145
894.796	19883
894.918	19989
895.04	19986
895.161	20214
895.283	20065
895.405	19967
895.526	20092
895.648	20096
895.769	19947
895.891	20157
896.012	20138
896.134	20191
896.255	20092
896.376	20069
896.498	20016
896.619	20062
896.74	19978
896.861	20126
896.982	20522
897.103	20476
897.224	20381
897.345	20252
897.466	20317
897.587	20267
897.708	20366
897.828	20309
897.949	20153
898.07	20168
898.19	20294
898.311	20317
898.431	20233
898.552	20358
898.672	20298
898.792	20305
898.913	20301
899.033	20172
899.153	20149
899.273	20043
899.393	20134
899.513	20031
899.633	20130
899.753	20027
899.873	19951
899.993	20126
900.113	20027
900.232	20012
900.352	20008
900.472	19890
900.591	19727
900.711	19871
900.83	19681
900.95	19986
901.069	19852
901.189	19750
901.308	19544
901.427	19415
901.546	19335
901.665	19464
901.784	19415
901.904	19365
902.023	19236
902.141	18958
902.26	18993
902.379	18951
902.498	18878
902.617	18966
902.735	18977
902.854	18951
902.973	18897
903.091	18639
903.21	18486
903.328	18620
903.446	18551
903.565	18464
903.683	18486
903.801	18350
903.919	18433
904.038	18270
904.156	18163
904.274	18266
904.392	18254
904.51	18106
904.627	18216
904.745	18174
904.863	18262
904.981	17912
905.098	17920
905.216	17874
905.334	17931
905.451	17920
905.569	17729
905.686	17851
905.803	17786
905.921	17630
906.038	17771
906.155	17661
906.272	17395
906.389	17623
906.506	17364
906.623	17490
906.74	17387
906.857	17231
906.974	17239
907.091	17467
907.208	17505
907.324	17436
907.441	17330
907.557	17090
907.674	17220
907.79	17094
907.907	17162
908.023	17121
908.139	17056
908.256	16976
908.372	16854
908.488	16984
908.604	16866
908.72	16771
908.836	16835
908.952	16786
909.068	16729
909.184	16790
909.3	16694
909.415	16797
909.531	16793
909.647	16550
909.762	16481
909.878	16523
909.993	16531
910.108	16508
910.224	16421
910.339	16500
910.454	16356
910.57	16352
910.685	16207
910.8	16588
910.915	16462
911.03	16287
911.145	16185
911.259	16200
911.374	16086
911.489	15991
911.604	16002
911.718	15854
911.833	15823
911.947	15781
912.062	15743
912.176	15857
912.291	15876
912.405	15873
912.519	15968
912.633	16166
912.748	15869
912.862	15755
912.976	15694
913.09	15523
913.204	15732
913.318	15614
913.431	15755
913.545	15637
913.659	15808
913.772	15610
913.886	15458
914	15454
914.113	15580
914.226	15652
914.34	15507
914.453	15397
914.566	15507
914.68	15370
914.793	15310
914.906	15207
915.019	15173
915.132	15112
915.245	15157
915.358	15211
915.47	15142
915.583	15005
915.696	15100
915.809	15180
915.921	15165
916.034	15005
916.146	15024
916.259	14929
916.371	15032
916.483	14979
916.595	14967
916.708	14948
916.82	14952
916.932	14872
917.044	14876
917.156	14754
917.268	14853
917.38	14743
917.491	14724
917.603	14731
917.715	14834
917.826	14777
917.938	14705
918.049	14629
918.161	14731
918.272	14750
918.384	14914
918.495	14594
918.606	14492
918.717	14431
918.828	14549
918.939	14552
919.05	14362
919.161	14473
919.272	14294
919.383	14248
919.494	14564
919.604	14606
919.715	14514
919.826	14457
919.936	14434
920.047	14480
920.157	14495
920.267	14617
920.378	14434
920.488	14480
920.598	14670
920.708	14781
920.818	14659
920.928	14583
921.038	14758
921.148	14716
921.258	14393
921.368	14377
921.477	14206
921.587	14218
921.697	14115
921.806	14259
921.916	14035
922.025	13852
922.134	13814
922.244	13712
922.353	13932
922.462	13803
922.571	13662
922.68	13571
922.789	13468
922.898	13575
923.007	13426
923.116	13483
923.224	13384
923.333	13430
923.442	13350
923.55	13331
923.659	13320
923.767	13388
923.876	13278
923.984	13369
924.092	13168
924.201	13194
924.309	13301
924.417	13343
924.525	13175
924.633	13137
924.741	13925
924.849	12966
924.956	13053
925.064	13027
925.172	12878
925.279	12856
925.387	12924
925.494	12935
925.602	13053
925.709	12985
925.816	12783
925.924	12977
926.031	12875
926.138	12760
926.245	12943
926.352	12734
926.459	12833
926.566	12966
926.673	12749
926.779	12745
926.886	12608
926.993	12483
927.099	12525
927.206	12506
927.312	12414
927.419	12551
927.525	12483
927.631	12502
927.737	12334
927.843	12372
927.95	12235
928.056	12224
928.162	12357
928.267	12353
928.373	12894
928.479	12414
928.585	12140
928.69	12308
928.796	12346
928.901	12133
929.007	11980
929.112	12258
929.218	12163
929.323	12068
929.428	12064
929.533	12163
929.638	11973
929.743	11988
929.848	12038
929.953	11999
930.058	11874
930.163	11676
930.267	11657
930.372	11813
930.477	11665
930.581	11939
930.685	11786
930.79	11604
930.894	11627
930.998	11642
931.103	11691
931.207	11372
931.311	11280
931.415	11143
931.519	10980
931.623	10889
