Data from test_V78500241_2999.txt Node
Date: Fri Mar 25 15:30:44 CST 2022
User: usil
Spectrometer: V785-0024
Trigger mode: 0
Integration Time (sec): 4.000000E-1
Scans to average: 1
Nonlinearity correction enabled: false
Boxcar width: 0
Storing dark spectrum: false
XAxis mode: Wavelengths
Number of Pixels in Spectrum: 1024
>>>>>Begin Spectral Data<<<<<
801.071	27313
801.214	27241
801.356	27020
801.499	26982
801.641	26800
801.783	26701
801.926	26819
802.068	26796
802.211	26731
802.353	26636
802.496	26415
802.638	26560
802.78	26332
802.923	26381
803.065	26362
803.208	26419
803.35	26332
803.492	26613
803.635	26663
803.777	26564
803.919	26655
804.061	26883
804.204	26648
804.346	26621
804.488	26476
804.63	26625
804.773	26492
804.915	26648
805.057	26792
805.199	26606
805.341	26549
805.483	26644
805.626	26659
805.768	26545
805.91	26735
806.052	26629
806.194	26712
806.336	26773
806.478	26564
806.62	26727
806.762	26762
806.904	27032
807.046	27351
807.188	27211
807.33	27230
807.472	27340
807.614	26940
807.756	27173
807.898	27013
808.04	26952
808.182	26849
808.324	27020
808.465	27051
808.607	27169
808.749	27374
808.891	27359
809.033	27488
809.174	27237
809.316	27275
809.458	27355
809.6	27287
809.741	27321
809.883	27416
810.025	27675
810.166	27637
810.308	27648
810.45	27492
810.591	27408
810.733	27310
810.875	27264
811.016	27363
811.158	27222
811.299	27412
811.441	27576
811.582	27458
811.724	27367
811.865	27260
812.007	27462
812.148	27298
812.29	27237
812.431	27507
812.573	27515
812.714	27603
812.855	27755
812.997	27808
813.138	28048
813.279	28010
813.421	27895
813.562	27895
813.703	27671
813.845	27496
813.986	27195
814.127	27119
814.268	27020
814.41	27017
814.551	26834
814.692	27176
814.833	26883
814.974	26800
815.115	26883
815.256	26819
815.397	26883
815.539	26777
815.68	26785
815.821	26625
815.962	26830
816.103	26659
816.244	26495
816.385	26606
816.526	26457
816.666	26301
816.807	26221
816.948	26377
817.089	26495
817.23	26221
817.371	26195
817.512	26282
817.653	26138
817.793	26043
817.934	26233
818.075	26271
818.216	26202
818.356	26218
818.497	26122
818.638	25890
818.778	25947
818.919	26081
819.06	25997
819.2	26172
819.341	26164
819.481	26153
819.622	26320
819.762	26446
819.903	26457
820.043	26309
820.184	26366
820.324	26210
820.465	26396
820.605	26210
820.746	26313
820.886	26191
821.026	26126
821.167	26138
821.307	26317
821.447	26100
821.588	26107
821.728	26096
821.868	25788
822.008	25723
822.149	25769
822.289	25719
822.429	25510
822.569	25354
822.709	25411
822.849	25225
822.99	25202
823.13	25187
823.27	25107
823.41	25076
823.55	24844
823.69	24878
823.83	24977
823.97	24886
824.11	24939
824.25	24840
824.389	24829
824.529	24916
824.669	24852
824.809	24973
824.949	24882
825.089	24859
825.228	24924
825.368	24578
825.508	24601
825.648	24764
825.787	24753
825.927	24753
826.067	24692
826.206	24627
826.346	24741
826.485	24711
826.625	24722
826.765	24802
826.904	24650
827.044	24525
827.183	24509
827.323	24308
827.462	24422
827.601	24300
827.741	24399
827.88	24346
828.02	24205
828.159	24448
828.298	24380
828.437	24452
828.577	24338
828.716	24448
828.855	24247
828.994	24136
829.134	24121
829.273	24159
829.412	23912
829.551	24064
829.69	24136
829.829	24140
829.968	24228
830.107	24072
830.246	23980
830.385	24072
830.524	24041
830.663	23855
830.802	23786
830.941	23726
831.08	23726
831.219	23836
831.357	23737
831.496	23893
831.635	23790
831.774	23676
831.913	23566
832.051	23433
832.19	23482
832.329	23493
832.467	23436
832.606	23235
832.744	23349
832.883	23299
833.022	23376
833.16	23395
833.299	23383
833.437	23318
833.576	23356
833.714	23356
833.852	23383
833.991	23531
834.129	23554
834.267	23539
834.406	23379
834.544	23482
834.682	23478
834.821	23372
834.959	23524
835.097	23486
835.235	23410
835.373	23391
835.511	23360
835.65	23265
835.788	23269
835.926	23071
836.064	23006
836.202	23022
836.34	23235
836.478	23356
836.615	23239
836.753	23322
836.891	23376
837.029	23288
837.167	23124
837.305	23220
837.443	23155
837.58	23086
837.718	23197
837.856	23109
837.993	23136
838.131	23113
838.269	22946
838.406	23060
838.544	22873
838.681	22797
838.819	22698
838.956	22481
839.094	22622
839.231	22588
839.369	22771
839.506	22980
839.643	22767
839.781	22618
839.918	22451
840.055	22565
840.193	22592
840.33	22584
840.467	22592
840.604	22565
840.742	22733
840.879	22436
841.016	22447
841.153	22512
841.29	22523
841.427	22462
841.564	22504
841.701	22523
841.838	22542
841.975	22382
842.112	22527
842.249	22276
842.385	22295
842.522	22462
842.659	22181
842.796	22265
842.933	22185
843.069	22226
843.206	22166
843.343	22219
843.479	22246
843.616	22424
843.752	22048
843.889	22086
844.025	22196
844.162	21983
844.298	22257
844.435	22025
844.571	22032
844.708	22051
844.844	22265
844.98	22211
845.117	21979
845.253	21930
845.389	21956
845.525	21915
845.661	21968
845.798	21774
845.934	21831
846.07	21751
846.206	21808
846.342	21949
846.478	21739
846.614	21534
846.75	21526
846.886	21557
847.022	21732
847.158	21591
847.294	21557
847.429	21500
847.565	21462
847.701	21717
847.837	21370
847.972	21184
848.108	21283
848.244	21348
848.379	21047
848.515	21146
848.65	21173
848.786	21062
848.921	21013
849.057	21237
849.192	21093
849.328	21108
849.463	21013
849.598	21028
849.734	21024
849.869	21131
850.004	20693
850.14	20986
850.275	21123
850.41	20731
850.545	20788
850.68	20838
850.815	20971
850.95	20830
851.085	21047
851.22	20925
851.355	20883
851.49	20868
851.625	20826
851.76	20918
851.895	20796
852.03	20762
852.165	21009
852.299	20941
852.434	20971
852.569	20914
852.703	20941
852.838	21017
852.973	21047
853.107	20910
853.242	20750
853.376	20568
853.511	20655
853.645	20579
853.78	20712
853.914	20792
854.048	20663
854.183	20731
854.317	20804
854.451	20925
854.585	20663
854.72	20655
854.854	20788
854.988	20735
855.122	20636
855.256	20484
855.39	20602
855.524	20769
855.658	20769
855.792	20674
855.926	20712
856.06	20834
856.194	20815
856.327	20785
856.461	20632
856.595	20541
856.729	20758
856.862	20758
856.996	20773
857.13	20785
857.263	20792
857.397	20720
857.53	20750
857.664	20705
857.797	20777
857.931	20819
858.064	20686
858.197	20845
858.331	20705
858.464	20648
858.597	20571
858.731	20731
858.864	20724
858.997	20674
859.13	20731
859.263	20629
859.396	20716
859.529	20579
859.662	20632
859.795	20712
859.928	20674
860.061	20979
860.194	20952
860.327	20724
860.46	20811
860.592	20895
860.725	20731
860.858	20735
860.99	20815
861.123	20609
861.256	20785
861.388	20739
861.521	21180
861.653	20583
861.786	20514
861.918	20514
862.05	20598
862.183	20640
862.315	20602
862.447	20735
862.58	20720
862.712	20415
862.844	20465
862.976	20476
863.108	20423
863.24	20811
863.372	20347
863.504	20339
863.636	20442
863.768	20396
863.9	20412
864.032	20434
864.164	20362
864.296	20541
864.428	20530
864.559	20393
864.691	20408
864.823	20476
864.954	20412
865.086	20438
865.217	20225
865.349	20248
865.48	20301
865.612	20313
865.743	20457
865.875	20347
866.006	20248
866.137	20271
866.269	20377
866.4	20317
866.531	20229
866.662	20240
866.793	20214
866.924	20259
867.055	20214
867.186	20195
867.317	20362
867.448	20278
867.579	20187
867.71	20202
867.841	20248
867.972	20351
868.103	20210
868.233	20259
868.364	20362
868.495	20347
868.625	20377
868.756	20617
868.886	20511
869.017	20499
869.147	20568
869.278	20552
869.408	20590
869.539	20511
869.669	20545
869.799	20598
869.929	20617
870.06	20499
870.19	20769
870.32	20739
870.45	20899
870.58	20857
870.71	20952
870.84	21013
870.97	20925
871.1	20823
871.23	21013
871.36	21089
871.489	20994
871.619	20990
871.749	21081
871.879	21028
872.008	21112
872.138	21001
872.267	21142
872.397	20956
872.526	20887
872.656	20914
872.785	20994
872.915	21043
873.044	21214
873.173	21188
873.303	21150
873.432	21287
873.561	21192
873.69	21108
873.819	21119
873.948	21131
874.077	21100
874.206	21119
874.335	21138
874.464	21233
874.593	21214
874.722	21264
874.851	21367
874.979	21310
875.108	21348
875.237	21386
875.365	21283
875.494	21325
875.623	21389
875.751	21389
875.88	21359
876.008	21511
876.136	21492
876.265	21732
876.393	21842
876.521	21785
876.65	21823
876.778	21701
876.906	21663
877.034	21599
877.162	21797
877.29	21675
877.418	21690
877.546	21797
877.674	21606
877.802	21736
877.93	21564
878.058	21660
878.185	21561
878.313	21686
878.441	21648
878.568	21473
878.696	21709
878.824	21701
878.951	21751
879.079	21770
879.206	21945
879.333	21915
879.461	21717
879.588	21774
879.715	21895
879.842	21918
879.97	21778
880.097	21553
880.224	21526
880.351	21644
880.478	21435
880.605	21496
880.732	21610
880.859	21816
880.986	21591
881.112	21603
881.239	21428
881.366	21241
881.493	21291
881.619	21089
881.746	21058
881.872	21123
881.999	21039
882.125	21047
882.252	21047
882.378	21028
882.505	21214
882.631	21005
882.757	20933
882.883	20819
883.01	20788
883.136	20826
883.262	20720
883.388	20648
883.514	20667
883.64	20918
883.766	20682
883.892	20568
884.018	20644
884.143	20788
884.269	20910
884.395	20617
884.52	20461
884.646	20549
884.772	20343
884.897	20339
885.023	20514
885.148	20533
885.274	20450
885.399	20594
885.524	20415
885.65	20427
885.775	20431
885.9	20438
886.025	20526
886.15	20480
886.275	20320
886.4	20370
886.525	20370
886.65	20362
886.775	20385
886.9	20621
887.025	20686
887.149	20408
887.274	20233
887.399	20278
887.523	20298
887.648	20233
887.773	20176
887.897	20339
888.021	20339
888.146	20263
888.27	20385
888.395	20434
888.519	20252
888.643	20214
888.767	20336
888.891	20237
889.015	20126
889.139	20092
889.263	19993
889.387	20225
889.511	20130
889.635	20187
889.759	20046
889.883	20035
890.006	20088
890.13	20187
890.254	19928
890.377	20024
890.501	19826
890.624	19734
890.748	19906
890.871	19715
890.995	19689
891.118	19590
891.241	19700
891.364	19753
891.488	19913
891.611	19757
891.734	19696
891.857	19613
891.98	19639
892.103	19734
892.226	19761
892.349	19601
892.471	19316
892.594	19559
892.717	19681
892.839	19601
892.962	19548
893.085	19620
893.207	19556
893.33	19616
893.452	19438
893.575	19620
893.697	19571
893.819	19784
893.941	19799
894.064	19769
894.186	19540
894.308	19495
894.43	19613
894.552	19693
894.674	19643
894.796	19381
894.918	19559
895.04	19537
895.161	19704
895.283	19540
895.405	19552
895.526	19575
895.648	19605
895.769	19712
895.891	19601
896.012	19700
896.134	19693
896.255	19689
896.376	19597
896.498	19533
896.619	19521
896.74	19559
896.861	19681
896.982	19959
897.103	19978
897.224	19860
897.345	19913
897.466	19723
897.587	19776
897.708	19951
897.828	19925
897.949	19727
898.07	19685
898.19	19814
898.311	19898
898.431	19647
898.552	19795
898.672	19894
898.792	19951
898.913	19742
899.033	19662
899.153	19605
899.273	19392
899.393	19594
899.513	19586
899.633	19666
899.753	19727
899.873	19666
899.993	19685
900.113	19525
900.232	19537
900.352	19628
900.472	19411
900.591	19358
900.711	19407
900.83	19206
900.95	19369
901.069	19441
901.189	19312
901.308	19023
901.427	18951
901.546	18916
901.665	19012
901.784	19042
901.904	18890
902.023	18757
902.141	18513
902.26	18597
902.379	18616
902.498	18418
902.617	18467
902.735	18513
902.854	18441
902.973	18327
903.091	18239
903.21	18079
903.328	18030
903.446	18114
903.565	17988
903.683	17961
903.801	17958
903.919	17927
904.038	17942
904.156	17836
904.274	17729
904.392	17771
904.51	17642
904.627	17729
904.745	17729
904.863	17733
904.981	17524
905.098	17410
905.216	17471
905.334	17429
905.451	17425
905.569	17497
905.686	17486
905.803	17486
905.921	17147
906.038	17284
906.155	17204
906.272	17064
906.389	17117
906.506	16987
906.623	16957
906.74	17033
906.857	16778
906.974	16915
907.091	16923
907.208	17006
907.324	16968
907.441	16869
907.557	16626
907.674	16668
907.79	16672
907.907	16622
908.023	16637
908.139	16675
908.256	16607
908.372	16634
908.488	16535
908.604	16443
908.72	16318
908.836	16462
908.952	16257
909.068	16409
909.184	16481
909.3	16375
909.415	16306
909.531	16318
909.647	16059
909.762	16071
909.878	16048
909.993	16147
910.108	16055
910.224	16029
910.339	15994
910.454	16059
910.57	15823
910.685	15880
910.8	16124
910.915	16093
911.03	15983
911.145	15854
911.259	15713
911.374	15762
911.489	15584
911.604	15648
911.718	15378
911.833	15416
911.947	15416
912.062	15325
912.176	15477
912.291	15526
912.405	15538
912.519	15656
912.633	15568
912.748	15485
912.862	15458
912.976	15317
913.09	15116
913.204	15275
913.318	15317
913.431	15382
913.545	15424
913.659	15424
913.772	15173
913.886	15157
914	15123
914.113	15226
914.226	15173
914.34	15199
914.453	14948
914.566	15093
914.68	15032
914.793	15032
914.906	14785
915.019	14708
915.132	14621
915.245	14788
915.358	14697
915.47	14739
915.583	14693
915.696	14720
915.809	14746
915.921	14781
916.034	14610
916.146	14568
916.259	14575
916.371	14648
916.483	14689
916.595	14583
916.708	14583
916.82	14598
916.932	14488
917.044	14484
917.156	14415
917.268	14442
917.38	14427
917.491	14320
917.603	14457
917.715	14408
917.826	14461
917.938	14332
918.049	14263
918.161	14328
918.272	14434
918.384	14454
918.495	14278
918.606	14214
918.717	14039
918.828	14077
918.939	14081
919.05	14107
919.161	14172
919.272	13917
919.383	13906
919.494	14161
919.604	14336
919.715	14161
919.826	14096
919.936	14119
920.047	14069
920.157	14096
920.267	14271
920.378	14035
920.488	14050
920.598	14298
920.708	14358
920.818	14278
920.928	14248
921.038	14404
921.148	14305
921.258	14077
921.368	14043
921.477	13852
921.587	13932
921.697	13761
921.806	13860
921.916	13769
922.025	13559
922.134	13605
922.244	13510
922.353	13487
922.462	13350
922.571	13316
922.68	13206
922.789	13160
922.898	13232
923.007	13042
923.116	13091
923.224	13160
923.333	13129
923.442	13038
923.55	13015
923.659	13031
923.767	13080
923.876	12966
923.984	13069
924.092	12817
924.201	12840
924.309	12852
924.417	13000
924.525	12878
924.633	12810
924.741	13582
924.849	12601
924.956	12829
925.064	12589
925.172	12525
925.279	12597
925.387	12642
925.494	12532
925.602	12741
925.709	12654
925.816	12517
925.924	12479
926.031	12688
926.138	12566
926.245	12604
926.352	12521
926.459	12563
926.566	12673
926.673	12426
926.779	12369
926.886	12380
926.993	12277
927.099	12178
927.206	12098
927.312	12129
927.419	12266
927.525	12182
927.631	12045
927.737	12091
927.843	12057
927.95	11790
928.056	11996
928.162	12064
928.267	12106
928.373	12566
928.479	11988
928.585	11874
928.69	11942
928.796	11980
928.901	11828
929.007	11695
929.112	11923
929.218	11859
929.323	11733
929.428	11726
929.533	11824
929.638	11547
929.743	11627
929.848	11714
929.953	11707
930.058	11653
930.163	11383
930.267	11486
930.372	11554
930.477	11436
930.581	11634
930.685	11490
930.79	11345
930.894	11360
930.998	11307
931.103	11421
931.207	11022
931.311	10923
931.415	10938
931.519	10793
931.623	10687
