Data from test_V78500241_3225.txt Node
Date: Fri Mar 25 15:32:19 CST 2022
User: usil
Spectrometer: V785-0024
Trigger mode: 0
Integration Time (sec): 4.000000E-1
Scans to average: 1
Nonlinearity correction enabled: false
Boxcar width: 0
Storing dark spectrum: false
XAxis mode: Wavelengths
Number of Pixels in Spectrum: 1024
>>>>>Begin Spectral Data<<<<<
801.071	27249
801.214	27207
801.356	26944
801.499	26853
801.641	26682
801.783	26796
801.926	26811
802.068	26701
802.211	26663
802.353	26469
802.496	26400
802.638	26465
802.78	26332
802.923	26301
803.065	26324
803.208	26142
803.35	26290
803.492	26419
803.635	26537
803.777	26442
803.919	26453
804.061	26963
804.204	26720
804.346	26476
804.488	26332
804.63	26495
804.773	26469
804.915	26598
805.057	26621
805.199	26473
805.341	26511
805.483	26811
805.626	26549
805.768	26461
805.91	26697
806.052	26537
806.194	26571
806.336	26830
806.478	26545
806.62	26644
806.762	26686
806.904	26765
807.046	27150
807.188	27123
807.33	27047
807.472	27150
807.614	27089
807.756	27070
807.898	26925
808.04	26887
808.182	26712
808.324	26979
808.465	26971
808.607	27104
808.749	27199
808.891	27332
809.033	27378
809.174	27348
809.316	27188
809.458	27093
809.6	27249
809.741	27252
809.883	27363
810.025	27553
810.166	27306
810.308	27466
810.45	27454
810.591	27427
810.733	27252
810.875	27279
811.016	27237
811.158	27081
811.299	27302
811.441	27454
811.582	27393
811.724	27306
811.865	27245
812.007	27100
812.148	27268
812.29	27146
812.431	27306
812.573	27447
812.714	27526
812.855	27667
812.997	27759
813.138	28017
813.279	27819
813.421	27728
813.562	27587
813.703	27591
813.845	27412
813.986	27165
814.127	27066
814.268	26956
814.41	26899
814.551	26948
814.692	26796
814.833	26838
814.974	26796
815.115	26883
815.256	26842
815.397	26693
815.539	26758
815.68	26583
815.821	26727
815.962	26678
816.103	26602
816.244	26507
816.385	26499
816.526	26393
816.666	26191
816.807	26130
816.948	26164
817.089	26339
817.23	26172
817.371	26142
817.512	26039
817.653	25997
817.793	26058
817.934	25989
818.075	26069
818.216	26077
818.356	25970
818.497	25993
818.638	25845
818.778	25902
818.919	25913
819.06	25966
819.2	26119
819.341	26005
819.481	26115
819.622	26248
819.762	26514
819.903	26362
820.043	26431
820.184	26271
820.324	26248
820.465	26347
820.605	26271
820.746	26244
820.886	26073
821.026	26275
821.167	26191
821.307	26195
821.447	26180
821.588	25993
821.728	25841
821.868	25746
822.008	25533
822.149	25662
822.289	25681
822.429	25255
822.569	25312
822.709	25122
822.849	25190
822.99	25046
823.13	25187
823.27	25057
823.41	24932
823.55	24817
823.69	24859
823.83	24890
823.97	24962
824.11	24776
824.25	24654
824.389	24749
824.529	24867
824.669	24741
824.809	24859
824.949	24795
825.089	24772
825.228	24738
825.368	24646
825.508	24589
825.648	24631
825.787	24559
825.927	24783
826.067	24593
826.206	24498
826.346	24772
826.485	24673
826.625	24433
826.765	24715
826.904	24776
827.044	24334
827.183	24471
827.323	24441
827.462	24376
827.601	24369
827.741	24251
827.88	24448
828.02	24129
828.159	24285
828.298	24300
828.437	24532
828.577	24235
828.716	24300
828.855	24254
828.994	24038
829.134	24125
829.273	24171
829.412	24049
829.551	23931
829.69	23901
829.829	24136
829.968	24049
830.107	24144
830.246	24053
830.385	23984
830.524	23931
830.663	23805
830.802	23771
830.941	23707
831.08	23634
831.219	23923
831.357	23703
831.496	23920
831.635	23592
831.774	23608
831.913	23577
832.051	23482
832.19	23391
832.329	23417
832.467	23334
832.606	23364
832.744	23265
832.883	23246
833.022	23277
833.16	23311
833.299	23273
833.437	23383
833.576	23410
833.714	23341
833.852	23471
833.991	23429
834.129	23471
834.267	23516
834.406	23444
834.544	23402
834.682	23486
834.821	23360
834.959	23501
835.097	23220
835.235	23467
835.373	23277
835.511	23341
835.65	23197
835.788	23356
835.926	23037
836.064	23006
836.202	23140
836.34	23200
836.478	23360
836.615	23280
836.753	23250
836.891	23402
837.029	23246
837.167	23121
837.305	23159
837.443	23037
837.58	23113
837.718	23162
837.856	23178
837.993	23056
838.131	23178
838.269	22949
838.406	23109
838.544	22869
838.681	22786
838.819	22805
838.956	22588
839.094	22683
839.231	22649
839.369	22748
839.506	22930
839.643	22843
839.781	22599
839.918	22485
840.055	22474
840.193	22478
840.33	22519
840.467	22603
840.604	22523
840.742	22748
840.879	22459
841.016	22299
841.153	22413
841.29	22588
841.427	22291
841.564	22550
841.701	22542
841.838	22428
841.975	22367
842.112	22455
842.249	22306
842.385	22200
842.522	22478
842.659	22322
842.796	22257
842.933	22207
843.069	22310
843.206	22276
843.343	22299
843.479	22215
843.616	22253
843.752	22131
843.889	22150
844.025	22109
844.162	22002
844.298	22181
844.435	22070
844.571	22002
844.708	22120
844.844	22169
844.98	22097
845.117	22131
845.253	21998
845.389	21922
845.525	21899
845.661	21819
845.798	21823
845.934	21789
846.07	21854
846.206	21686
846.342	21895
846.478	21778
846.614	21629
846.75	21481
846.886	21408
847.022	21534
847.158	21568
847.294	21622
847.429	21564
847.565	21473
847.701	21736
847.837	21275
847.972	21161
848.108	21348
848.244	21351
848.379	21070
848.515	21165
848.65	21131
848.786	21146
848.921	21096
849.057	21173
849.192	21283
849.328	21195
849.463	21009
849.598	21112
849.734	21055
849.869	21017
850.004	20937
850.14	20956
850.275	20933
850.41	20705
850.545	20750
850.68	20845
850.815	20918
850.95	20918
851.085	20960
851.22	20971
851.355	20872
851.49	20750
851.625	20800
851.76	20796
851.895	20887
852.03	20838
852.165	20845
852.299	20952
852.434	20979
852.569	20986
852.703	20861
852.838	20895
852.973	21028
853.107	21017
853.242	20883
853.376	20883
853.511	20712
853.645	20617
853.78	20739
853.914	20754
854.048	20864
854.183	20864
854.317	20651
854.451	20868
854.585	20735
854.72	20674
854.854	20769
854.988	20693
855.122	20762
855.256	20602
855.39	20670
855.524	20811
855.658	20727
855.792	20674
855.926	20785
856.06	20800
856.194	20880
856.327	20758
856.461	20648
856.595	20598
856.729	20712
856.862	20815
856.996	20659
857.13	20838
857.263	20811
857.397	20906
857.53	20712
857.664	20758
857.797	20754
857.931	20807
858.064	20788
858.197	20845
858.331	20708
858.464	20739
858.597	20609
858.731	20689
858.864	20765
858.997	20807
859.13	20743
859.263	20735
859.396	20777
859.529	20826
859.662	20697
859.795	20636
859.928	20735
860.061	20796
860.194	20861
860.327	20823
860.46	20807
860.592	20880
860.725	20891
860.858	20834
860.99	20746
861.123	20590
861.256	20617
861.388	20765
861.521	21233
861.653	20594
861.786	20545
861.918	20495
862.05	20587
862.183	20731
862.315	20651
862.447	20819
862.58	20575
862.712	20480
862.844	20320
862.976	20484
863.108	20492
863.24	20868
863.372	20370
863.504	20450
863.636	20412
863.768	20530
863.9	20484
864.032	20324
864.164	20461
864.296	20370
864.428	20541
864.559	20511
864.691	20465
864.823	20541
864.954	20336
865.086	20446
865.217	20317
865.349	20434
865.48	20400
865.612	20366
865.743	20476
865.875	20415
866.006	20294
866.137	20332
866.269	20256
866.4	20298
866.531	20286
866.662	20267
866.793	20355
866.924	20275
867.055	20343
867.186	20317
867.317	20290
867.448	20191
867.579	20267
867.71	20191
867.841	20229
867.972	20259
868.103	20309
868.233	20355
868.364	20286
868.495	20518
868.625	20613
868.756	20465
868.886	20415
869.017	20598
869.147	20670
869.278	20712
869.408	20579
869.539	20571
869.669	20594
869.799	20644
869.929	20682
870.06	20682
870.19	20868
870.32	20773
870.45	20914
870.58	20952
870.71	21062
870.84	21089
870.97	20960
871.1	20921
871.23	21203
871.36	21085
871.489	21032
871.619	20998
871.749	21260
871.879	21230
872.008	21336
872.138	21051
872.267	21142
872.397	20982
872.526	20880
872.656	20956
872.785	21024
872.915	21207
873.044	21294
873.173	21116
873.303	21192
873.432	21119
873.561	21291
873.69	21230
873.819	21093
873.948	21218
874.077	21367
874.206	21077
874.335	21188
874.464	21195
874.593	21336
874.722	21306
874.851	21393
874.979	21473
875.108	21412
875.237	21351
875.365	21386
875.494	21431
875.623	21477
875.751	21401
875.88	21435
876.008	21496
876.136	21553
876.265	21838
876.393	21918
876.521	21922
876.65	21846
876.778	21876
876.906	21747
877.034	21694
877.162	21663
877.29	21713
877.418	21770
877.546	21808
877.674	21717
877.802	21797
877.93	21823
878.058	21835
878.185	21644
878.313	21717
878.441	21728
878.568	21717
878.696	21675
878.824	21831
878.951	21778
879.079	21937
879.206	22036
879.333	21850
879.461	21835
879.588	21789
879.715	21983
879.842	22013
879.97	21918
880.097	21538
880.224	21504
880.351	21637
880.478	21443
880.605	21595
880.732	21534
880.859	21732
880.986	21530
881.112	21553
881.239	21477
881.366	21447
881.493	21188
881.619	21180
881.746	21237
881.872	21112
881.999	21047
882.125	21211
882.252	21264
882.378	21142
882.505	21272
882.631	20967
882.757	20990
882.883	21009
883.01	20811
883.136	20826
883.262	20819
883.388	20682
883.514	21005
883.64	20891
883.766	20899
883.892	20739
884.018	20644
884.143	20902
884.269	20971
884.395	20526
884.52	20377
884.646	20621
884.772	20396
884.897	20465
885.023	20556
885.148	20648
885.274	20571
885.399	20602
885.524	20560
885.65	20575
885.775	20549
885.9	20469
886.025	20571
886.15	20617
886.275	20454
886.4	20343
886.525	20431
886.65	20476
886.775	20317
886.9	20655
887.025	20754
887.149	20492
887.274	20317
887.399	20309
887.523	20362
887.648	20206
887.773	20244
887.897	20415
888.021	20256
888.146	20252
888.27	20404
888.395	20313
888.519	20347
888.643	20328
888.767	20400
888.891	20164
889.015	20134
889.139	20218
889.263	20142
889.387	20271
889.511	20339
889.635	20153
889.759	20153
889.883	20119
890.006	20161
890.13	20153
890.254	19978
890.377	19989
890.501	19890
890.624	19818
890.748	19871
890.871	19734
890.995	19647
891.118	19647
891.241	19632
891.364	19670
891.488	19860
891.611	19772
891.734	19693
891.857	19738
891.98	19628
892.103	19727
892.226	19666
892.349	19670
892.471	19434
892.594	19594
892.717	19616
892.839	19552
892.962	19628
893.085	19719
893.207	19609
893.33	19434
893.452	19518
893.575	19662
893.697	19700
893.819	19700
893.941	19780
894.064	19765
894.186	19567
894.308	19597
894.43	19704
894.552	19693
894.674	19712
894.796	19537
894.918	19586
895.04	19689
895.161	19693
895.283	19670
895.405	19540
895.526	19529
895.648	19620
895.769	19533
895.891	19605
896.012	19693
896.134	19776
896.255	19635
896.376	19567
896.498	19567
896.619	19556
896.74	19616
896.861	19616
896.982	19868
897.103	20100
897.224	19776
897.345	19784
897.466	19738
897.587	19852
897.708	19921
897.828	19753
897.949	19814
898.07	19712
898.19	19811
898.311	19890
898.431	19750
898.552	19769
898.672	19909
898.792	19849
898.913	19917
899.033	19902
899.153	19518
899.273	19460
899.393	19537
899.513	19658
899.633	19670
899.753	19556
899.873	19453
899.993	19537
900.113	19525
900.232	19449
900.352	19453
900.472	19270
900.591	19358
900.711	19369
900.83	19339
900.95	19350
901.069	19438
901.189	19217
901.308	18996
901.427	18886
901.546	19008
901.665	19012
901.784	18996
901.904	18760
902.023	18760
902.141	18513
902.26	18486
902.379	18509
902.498	18464
902.617	18536
902.735	18502
902.854	18506
902.973	18308
903.091	18060
903.21	18209
903.328	18182
903.446	18079
903.565	17996
903.683	17958
903.801	17836
903.919	18011
904.038	17973
904.156	17741
904.274	17878
904.392	17672
904.51	17748
904.627	17668
904.745	17710
904.863	17779
904.981	17516
905.098	17493
905.216	17414
905.334	17478
905.451	17474
905.569	17254
905.686	17455
905.803	17360
905.921	17151
906.038	17273
906.155	17220
906.272	17155
906.389	17204
906.506	16881
906.623	16946
906.74	16938
906.857	16866
906.974	16843
907.091	17003
907.208	17147
907.324	16972
907.441	16797
907.557	16599
907.674	16672
907.79	16691
907.907	16763
908.023	16687
908.139	16725
908.256	16573
908.372	16546
908.488	16531
908.604	16314
908.72	16436
908.836	16398
908.952	16341
909.068	16447
909.184	16436
909.3	16344
909.415	16348
909.531	16485
909.647	16112
909.762	16112
909.878	16021
909.993	16147
910.108	16048
910.224	16040
910.339	15972
910.454	15960
910.57	15956
910.685	15846
910.8	16036
910.915	16013
911.03	15899
911.145	15660
911.259	15610
911.374	15671
911.489	15648
911.604	15625
911.718	15450
911.833	15458
911.947	15370
912.062	15264
912.176	15488
912.291	15473
912.405	15443
912.519	15622
912.633	15667
912.748	15469
912.862	15504
912.976	15332
913.09	15142
913.204	15287
913.318	15275
913.431	15359
913.545	15344
913.659	15386
913.772	15138
913.886	15047
914	15165
914.113	15207
914.226	15176
914.34	15077
914.453	14994
914.566	15108
914.68	14918
914.793	14891
914.906	14712
915.019	14739
915.132	14621
915.245	14636
915.358	14644
915.47	14678
915.583	14689
915.696	14686
915.809	14792
915.921	14899
916.034	14678
916.146	14583
916.259	14575
916.371	14636
916.483	14644
916.595	14575
916.708	14568
916.82	14583
916.932	14545
917.044	14511
917.156	14434
917.268	14446
917.38	14415
917.491	14374
917.603	14381
917.715	14377
917.826	14476
917.938	14275
918.049	14240
918.161	14233
918.272	14511
918.384	14351
918.495	14317
918.606	14282
918.717	14073
918.828	14218
918.939	14195
919.05	14084
919.161	14096
919.272	13894
919.383	13982
919.494	14183
919.604	14271
919.715	14225
919.826	14058
919.936	14058
920.047	14244
920.157	14130
920.267	14370
920.378	14111
920.488	14107
920.598	14256
920.708	14526
920.818	14286
920.928	14225
921.038	14476
921.148	14362
921.258	14115
921.368	14050
921.477	13883
921.587	13944
921.697	13799
921.806	13871
921.916	13696
922.025	13594
922.134	13518
922.244	13537
922.353	13628
922.462	13388
922.571	13407
922.68	13247
922.789	13179
922.898	13244
923.007	13187
923.116	13225
923.224	13107
923.333	13198
923.442	13000
923.55	12985
923.659	13004
923.767	13110
923.876	12962
923.984	13038
924.092	12935
924.201	12954
924.309	12859
924.417	12924
924.525	12852
924.633	12928
924.741	13738
924.849	12673
924.956	12776
925.064	12719
925.172	12540
925.279	12582
925.387	12612
925.494	12521
925.602	12791
925.709	12772
925.816	12525
925.924	12574
926.031	12620
926.138	12620
926.245	12597
926.352	12475
926.459	12593
926.566	12593
926.673	12532
926.779	12361
926.886	12384
926.993	12289
927.099	12159
927.206	12133
927.312	12091
927.419	12209
927.525	12186
927.631	12209
927.737	12155
927.843	12117
927.95	11965
928.056	12045
928.162	12095
928.267	12030
928.373	12692
928.479	12159
928.585	11908
928.69	12007
928.796	11999
928.901	11893
929.007	11729
929.112	11965
929.218	11878
929.323	11805
929.428	11745
929.533	11843
929.638	11745
929.743	11737
929.848	11760
929.953	11691
930.058	11691
930.163	11452
930.267	11455
930.372	11524
930.477	11395
930.581	11566
930.685	11554
930.79	11280
930.894	11433
930.998	11284
931.103	11417
931.207	11052
931.311	11003
931.415	11010
931.519	10717
931.623	10786
