Data from test_V78500241_1020.txt Node
Date: Fri Mar 25 15:16:57 CST 2022
User: usil
Spectrometer: V785-0024
Trigger mode: 0
Integration Time (sec): 4.000000E-1
Scans to average: 1
Nonlinearity correction enabled: false
Boxcar width: 0
Storing dark spectrum: false
XAxis mode: Wavelengths
Number of Pixels in Spectrum: 1024
>>>>>Begin Spectral Data<<<<<
801.071	28478
801.214	28303
801.356	28082
801.499	28051
801.641	27873
801.783	27907
801.926	28158
802.068	27934
802.211	27774
802.353	27823
802.496	27641
802.638	27694
802.78	27561
802.923	27603
803.065	27500
803.208	27663
803.35	27568
803.492	27781
803.635	27899
803.777	27739
803.919	27994
804.061	28169
804.204	27941
804.346	27785
804.488	27728
804.63	27759
804.773	27698
804.915	27880
805.057	27876
805.199	27880
805.341	27755
805.483	28101
805.626	27972
805.768	27903
805.91	27838
806.052	28013
806.194	27907
806.336	28090
806.478	28055
806.62	28048
806.762	28059
806.904	28158
807.046	28569
807.188	28424
807.33	28519
807.472	28447
807.614	28265
807.756	28550
807.898	28280
808.04	28246
808.182	28029
808.324	28204
808.465	28360
808.607	28592
808.749	28736
808.891	28645
809.033	28790
809.174	28797
809.316	28725
809.458	28622
809.6	28710
809.741	28767
809.883	28759
810.025	28946
810.166	28999
810.308	28888
810.45	28835
810.591	28847
810.733	28782
810.875	28725
811.016	28527
811.158	28622
811.299	28835
811.441	28908
811.582	28809
811.724	28778
811.865	28630
812.007	28725
812.148	28752
812.29	28679
812.431	28805
812.573	29010
812.714	29071
812.855	29227
812.997	29299
813.138	29604
813.279	29372
813.421	29220
813.562	29181
813.703	29075
813.845	29014
813.986	28618
814.127	28641
814.268	28284
814.41	28443
814.551	28451
814.692	28466
814.833	28234
814.974	28401
815.115	28447
815.256	28379
815.397	28230
815.539	28306
815.68	28097
815.821	28086
815.962	28238
816.103	28257
816.244	27914
816.385	27914
816.526	27945
816.666	28006
816.807	27679
816.948	27770
817.089	27857
817.23	27755
817.371	27648
817.512	27800
817.653	27523
817.793	27610
817.934	27751
818.075	27747
818.216	27762
818.356	27682
818.497	27534
818.638	27477
818.778	27302
818.919	27378
819.06	27557
819.2	27591
819.341	27724
819.481	27770
819.622	27895
819.762	28204
819.903	27949
820.043	27975
820.184	27911
820.324	27720
820.465	27892
820.605	27861
820.746	27720
820.886	27720
821.026	27701
821.167	27770
821.307	27846
821.447	27781
821.588	27663
821.728	27641
821.868	27370
822.008	27180
822.149	27207
822.289	27207
822.429	26937
822.569	26967
822.709	26849
822.849	26891
822.99	26826
823.13	26716
823.27	26564
823.41	26575
823.55	26495
823.69	26678
823.83	26659
823.97	26568
824.11	26263
824.25	26317
824.389	26358
824.529	26484
824.669	26412
824.809	26419
824.949	26434
825.089	26442
825.228	26503
825.368	26119
825.508	26199
825.648	26374
825.787	26385
825.927	26495
826.067	26237
826.206	26176
826.346	26309
826.485	26218
826.625	26286
826.765	26461
826.904	26309
827.044	26065
827.183	26043
827.323	25993
827.462	26039
827.601	26020
827.741	25925
827.88	26153
828.02	25830
828.159	25925
828.298	25879
828.437	26062
828.577	26012
828.716	26195
828.855	25894
828.994	25674
829.134	25830
829.273	25780
829.412	25624
829.551	25727
829.69	25727
829.829	25715
829.968	25818
830.107	25742
830.246	25632
830.385	25635
830.524	25677
830.663	25426
830.802	25388
830.941	25331
831.08	25285
831.219	25316
831.357	25381
831.496	25537
831.635	25289
831.774	25400
831.913	25343
832.051	25171
832.19	25107
832.329	25206
832.467	25053
832.606	25000
832.744	24928
832.883	24985
833.022	24909
833.16	24962
833.299	25213
833.437	25042
833.576	25164
833.714	24939
833.852	25202
833.991	25133
834.129	25084
834.267	25088
834.406	25004
834.544	25148
834.682	25008
834.821	25004
834.959	25103
835.097	25164
835.235	25057
835.373	25076
835.511	25046
835.65	24996
835.788	24875
835.926	24757
836.064	24707
836.202	24711
836.34	24882
836.478	24901
836.615	24894
836.753	24958
836.891	24875
837.029	24966
837.167	24920
837.305	24779
837.443	24669
837.58	24753
837.718	24863
837.856	24684
837.993	24722
838.131	24673
838.269	24665
838.406	24661
838.544	24490
838.681	24517
838.819	24365
838.956	24144
839.094	24239
839.231	24213
839.369	24448
839.506	24555
839.643	24433
839.781	24262
839.918	24197
840.055	24209
840.193	24144
840.33	24106
840.467	24190
840.604	24133
840.742	24426
840.879	23969
841.016	24095
841.153	24049
841.29	24171
841.427	24155
841.564	24136
841.701	24110
841.838	23980
841.975	23893
842.112	24072
842.249	23897
842.385	23737
842.522	23999
842.659	23973
842.796	23779
842.933	23901
843.069	23870
843.206	23851
843.343	23866
843.479	23893
843.616	23950
843.752	23680
843.889	23748
844.025	23767
844.162	23642
844.298	23741
844.435	23710
844.571	23592
844.708	23672
844.844	23828
844.98	23710
845.117	23741
845.253	23729
845.389	23497
845.525	23459
845.661	23387
845.798	23322
845.934	23421
846.07	23368
846.206	23356
846.342	23395
846.478	23315
846.614	23109
846.75	23029
846.886	23075
847.022	23159
847.158	23124
847.294	23109
847.429	23067
847.565	22957
847.701	23440
847.837	22911
847.972	22835
848.108	22961
848.244	22790
848.379	22679
848.515	22763
848.65	22717
848.786	22736
848.921	22611
849.057	22729
849.192	22782
849.328	22748
849.463	22759
849.598	22573
849.734	22683
849.869	22615
850.004	22375
850.14	22485
850.275	22432
850.41	22367
850.545	22413
850.68	22352
850.815	22447
850.95	22409
851.085	22565
851.22	22527
851.355	22409
851.49	22314
851.625	22348
851.76	22390
851.895	22367
852.03	22333
852.165	22451
852.299	22462
852.434	22535
852.569	22394
852.703	22519
852.838	22462
852.973	22561
853.107	22588
853.242	22390
853.376	22291
853.511	22177
853.645	22299
853.78	22519
853.914	22322
854.048	22272
854.183	22371
854.317	22284
854.451	22432
854.585	22318
854.72	22120
854.854	22329
854.988	22044
855.122	22265
855.256	22154
855.39	22276
855.524	22234
855.658	22337
855.792	22219
855.926	22382
856.06	22424
856.194	22333
856.327	22219
856.461	22230
856.595	22158
856.729	22242
856.862	22398
856.996	22238
857.13	22303
857.263	22398
857.397	22169
857.53	22242
857.664	22303
857.797	22413
857.931	22341
858.064	22333
858.197	22272
858.331	22226
858.464	22253
858.597	22135
858.731	22276
858.864	22329
858.997	22238
859.13	22249
859.263	22120
859.396	22390
859.529	22333
859.662	22238
859.795	22287
859.928	22215
860.061	22436
860.194	22432
860.327	22310
860.46	22261
860.592	22352
860.725	22440
860.858	22303
860.99	22356
861.123	22135
861.256	22303
861.388	22303
861.521	22839
861.653	22268
861.786	21994
861.918	22112
862.05	22135
862.183	22158
862.315	22097
862.447	22322
862.58	22128
862.712	22051
862.844	21926
862.976	22074
863.108	21956
863.24	22462
863.372	21964
863.504	21869
863.636	21903
863.768	22147
863.9	22006
864.032	21922
864.164	21869
864.296	21930
864.428	22067
864.559	22044
864.691	22086
864.823	22010
864.954	21953
865.086	21880
865.217	21949
865.349	21766
865.48	21732
865.612	21770
865.743	22040
865.875	21865
866.006	21762
866.137	21907
866.269	21793
866.4	21854
866.531	21797
866.662	21720
866.793	21755
866.924	21682
867.055	21759
867.186	21857
867.317	21724
867.448	21652
867.579	21759
867.71	21648
867.841	21724
867.972	21717
868.103	21698
868.233	21747
868.364	21823
868.495	21934
868.625	21941
868.756	22078
868.886	21991
869.017	21975
869.147	22105
869.278	22196
869.408	22067
869.539	22070
869.669	22173
869.799	21922
869.929	22128
870.06	22090
870.19	22291
870.32	22318
870.45	22303
870.58	22424
870.71	22466
870.84	22500
870.97	22367
871.1	22318
871.23	22542
871.36	22550
871.489	22508
871.619	22588
871.749	22603
871.879	22504
872.008	22683
872.138	22672
872.267	22584
872.397	22428
872.526	22402
872.656	22508
872.785	22306
872.915	22592
873.044	22656
873.173	22599
873.303	22698
873.432	22611
873.561	22679
873.69	22694
873.819	22634
873.948	22748
874.077	22584
874.206	22535
874.335	22634
874.464	22706
874.593	22755
874.722	22744
874.851	22736
874.979	22771
875.108	22801
875.237	22736
875.365	22809
875.494	22873
875.623	22885
875.751	22843
875.88	22824
876.008	22976
876.136	23197
876.265	23250
876.393	23318
876.521	23250
876.65	23216
876.778	23159
876.906	23204
877.034	23185
877.162	23113
877.29	23220
877.418	23280
877.546	23212
877.674	23151
877.802	23231
877.93	23216
878.058	23109
878.185	23006
878.313	23178
878.441	23231
878.568	22953
878.696	23056
878.824	23273
878.951	23288
879.079	23364
879.206	23459
879.333	23372
879.461	23124
879.588	23220
879.715	23197
879.842	23311
879.97	23216
880.097	23037
880.224	23102
880.351	22995
880.478	22911
880.605	23022
880.732	23071
880.859	23220
880.986	23067
881.112	22957
881.239	22824
881.366	22763
881.493	22656
881.619	22523
881.746	22622
881.872	22459
881.999	22470
882.125	22424
882.252	22489
882.378	22436
882.505	22493
882.631	22405
882.757	22226
882.883	22291
883.01	22143
883.136	22238
883.262	22120
883.388	22074
883.514	22299
883.64	22185
883.766	22044
883.892	22036
884.018	22036
884.143	22013
884.269	22185
884.395	21876
884.52	21949
884.646	21804
884.772	21774
884.897	21759
885.023	21911
885.148	21960
885.274	22070
885.399	21899
885.524	21907
885.65	21857
885.775	21880
885.9	21720
886.025	22021
886.15	21869
886.275	21953
886.4	21873
886.525	21880
886.65	21576
886.775	21827
886.9	21869
887.025	21964
887.149	21736
887.274	21686
887.399	21679
887.523	21633
887.648	21553
887.773	21401
887.897	21652
888.021	21686
888.146	21599
888.27	21831
888.395	21599
888.519	21736
888.643	21561
888.767	21629
888.891	21637
889.015	21454
889.139	21587
889.263	21420
889.387	21542
889.511	21545
889.635	21515
889.759	21291
889.883	21454
890.006	21450
890.13	21466
890.254	21294
890.377	21313
890.501	21116
890.624	21112
890.748	21230
890.871	21093
890.995	20982
891.118	20982
891.241	20929
891.364	20910
891.488	21192
891.611	20998
891.734	20963
891.857	20937
891.98	21001
892.103	20956
892.226	21081
892.349	20902
892.471	20693
892.594	21017
892.717	20864
892.839	20864
892.962	20811
893.085	20845
893.207	20777
893.33	20792
893.452	20834
893.575	20933
893.697	20823
893.819	21009
893.941	21001
894.064	20994
894.186	20830
894.308	20743
894.43	20826
894.552	20986
894.674	20975
894.796	20853
894.918	20811
895.04	20864
895.161	20902
895.283	20933
895.405	20750
895.526	20815
895.648	20823
895.769	20792
895.891	20849
896.012	20826
896.134	20864
896.255	20792
896.376	20819
896.498	20781
896.619	20785
896.74	20792
896.861	20891
896.982	21207
897.103	21211
897.224	21123
897.345	21028
897.466	21001
897.587	20921
897.708	21154
897.828	21096
897.949	21058
898.07	20864
898.19	21055
898.311	21089
898.431	21036
898.552	21036
898.672	20944
898.792	21043
898.913	20994
899.033	20804
899.153	20811
899.273	20842
899.393	20731
899.513	20819
899.633	20769
899.753	20697
899.873	20609
899.993	20826
900.113	20689
900.232	20823
900.352	20659
900.472	20598
900.591	20492
900.711	20640
900.83	20511
900.95	20640
901.069	20575
901.189	20484
901.308	20183
901.427	20092
901.546	20050
901.665	20039
901.784	20107
901.904	19967
902.023	19902
902.141	19818
902.26	19624
902.379	19635
902.498	19544
902.617	19594
902.735	19635
902.854	19597
902.973	19476
903.091	19274
903.21	19346
903.328	19202
903.446	19308
903.565	18958
903.683	19080
903.801	18905
903.919	19042
904.038	18958
904.156	18821
904.274	18867
904.392	18760
904.51	18821
904.627	18772
904.745	18871
904.863	18798
904.981	18616
905.098	18532
905.216	18479
905.334	18525
905.451	18601
905.569	18361
905.686	18532
905.803	18513
905.921	18357
906.038	18448
906.155	18285
906.272	18182
906.389	18239
906.506	18045
906.623	17942
906.74	18038
906.857	17885
906.974	17901
907.091	18038
907.208	18155
907.324	18163
907.441	17874
907.557	17756
907.674	17901
907.79	17718
907.907	17779
908.023	17760
908.139	17676
908.256	17733
908.372	17684
908.488	17558
908.604	17596
908.72	17372
908.836	17467
908.952	17440
909.068	17330
909.184	17459
909.3	17433
909.415	17452
909.531	17341
909.647	17212
909.762	17159
909.878	17220
909.993	17124
910.108	17086
910.224	17185
910.339	17200
910.454	17029
910.57	17071
910.685	16953
910.8	17174
910.915	17162
911.03	16946
911.145	16725
911.259	16774
911.374	16790
911.489	16603
911.604	16554
911.718	16398
911.833	16516
911.947	16440
912.062	16394
912.176	16443
912.291	16402
912.405	16382
912.519	16592
912.633	16630
912.748	16508
912.862	16455
912.976	16356
913.09	16105
913.204	16268
913.318	16375
913.431	16375
913.545	16310
913.659	16386
913.772	16147
913.886	16173
914	16002
914.113	16162
914.226	16169
914.34	16196
914.453	16013
914.566	16112
914.68	15964
914.793	15884
914.906	15804
915.019	15755
915.132	15732
915.245	15618
915.358	15667
915.47	15770
915.583	15705
915.696	15717
915.809	15701
915.921	15755
916.034	15694
916.146	15610
916.259	15553
916.371	15656
916.483	15690
916.595	15466
916.708	15450
916.82	15481
916.932	15454
917.044	15393
917.156	15458
917.268	15317
917.38	15298
917.491	15192
917.603	15268
917.715	15420
917.826	15359
917.938	15180
918.049	15150
918.161	15226
918.272	15344
918.384	15325
918.495	15332
918.606	15062
918.717	15070
918.828	15097
918.939	15009
919.05	14895
919.161	15028
919.272	14861
919.383	14830
919.494	15097
919.604	15249
919.715	15176
919.826	14864
919.936	14944
920.047	15032
920.157	15077
920.267	15207
920.378	14933
920.488	14941
920.598	15184
920.708	15298
920.818	15222
920.928	15100
921.038	15310
921.148	15332
921.258	14994
921.368	14933
921.477	14754
921.587	14716
921.697	14579
921.806	14842
921.916	14564
922.025	14362
922.134	14400
922.244	14412
922.353	14419
922.462	14218
922.571	14145
922.68	14119
922.789	13955
922.898	13993
923.007	13928
923.116	14107
923.224	13978
923.333	13921
923.442	13856
923.55	13830
923.659	13845
923.767	13864
923.876	13925
923.984	13788
924.092	13776
924.201	13670
924.309	13723
924.417	13788
924.525	13636
924.633	13609
924.741	14587
924.849	13415
924.956	13586
925.064	13426
925.172	13400
925.279	13426
925.387	13365
925.494	13354
925.602	13480
925.709	13491
925.816	13346
925.924	13369
926.031	13388
926.138	13251
926.245	13362
926.352	13266
926.459	13339
926.566	13422
926.673	13187
926.779	13171
926.886	13091
926.993	12966
927.099	12909
927.206	12859
927.312	12905
927.419	12962
927.525	12844
927.631	12886
927.737	12829
927.843	12817
927.95	12589
928.056	12669
928.162	12795
928.267	12772
928.373	13343
928.479	12787
928.585	12582
928.69	12738
928.796	12692
928.901	12658
929.007	12448
929.112	12616
929.218	12517
929.323	12578
929.428	12506
929.533	12646
929.638	12372
929.743	12304
929.848	12475
929.953	12407
930.058	12357
930.163	12144
930.267	12186
930.372	12178
930.477	12034
930.581	12258
930.685	12289
930.79	12022
930.894	11958
930.998	11954
931.103	12133
931.207	11733
931.311	11798
931.415	11623
931.519	11360
931.623	11372
