Data from test_V78500241_52.txt Node
Date: Fri Mar 25 15:10:13 CST 2022
User: usil
Spectrometer: V785-0024
Trigger mode: 0
Integration Time (sec): 4.000000E-1
Scans to average: 1
Nonlinearity correction enabled: false
Boxcar width: 0
Storing dark spectrum: false
XAxis mode: Wavelengths
Number of Pixels in Spectrum: 1024
>>>>>Begin Spectral Data<<<<<
801.071	28873
801.214	28672
801.356	28603
801.499	28466
801.641	28375
801.783	28325
801.926	28459
802.068	28226
802.211	28177
802.353	28147
802.496	28048
802.638	27972
802.78	27918
802.923	27827
803.065	27918
803.208	27819
803.35	27865
803.492	28097
803.635	28055
803.777	27949
803.919	28135
804.061	28394
804.204	28150
804.346	27892
804.488	27888
804.63	28143
804.773	27926
804.915	27975
805.057	28063
805.199	27937
805.341	27918
805.483	28112
805.626	28120
805.768	27964
805.91	28063
806.052	28154
806.194	28090
806.336	28268
806.478	28086
806.62	27922
806.762	28299
806.904	28226
807.046	28451
807.188	28428
807.33	28508
807.472	28455
807.614	28363
807.756	28363
807.898	28181
808.04	28188
808.182	28272
808.324	28268
808.465	28112
808.607	28249
808.749	28489
808.891	28618
809.033	28831
809.174	28641
809.316	28538
809.458	28637
809.6	28607
809.741	28736
809.883	28675
810.025	28748
810.166	28755
810.308	28809
810.45	28767
810.591	28577
810.733	28531
810.875	28611
811.016	28493
811.158	28265
811.299	28508
811.441	28618
811.582	28596
811.724	28584
811.865	28512
812.007	28542
812.148	28500
812.29	28337
812.431	28611
812.573	28831
812.714	28949
812.855	28915
812.997	29181
813.138	29242
813.279	29147
813.421	28984
813.562	29044
813.703	28866
813.845	28641
813.986	28166
814.127	28090
814.268	28112
814.41	28238
814.551	28040
814.692	28131
814.833	27975
814.974	28074
815.115	28021
815.256	27911
815.397	27838
815.539	27854
815.68	27762
815.821	27686
815.962	27827
816.103	27603
816.244	27644
816.385	27679
816.526	27485
816.666	27435
816.807	27184
816.948	27306
817.089	27351
817.23	27458
817.371	27443
817.512	27226
817.653	27245
817.793	27135
817.934	27249
818.075	27249
818.216	27214
818.356	27226
818.497	26937
818.638	26834
818.778	26842
818.919	26872
819.06	26990
819.2	27028
819.341	27020
819.481	27009
819.622	27325
819.762	27268
819.903	27420
820.043	27386
820.184	27252
820.324	27192
820.465	27195
820.605	27249
820.746	27249
820.886	27036
821.026	27112
821.167	27123
821.307	27192
821.447	27150
821.588	27089
821.728	26800
821.868	26705
822.008	26686
822.149	26503
822.289	26461
822.429	26358
822.569	26286
822.709	26290
822.849	26005
822.99	25925
823.13	25978
823.27	26027
823.41	25902
823.55	25742
823.69	25852
823.83	25845
823.97	25761
824.11	25533
824.25	25464
824.389	25453
824.529	25578
824.669	25552
824.809	25674
824.949	25685
825.089	25635
825.228	25578
825.368	25422
825.508	25358
825.648	25407
825.787	25415
825.927	25320
826.067	25308
826.206	25384
826.346	25438
826.485	25419
826.625	25377
826.765	25407
826.904	25396
827.044	25080
827.183	25122
827.323	25069
827.462	25091
827.601	25008
827.741	24962
827.88	25034
828.02	24745
828.159	24962
828.298	25015
828.437	25034
828.577	25027
828.716	25179
828.855	24951
828.994	24867
829.134	24772
829.273	24646
829.412	24646
829.551	24612
829.69	24623
829.829	24616
829.968	24757
830.107	24783
830.246	24692
830.385	24681
830.524	24559
830.663	24422
830.802	24350
830.941	24178
831.08	24079
831.219	24258
831.357	24319
831.496	24486
831.635	24235
831.774	24213
831.913	24110
832.051	24072
832.19	23973
832.329	24011
832.467	23828
832.606	23935
832.744	23802
832.883	23977
833.022	23752
833.16	23783
833.299	23973
833.437	23904
833.576	23676
833.714	23920
833.852	24053
833.991	23882
834.129	24018
834.267	23992
834.406	23942
834.544	24034
834.682	23828
834.821	23916
834.959	23973
835.097	23828
835.235	23908
835.373	23870
835.511	23752
835.65	23729
835.788	23680
835.926	23558
836.064	23436
836.202	23524
836.34	23649
836.478	23745
836.615	23703
836.753	23649
836.891	23817
837.029	23813
837.167	23600
837.305	23623
837.443	23619
837.58	23436
837.718	23619
837.856	23547
837.993	23322
838.131	23573
838.269	23417
838.406	23452
838.544	23360
838.681	23067
838.819	23086
838.956	22987
839.094	22923
839.231	23037
839.369	23098
839.506	23524
839.643	23178
839.781	22869
839.918	22805
840.055	22934
840.193	22828
840.33	22637
840.467	22797
840.604	22911
840.742	23109
840.879	22664
841.016	22656
841.153	22721
841.29	22847
841.427	22771
841.564	22911
841.701	22889
841.838	22733
841.975	22664
842.112	22691
842.249	22588
842.385	22592
842.522	22698
842.659	22622
842.796	22603
842.933	22462
843.069	22474
843.206	22481
843.343	22630
843.479	22451
843.616	22569
843.752	22265
843.889	22207
844.025	22489
844.162	22261
844.298	22390
844.435	22234
844.571	22074
844.708	22207
844.844	22405
844.98	22341
845.117	22318
845.253	22150
845.389	22070
845.525	22135
845.661	22002
845.798	22002
845.934	22074
846.07	21846
846.206	21930
846.342	21975
846.478	21972
846.614	21679
846.75	21660
846.886	21603
847.022	21823
847.158	21679
847.294	21694
847.429	21610
847.565	21739
847.701	21911
847.837	21435
847.972	21462
848.108	21454
848.244	21431
848.379	21321
848.515	21279
848.65	21188
848.786	21256
848.921	21214
849.057	21416
849.192	21511
849.328	21302
849.463	21241
849.598	21116
849.734	21058
849.869	21036
850.004	21005
850.14	21055
850.275	20982
850.41	20899
850.545	20796
850.68	21020
850.815	20864
850.95	20868
851.085	21104
851.22	20956
851.355	20925
851.49	20941
851.625	20876
851.76	20918
851.895	20823
852.03	20853
852.165	20845
852.299	20933
852.434	21051
852.569	21039
852.703	20906
852.838	21005
852.973	21070
853.107	21017
853.242	20849
853.376	20849
853.511	20552
853.645	20640
853.78	20982
853.914	20720
854.048	20682
854.183	20667
854.317	20815
854.451	21017
854.585	20754
854.72	20819
854.854	20792
854.988	20629
855.122	20800
855.256	20568
855.39	20640
855.524	20785
855.658	20743
855.792	20765
855.926	20785
856.06	20762
856.194	20842
856.327	20708
856.461	20739
856.595	20636
856.729	20659
856.862	20838
856.996	20739
857.13	20750
857.263	20670
857.397	20781
857.53	20708
857.664	20807
857.797	20773
857.931	20705
858.064	20644
858.197	20921
858.331	20629
858.464	20682
858.597	20465
858.731	20651
858.864	20648
858.997	20629
859.13	20640
859.263	20629
859.396	20849
859.529	20701
859.662	20655
859.795	20613
859.928	20689
860.061	20830
860.194	20796
860.327	20735
860.46	20587
860.592	20674
860.725	20765
860.858	20682
860.99	20731
861.123	20537
861.256	20503
861.388	20590
861.521	21081
861.653	20469
861.786	20476
861.918	20469
862.05	20606
862.183	20609
862.315	20537
862.447	20693
862.58	20682
862.712	20347
862.844	20393
862.976	20339
863.108	20457
863.24	20910
863.372	20324
863.504	20294
863.636	20298
863.768	20385
863.9	20370
864.032	20328
864.164	20347
864.296	20427
864.428	20442
864.559	20362
864.691	20408
864.823	20275
864.954	20324
865.086	20282
865.217	20256
865.349	20149
865.48	20332
865.612	20206
865.743	20370
865.875	20244
866.006	20138
866.137	20259
866.269	20229
866.4	20183
866.531	20153
866.662	20126
866.793	20073
866.924	20244
867.055	20225
867.186	20126
867.317	20126
867.448	19970
867.579	20145
867.71	20069
867.841	20103
867.972	20168
868.103	20142
868.233	20096
868.364	20157
868.495	20195
868.625	20313
868.756	20526
868.886	20298
869.017	20385
869.147	20549
869.278	20499
869.408	20377
869.539	20461
869.669	20286
869.799	20434
869.929	20469
870.06	20549
870.19	20613
870.32	20636
870.45	20682
870.58	20845
870.71	20899
870.84	20880
870.97	20727
871.1	20746
871.23	21001
871.36	21009
871.489	20743
871.619	20963
871.749	20956
871.879	20982
872.008	21047
872.138	20944
872.267	21009
872.397	20963
872.526	20769
872.656	20739
872.785	20754
872.915	21001
873.044	21108
873.173	21009
873.303	21100
873.432	21036
873.561	21176
873.69	21032
873.819	20948
873.948	21047
874.077	21051
874.206	20929
874.335	20960
874.464	21009
874.593	21211
874.722	21199
874.851	21317
874.979	21355
875.108	21245
875.237	21287
875.365	21108
875.494	21348
875.623	21317
875.751	21218
875.88	21298
876.008	21367
876.136	21351
876.265	21614
876.393	21686
876.521	21762
876.65	21762
876.778	21781
876.906	21530
877.034	21599
877.162	21538
877.29	21519
877.418	21504
877.546	21618
877.674	21504
877.802	21538
877.93	21682
878.058	21496
878.185	21412
878.313	21523
878.441	21587
878.568	21454
878.696	21671
878.824	21583
878.951	21660
879.079	21724
879.206	21823
879.333	21762
879.461	21545
879.588	21789
879.715	21846
879.842	21873
879.97	21690
880.097	21325
880.224	21416
880.351	21447
880.478	21458
880.605	21420
880.732	21447
880.859	21671
880.986	21363
881.112	21454
881.239	21351
881.366	21279
881.493	21100
881.619	20963
881.746	21047
881.872	20982
881.999	20982
882.125	21005
882.252	21108
882.378	20982
882.505	21119
882.631	20952
882.757	20796
882.883	20948
883.01	20811
883.136	20800
883.262	20663
883.388	20541
883.514	20750
883.64	20777
883.766	20735
883.892	20495
884.018	20731
884.143	20670
884.269	20845
884.395	20503
884.52	20438
884.646	20385
884.772	20210
884.897	20343
885.023	20446
885.148	20419
885.274	20571
885.399	20434
885.524	20343
885.65	20423
885.775	20358
885.9	20381
886.025	20606
886.15	20362
886.275	20218
886.4	20336
886.525	20256
886.65	20244
886.775	20339
886.9	20454
887.025	20537
887.149	20244
887.274	20157
887.399	20122
887.523	20145
887.648	20126
887.773	20046
887.897	20286
888.021	20077
888.146	20161
888.27	20191
888.395	20157
888.519	20119
888.643	20149
888.767	20202
888.891	20107
889.015	19909
889.139	19951
889.263	19959
889.387	20046
889.511	20100
889.635	20031
889.759	19909
889.883	19833
890.006	19967
890.13	19955
890.254	19750
890.377	19849
890.501	19734
890.624	19662
890.748	19624
890.871	19575
890.995	19449
891.118	19343
891.241	19548
891.364	19582
891.488	19575
891.611	19499
891.734	19495
891.857	19556
891.98	19457
892.103	19521
892.226	19487
892.349	19426
892.471	19293
892.594	19453
892.717	19430
892.839	19403
892.962	19533
893.085	19476
893.207	19411
893.33	19247
893.452	19293
893.575	19499
893.697	19419
893.819	19601
893.941	19651
894.064	19533
894.186	19362
894.308	19365
894.43	19544
894.552	19666
894.674	19491
894.796	19327
894.918	19537
895.04	19499
895.161	19594
895.283	19449
895.405	19422
895.526	19377
895.648	19369
895.769	19460
895.891	19377
896.012	19457
896.134	19533
896.255	19449
896.376	19476
896.498	19567
896.619	19499
896.74	19438
896.861	19605
896.982	19849
897.103	19970
897.224	19734
897.345	19731
897.466	19628
897.587	19674
897.708	19807
897.828	19731
897.949	19670
898.07	19571
898.19	19605
898.311	19753
898.431	19601
898.552	19571
898.672	19723
898.792	19719
898.913	19658
899.033	19563
899.153	19480
899.273	19350
899.393	19384
899.513	19320
899.633	19343
899.753	19362
899.873	19304
899.993	19320
900.113	19312
900.232	19381
900.352	19259
900.472	19179
900.591	19110
900.711	19107
900.83	19095
900.95	19308
901.069	19339
901.189	19198
901.308	18844
901.427	18810
901.546	18859
901.665	18844
901.784	18791
901.904	18623
902.023	18407
902.141	18403
902.26	18270
902.379	18380
902.498	18273
902.617	18171
902.735	18224
902.854	18205
902.973	18292
903.091	18003
903.21	17836
903.328	17912
903.446	17828
903.565	17786
903.683	17748
903.801	17680
903.919	17691
904.038	17779
904.156	17535
904.274	17703
904.392	17490
904.51	17638
904.627	17558
904.745	17570
904.863	17539
904.981	17387
905.098	17181
905.216	17121
905.334	17208
905.451	17208
905.569	17140
905.686	17121
905.803	17128
905.921	17033
906.038	17022
906.155	17086
906.272	16911
906.389	16968
906.506	16675
906.623	16752
906.74	16744
906.857	16637
906.974	16641
907.091	16713
907.208	16740
907.324	16698
907.441	16660
907.557	16462
907.674	16447
907.79	16428
907.907	16375
908.023	16379
908.139	16325
908.256	16276
908.372	16242
908.488	16257
908.604	16116
908.72	16124
908.836	15953
908.952	16177
909.068	16120
909.184	16131
909.3	16090
909.415	16154
909.531	16093
909.647	15751
909.762	15850
909.878	15766
909.993	15739
910.108	15747
910.224	15785
910.339	15816
910.454	15614
910.57	15584
910.685	15542
910.8	15987
910.915	15717
911.03	15519
911.145	15405
911.259	15287
911.374	15374
911.489	15321
911.604	15260
911.718	15154
911.833	15165
911.947	15017
912.062	14895
912.176	15032
912.291	15142
912.405	15024
912.519	15264
912.633	15287
912.748	15192
912.862	15081
912.976	14967
913.09	14777
913.204	14849
913.318	14883
913.431	15093
913.545	14982
913.659	15009
913.772	14887
913.886	14750
914	14777
914.113	14781
914.226	14895
914.34	14777
914.453	14659
914.566	14800
914.68	14651
914.793	14602
914.906	14438
915.019	14328
915.132	14404
915.245	14457
915.358	14404
915.47	14400
915.583	14465
915.696	14457
915.809	14434
915.921	14522
916.034	14252
916.146	14298
916.259	14328
916.371	14404
916.483	14351
916.595	14126
916.708	14176
916.82	14305
916.932	14202
917.044	14145
917.156	14153
917.268	14035
917.38	14126
917.491	14134
917.603	14081
917.715	14084
917.826	14069
917.938	14001
918.049	13989
918.161	14039
918.272	14187
918.384	14096
918.495	14024
918.606	13982
918.717	13757
918.828	13791
918.939	13799
919.05	13601
919.161	13784
919.272	13647
919.383	13658
919.494	13932
919.604	14005
919.715	13784
919.826	13685
919.936	13746
920.047	13795
920.157	13818
920.267	13955
920.378	13727
920.488	13784
920.598	13978
920.708	14092
920.818	13974
920.928	13860
921.038	14012
921.148	14058
921.258	13750
921.368	13586
921.477	13575
921.587	13506
921.697	13335
921.806	13514
921.916	13388
922.025	13274
922.134	13232
922.244	13107
922.353	13190
922.462	13072
922.571	12989
922.68	12768
922.789	12787
922.898	12802
923.007	12741
923.116	12806
923.224	12768
923.333	12722
923.442	12620
923.55	12623
923.659	12547
923.767	12696
923.876	12612
923.984	12635
924.092	12551
924.201	12498
924.309	12486
924.417	12559
924.525	12486
924.633	12517
924.741	13232
924.849	12262
924.956	12365
925.064	12247
925.172	12159
925.279	12258
925.387	12311
925.494	12254
925.602	12422
925.709	12277
925.816	12095
925.924	12178
926.031	12319
926.138	12194
926.245	12270
926.352	12125
926.459	12319
926.566	12270
926.673	12136
926.779	12064
926.886	11996
926.993	11920
927.099	11847
927.206	11794
927.312	11786
927.419	11832
927.525	11840
927.631	11836
927.737	11764
927.843	11710
927.95	11611
928.056	11745
928.162	11672
928.267	11710
928.373	12448
928.479	11840
928.585	11573
928.69	11691
928.796	11684
928.901	11505
929.007	11410
929.112	11490
929.218	11566
929.323	11372
929.428	11353
929.533	11573
929.638	11364
929.743	11326
929.848	11402
929.953	11360
930.058	11303
930.163	11105
930.267	11109
930.372	11303
930.477	11102
930.581	11280
930.685	11208
930.79	10999
930.894	11064
930.998	10942
931.103	11128
931.207	10717
931.311	10683
931.415	10622
931.519	10367
931.623	10356
