Data from test_V78500241_2967.txt Node
Date: Fri Mar 25 15:30:31 CST 2022
User: usil
Spectrometer: V785-0024
Trigger mode: 0
Integration Time (sec): 4.000000E-1
Scans to average: 1
Nonlinearity correction enabled: false
Boxcar width: 0
Storing dark spectrum: false
XAxis mode: Wavelengths
Number of Pixels in Spectrum: 1024
>>>>>Begin Spectral Data<<<<<
801.071	26883
801.214	27009
801.356	26659
801.499	26579
801.641	26248
801.783	26415
801.926	26423
802.068	26282
802.211	26252
802.353	26476
802.496	26111
802.638	26100
802.78	26081
802.923	25947
803.065	25807
803.208	26024
803.35	25932
803.492	26084
803.635	26278
803.777	25951
803.919	26157
804.061	26385
804.204	26210
804.346	26065
804.488	25909
804.63	26172
804.773	26065
804.915	26149
805.057	26286
805.199	26122
805.341	26252
805.483	26320
805.626	26370
805.768	26168
805.91	26286
806.052	26199
806.194	26351
806.336	26423
806.478	26180
806.62	26240
806.762	26244
806.904	26423
807.046	26819
807.188	26743
807.33	26621
807.472	26754
807.614	26621
807.756	26648
807.898	26537
808.04	26442
808.182	26385
808.324	26446
808.465	26655
808.607	26609
808.749	26830
808.891	26921
809.033	27017
809.174	27032
809.316	26880
809.458	26849
809.6	26754
809.741	26971
809.883	27051
810.025	27051
810.166	27116
810.308	27123
810.45	27127
810.591	27005
810.733	26777
810.875	26815
811.016	26773
811.158	26785
811.299	27017
811.441	26990
811.582	26906
811.724	26861
811.865	26762
812.007	26819
812.148	26857
812.29	26796
812.431	27100
812.573	26963
812.714	27252
812.855	27321
812.997	27367
813.138	27603
813.279	27443
813.421	27340
813.562	27142
813.703	27013
813.845	26937
813.986	26686
814.127	26564
814.268	26560
814.41	26438
814.551	26530
814.692	26499
814.833	26514
814.974	26423
815.115	26457
815.256	26396
815.397	26381
815.539	26362
815.68	26355
815.821	26187
815.962	26259
816.103	26221
816.244	26149
816.385	26043
816.526	26016
816.666	25696
816.807	25746
816.948	25795
817.089	25906
817.23	25643
817.371	25628
817.512	25712
817.653	25738
817.793	25571
817.934	25753
818.075	25738
818.216	25597
818.356	25655
818.497	25582
818.638	25430
818.778	25457
818.919	25472
819.06	25594
819.2	25533
819.341	25685
819.481	25708
819.622	25849
819.762	25989
819.903	26005
820.043	25936
820.184	25799
820.324	25864
820.465	25849
820.605	25731
820.746	25788
820.886	25567
821.026	25715
821.167	25674
821.307	25776
821.447	25719
821.588	25567
821.728	25354
821.868	25430
822.008	25175
822.149	25141
822.289	25141
822.429	24878
822.569	24966
822.709	24833
822.849	24753
822.99	24768
823.13	24707
823.27	24627
823.41	24467
823.55	24471
823.69	24547
823.83	24407
823.97	24353
824.11	24232
824.25	24228
824.389	24353
824.529	24247
824.669	24285
824.809	24410
824.949	24380
825.089	24399
825.228	24365
825.368	24136
825.508	24194
825.648	24098
825.787	24167
825.927	24171
826.067	24159
826.206	24178
826.346	24178
826.485	24209
826.625	24220
826.765	24235
826.904	24254
827.044	23920
827.183	23843
827.323	23935
827.462	23885
827.601	23840
827.741	23874
827.88	23878
828.02	23661
828.159	23741
828.298	23901
828.437	23942
828.577	23779
828.716	23931
828.855	23714
828.994	23596
829.134	23577
829.273	23649
829.412	23516
829.551	23520
829.69	23547
829.829	23562
829.968	23657
830.107	23699
830.246	23581
830.385	23516
830.524	23406
830.663	23440
830.802	23334
830.941	23220
831.08	23083
831.219	23136
831.357	23235
831.496	23387
831.635	23166
831.774	23067
831.913	22946
832.051	22885
832.19	22885
832.329	22934
832.467	22850
832.606	22793
832.744	22824
832.883	22850
833.022	22801
833.16	22816
833.299	22797
833.437	22820
833.576	22953
833.714	22782
833.852	22908
833.991	23041
834.129	22953
834.267	22778
834.406	22843
834.544	22980
834.682	22831
834.821	22900
834.959	23086
835.097	22752
835.235	22869
835.373	22831
835.511	22782
835.65	22683
835.788	22740
835.926	22653
836.064	22630
836.202	22618
836.34	22713
836.478	22744
836.615	22683
836.753	22759
836.891	22831
837.029	22767
837.167	22694
837.305	22603
837.443	22592
837.58	22679
837.718	22592
837.856	22649
837.993	22497
838.131	22512
838.269	22436
838.406	22322
838.544	22394
838.681	22226
838.819	22257
838.956	21964
839.094	21983
839.231	22166
839.369	22310
839.506	22470
839.643	22318
839.781	22086
839.918	21941
840.055	21998
840.193	21911
840.33	22067
840.467	21861
840.604	22109
840.742	22185
840.879	21835
841.016	21964
841.153	21819
841.29	22177
841.427	22040
841.564	21987
841.701	21972
841.838	21873
841.975	21808
842.112	21876
842.249	21781
842.385	21827
842.522	21964
842.659	21915
842.796	21732
842.933	21812
843.069	21686
843.206	21698
843.343	21694
843.479	21660
843.616	21812
843.752	21504
843.889	21462
844.025	21629
844.162	21515
844.298	21564
844.435	21496
844.571	21511
844.708	21523
844.844	21720
844.98	21625
845.117	21701
845.253	21603
845.389	21359
845.525	21329
845.661	21405
845.798	21241
845.934	21150
846.07	21135
846.206	21199
846.342	21355
846.478	21150
846.614	20998
846.75	20963
846.886	21005
847.022	20971
847.158	21001
847.294	21043
847.429	21077
847.565	21085
847.701	21192
847.837	20765
847.972	20727
848.108	20792
848.244	20781
848.379	20636
848.515	20621
848.65	20587
848.786	20594
848.921	20625
849.057	20583
849.192	20701
849.328	20564
849.463	20541
849.598	20659
849.734	20476
849.869	20480
850.004	20393
850.14	20438
850.275	20370
850.41	20320
850.545	20317
850.68	20393
850.815	20305
850.95	20317
851.085	20454
851.22	20351
851.355	20362
851.49	20278
851.625	20347
851.76	20240
851.895	20328
852.03	20240
852.165	20374
852.299	20431
852.434	20400
852.569	20389
852.703	20347
852.838	20507
852.973	20492
853.107	20552
853.242	20248
853.376	20233
853.511	20012
853.645	20122
853.78	20393
853.914	20237
854.048	20176
854.183	20191
854.317	20237
854.451	20374
854.585	20183
854.72	20122
854.854	20164
854.988	20100
855.122	20195
855.256	20103
855.39	20206
855.524	20248
855.658	20164
855.792	20164
855.926	20206
856.06	20142
856.194	20244
856.327	20062
856.461	20115
856.595	20115
856.729	20111
856.862	20225
856.996	20248
857.13	20187
857.263	20385
857.397	20191
857.53	20172
857.664	20115
857.797	20157
857.931	20278
858.064	20077
858.197	20351
858.331	20100
858.464	20168
858.597	20062
858.731	20103
858.864	20103
858.997	20100
859.13	20130
859.263	20142
859.396	20313
859.529	20168
859.662	20065
859.795	20058
859.928	20111
860.061	20271
860.194	20374
860.327	20267
860.46	20183
860.592	20294
860.725	20267
860.858	20233
860.99	20199
861.123	20088
861.256	20195
861.388	20050
861.521	20750
861.653	20088
861.786	20084
861.918	19970
862.05	19993
862.183	20043
862.315	20164
862.447	20161
862.58	20020
862.712	19875
862.844	19868
862.976	20046
863.108	19917
863.24	20290
863.372	19784
863.504	19852
863.636	19852
863.768	20001
863.9	19921
864.032	19799
864.164	19875
864.296	19894
864.428	20046
864.559	19978
864.691	19967
864.823	19917
864.954	19875
865.086	19967
865.217	19852
865.349	19632
865.48	19761
865.612	19811
865.743	19909
865.875	19894
866.006	19689
866.137	19788
866.269	19879
866.4	19712
866.531	19761
866.662	19757
866.793	19727
866.924	19666
867.055	19791
867.186	19868
867.317	19811
867.448	19685
867.579	19769
867.71	19689
867.841	19655
867.972	19772
868.103	19772
868.233	19734
868.364	19704
868.495	19826
868.625	19925
868.756	20046
868.886	19936
869.017	19997
869.147	20077
869.278	20115
869.408	19898
869.539	19986
869.669	20157
869.799	20092
869.929	20054
870.06	20138
870.19	20320
870.32	20206
870.45	20339
870.58	20377
870.71	20408
870.84	20507
870.97	20362
871.1	20381
871.23	20590
871.36	20697
871.489	20423
871.619	20499
871.749	20526
871.879	20613
872.008	20667
872.138	20625
872.267	20640
872.397	20545
872.526	20374
872.656	20526
872.785	20408
872.915	20526
873.044	20621
873.173	20632
873.303	20674
873.432	20621
873.561	20750
873.69	20674
873.819	20495
873.948	20659
874.077	20689
874.206	20518
874.335	20587
874.464	20560
874.593	20750
874.722	20849
874.851	20960
874.979	20872
875.108	20933
875.237	20849
875.365	20815
875.494	20849
875.623	20925
875.751	20792
875.88	20876
876.008	21096
876.136	20952
876.265	21294
876.393	21393
876.521	21279
876.65	21298
876.778	21332
876.906	21260
877.034	21195
877.162	21207
877.29	21119
877.418	21287
877.546	21226
877.674	21218
877.802	21131
877.93	21138
878.058	21169
878.185	21005
878.313	21077
878.441	21256
878.568	20925
878.696	21199
878.824	21218
878.951	21256
879.079	21344
879.206	21492
879.333	21256
879.461	21264
879.588	21325
879.715	21351
879.842	21389
879.97	21317
880.097	21036
880.224	21020
880.351	21070
880.478	21055
880.605	20975
880.732	21093
880.859	21272
880.986	21066
881.112	21096
881.239	20868
881.366	20754
881.493	20667
881.619	20651
881.746	20781
881.872	20606
881.999	20583
882.125	20556
882.252	20667
882.378	20705
882.505	20705
882.631	20389
882.757	20377
882.883	20419
883.01	20282
883.136	20267
883.262	20267
883.388	20244
883.514	20267
883.64	20389
883.766	20248
883.892	20161
884.018	20237
884.143	20267
884.269	20343
884.395	20084
884.52	19955
884.646	20069
884.772	19970
884.897	19917
885.023	19993
885.148	20054
885.274	20122
885.399	20081
885.524	19928
885.65	19989
885.775	20039
885.9	19921
886.025	20107
886.15	20069
886.275	19963
886.4	19917
886.525	19978
886.65	20016
886.775	19879
886.9	20073
887.025	20195
887.149	20035
887.274	19780
887.399	19731
887.523	19879
887.648	19651
887.773	19719
887.897	19826
888.021	19753
888.146	19723
888.27	19833
888.395	19818
888.519	19772
888.643	19841
888.767	19871
888.891	19647
889.015	19533
889.139	19655
889.263	19594
889.387	19727
889.511	19788
889.635	19811
889.759	19460
889.883	19544
890.006	19620
890.13	19734
890.254	19377
890.377	19491
890.501	19377
890.624	19438
890.748	19434
890.871	19160
890.995	19145
891.118	19141
891.241	19137
891.364	19228
891.488	19259
891.611	19228
891.734	19168
891.857	19156
891.98	19179
892.103	19354
892.226	19145
892.349	19095
892.471	18932
892.594	19084
892.717	19187
892.839	19038
892.962	19198
893.085	19202
893.207	19061
893.33	18958
893.452	19050
893.575	19091
893.697	19050
893.819	19213
893.941	19293
894.064	19316
894.186	19084
894.308	19072
894.43	19141
894.552	19358
894.674	19145
894.796	18989
894.918	19148
895.04	18981
895.161	19137
895.283	19129
895.405	19038
895.526	19103
895.648	19126
895.769	19114
895.891	19145
896.012	19148
896.134	19225
896.255	19095
896.376	19236
896.498	19099
896.619	19175
896.74	19084
896.861	19148
896.982	19419
897.103	19556
897.224	19396
897.345	19369
897.466	19304
897.587	19331
897.708	19460
897.828	19297
897.949	19320
898.07	19255
898.19	19190
898.311	19480
898.431	19331
898.552	19335
898.672	19411
898.792	19487
898.913	19331
899.033	19266
899.153	19198
899.273	19103
899.393	19107
899.513	19126
899.633	19107
899.753	19126
899.873	19042
899.993	19137
900.113	19194
900.232	19179
900.352	19072
900.472	19076
900.591	18833
900.711	19084
900.83	18810
900.95	19095
901.069	19095
901.189	18753
901.308	18566
901.427	18456
901.546	18525
901.665	18585
901.784	18574
901.904	18426
902.023	18247
902.141	18220
902.26	18057
902.379	18152
902.498	18136
902.617	17977
902.735	18053
902.854	17961
902.973	17931
903.091	17794
903.21	17680
903.328	17737
903.446	17684
903.565	17543
903.683	17512
903.801	17478
903.919	17463
904.038	17402
904.156	17216
904.274	17349
904.392	17277
904.51	17337
904.627	17265
904.745	17296
904.863	17364
904.981	17109
905.098	17048
905.216	16995
905.334	17014
905.451	17003
905.569	16972
905.686	17029
905.803	16995
905.921	16797
906.038	16843
906.155	16793
906.272	16634
906.389	16702
906.506	16588
906.623	16512
906.74	16630
906.857	16493
906.974	16523
907.091	16519
907.208	16645
907.324	16538
907.441	16386
907.557	16306
907.674	16143
907.79	16188
907.907	16230
908.023	16291
908.139	16249
908.256	16135
908.372	16169
908.488	16177
908.604	15907
908.72	15930
908.836	15953
908.952	15987
909.068	15949
909.184	16154
909.3	15899
909.415	15991
909.531	16048
909.647	15739
909.762	15705
909.878	15694
909.993	15736
910.108	15534
910.224	15606
910.339	15637
910.454	15648
910.57	15568
910.685	15473
910.8	15732
910.915	15701
911.03	15523
911.145	15332
911.259	15389
911.374	15241
911.489	15256
911.604	15218
911.718	15032
911.833	15077
911.947	14952
912.062	14925
912.176	15085
912.291	15055
912.405	15028
912.519	15275
912.633	15291
912.748	15085
912.862	14963
912.976	14902
913.09	14716
913.204	14845
913.318	14853
913.431	14990
913.545	14925
913.659	15001
913.772	14750
913.886	14663
914	14629
914.113	14796
914.226	14838
914.34	14819
914.453	14533
914.566	14705
914.68	14545
914.793	14533
914.906	14377
915.019	14317
915.132	14336
915.245	14275
915.358	14282
915.47	14290
915.583	14324
915.696	14263
915.809	14480
915.921	14431
916.034	14240
916.146	14328
916.259	14202
916.371	14309
916.483	14294
916.595	14210
916.708	14157
916.82	14210
916.932	14088
917.044	14134
917.156	14092
917.268	13970
917.38	13997
917.491	13917
917.603	14077
917.715	14031
917.826	14103
917.938	13883
918.049	13913
918.161	13970
918.272	14126
918.384	14069
918.495	13974
918.606	13841
918.717	13742
918.828	13791
918.939	13788
919.05	13746
919.161	13837
919.272	13636
919.383	13620
919.494	13818
919.604	13986
919.715	13753
919.826	13674
919.936	13746
920.047	13833
920.157	13750
920.267	13868
920.378	13837
920.488	13704
920.598	13944
920.708	14107
920.818	13814
920.928	13967
921.038	14050
921.148	14016
921.258	13647
921.368	13677
921.477	13491
921.587	13521
921.697	13400
921.806	13525
921.916	13350
922.025	13168
922.134	13183
922.244	13137
922.353	13171
922.462	13061
922.571	12993
922.68	12810
922.789	12802
922.898	12825
923.007	12707
923.116	12844
923.224	12779
923.333	12821
923.442	12681
923.55	12612
923.659	12764
923.767	12722
923.876	12639
923.984	12593
924.092	12574
924.201	12547
924.309	12528
924.417	12734
924.525	12559
924.633	12448
924.741	13282
924.849	12346
924.956	12521
925.064	12285
925.172	12163
925.279	12270
925.387	12292
925.494	12285
925.602	12448
925.709	12334
925.816	12251
925.924	12247
926.031	12300
926.138	12205
926.245	12308
926.352	12152
926.459	12232
926.566	12407
926.673	12152
926.779	12049
926.886	12106
926.993	11916
927.099	11824
927.206	11813
927.312	11741
927.419	11893
927.525	11859
927.631	11916
927.737	11714
927.843	11668
927.95	11619
928.056	11710
928.162	11737
928.267	11805
928.373	12452
928.479	11767
928.585	11611
928.69	11623
928.796	11699
928.901	11611
929.007	11440
929.112	11558
929.218	11543
929.323	11414
929.428	11471
929.533	11501
929.638	11425
929.743	11334
929.848	11474
929.953	11376
930.058	11315
930.163	11170
930.267	11083
930.372	11277
930.477	11151
930.581	11368
930.685	11216
930.79	11113
930.894	11003
930.998	11102
931.103	11159
931.207	10759
931.311	10790
931.415	10649
931.519	10470
931.623	10375
