Data from test_V78500241_957.txt Node
Date: Fri Mar 25 15:16:31 CST 2022
User: usil
Spectrometer: V785-0024
Trigger mode: 0
Integration Time (sec): 4.000000E-1
Scans to average: 1
Nonlinearity correction enabled: false
Boxcar width: 0
Storing dark spectrum: false
XAxis mode: Wavelengths
Number of Pixels in Spectrum: 1024
>>>>>Begin Spectral Data<<<<<
801.071	28074
801.214	27941
801.356	27720
801.499	27686
801.641	27458
801.783	27595
801.926	27515
802.068	27507
802.211	27477
802.353	27310
802.496	27256
802.638	27146
802.78	27131
802.923	27104
803.065	27089
803.208	27150
803.35	27135
803.492	27287
803.635	27252
803.777	27214
803.919	27397
804.061	27671
804.204	27370
804.346	27264
804.488	27226
804.63	27291
804.773	27313
804.915	27291
805.057	27412
805.199	27374
805.341	27564
805.483	27355
805.626	27447
805.768	27348
805.91	27553
806.052	27538
806.194	27283
806.336	27682
806.478	27538
806.62	27545
806.762	27572
806.904	27736
807.046	28010
807.188	27934
807.33	27884
807.472	27991
807.614	27823
807.756	27797
807.898	27842
808.04	27652
808.182	27724
808.324	27701
808.465	27880
808.607	28006
808.749	28032
808.891	28093
809.033	28306
809.174	28200
809.316	28036
809.458	28116
809.6	28097
809.741	28249
809.883	28310
810.025	28341
810.166	28363
810.308	28474
810.45	28329
810.591	28421
810.733	28230
810.875	28196
811.016	28002
811.158	28135
811.299	28249
811.441	28382
811.582	28226
811.724	28135
811.865	28090
812.007	28238
812.148	28181
812.29	28238
812.431	28386
812.573	28478
812.714	28531
812.855	28516
812.997	28809
813.138	28869
813.279	28759
813.421	28683
813.562	28664
813.703	28535
813.845	28356
813.986	28147
814.127	27983
814.268	27835
814.41	27895
814.551	27857
814.692	27884
814.833	27816
814.974	27846
815.115	27846
815.256	27656
815.397	27751
815.539	27789
815.68	27774
815.821	27519
815.962	27736
816.103	27618
816.244	27583
816.385	27397
816.526	27393
816.666	27180
816.807	27256
816.948	27272
817.089	27199
817.23	27127
817.371	27310
817.512	27195
817.653	27192
817.793	26986
817.934	27241
818.075	27241
818.216	27199
818.356	27226
818.497	27024
818.638	26960
818.778	27032
818.919	27058
819.06	26933
819.2	27154
819.341	27100
819.481	27085
819.622	27291
819.762	27408
819.903	27481
820.043	27230
820.184	27252
820.324	27279
820.465	27226
820.605	27214
820.746	27233
820.886	27207
821.026	27218
821.167	27237
821.307	27340
821.447	27275
821.588	27047
821.728	26883
821.868	26807
822.008	26541
822.149	26689
822.289	26602
822.429	26355
822.569	26339
822.709	26347
822.849	26210
822.99	26092
823.13	26050
823.27	25974
823.41	26046
823.55	25871
823.69	26035
823.83	25940
823.97	25868
824.11	25849
824.25	25795
824.389	25791
824.529	25822
824.669	25723
824.809	25890
824.949	25837
825.089	25799
825.228	25761
825.368	25742
825.508	25624
825.648	25734
825.787	25811
825.927	25620
826.067	25559
826.206	25658
826.346	25624
826.485	25841
826.625	25799
826.765	25731
826.904	25795
827.044	25453
827.183	25392
827.323	25377
827.462	25392
827.601	25392
827.741	25362
827.88	25365
828.02	25312
828.159	25289
828.298	25301
828.437	25468
828.577	25354
828.716	25578
828.855	25312
828.994	25065
829.134	25023
829.273	25285
829.412	25034
829.551	25095
829.69	25145
829.829	25209
829.968	25137
830.107	25046
830.246	25080
830.385	25000
830.524	24985
830.663	24932
830.802	24859
830.941	24654
831.08	24631
831.219	24707
831.357	24684
831.496	24867
831.635	24707
831.774	24700
831.913	24601
832.051	24395
832.19	24437
832.329	24505
832.467	24433
832.606	24380
832.744	24330
832.883	24376
833.022	24266
833.16	24418
833.299	24426
833.437	24308
833.576	24445
833.714	24532
833.852	24646
833.991	24456
834.129	24574
834.267	24525
834.406	24395
834.544	24505
834.682	24410
834.821	24483
834.959	24540
835.097	24388
835.235	24555
835.373	24346
835.511	24407
835.65	24254
835.788	24292
835.926	24148
836.064	24053
836.202	24182
836.34	24353
836.478	24292
836.615	24308
836.753	24258
836.891	24357
837.029	24334
837.167	24235
837.305	24209
837.443	24136
837.58	24083
837.718	24148
837.856	24289
837.993	24171
838.131	23969
838.269	23946
838.406	24072
838.544	24026
838.681	23710
838.819	23729
838.956	23592
839.094	23676
839.231	23680
839.369	23733
839.506	24030
839.643	23840
839.781	23535
839.918	23474
840.055	23516
840.193	23646
840.33	23406
840.467	23463
840.604	23467
840.742	23741
840.879	23322
841.016	23417
841.153	23524
841.29	23592
841.427	23562
841.564	23459
841.701	23482
841.838	23444
841.975	23429
842.112	23455
842.249	23170
842.385	23193
842.522	23528
842.659	23273
842.796	23250
842.933	23337
843.069	23273
843.206	23193
843.343	23326
843.479	23299
843.616	23273
843.752	23136
843.889	23143
844.025	23273
844.162	22987
844.298	23094
844.435	23124
844.571	23025
844.708	23109
844.844	23117
844.98	23197
845.117	23117
845.253	23010
845.389	22896
845.525	22934
845.661	22862
845.798	22641
845.934	22824
846.07	22763
846.206	22869
846.342	22885
846.478	22687
846.614	22580
846.75	22375
846.886	22363
847.022	22489
847.158	22535
847.294	22584
847.429	22611
847.565	22466
847.701	22717
847.837	22265
847.972	22109
848.108	22379
848.244	22291
848.379	22166
848.515	22101
848.65	22059
848.786	22090
848.921	22154
849.057	22166
849.192	22135
849.328	22070
849.463	22044
849.598	22059
849.734	22017
849.869	22017
850.004	21846
850.14	21842
850.275	21907
850.41	21781
850.545	21747
850.68	21766
850.815	21842
850.95	21827
851.085	21880
851.22	21956
851.355	21823
851.49	21835
851.625	21865
851.76	21778
851.895	21915
852.03	21663
852.165	21873
852.299	21922
852.434	21987
852.569	21804
852.703	21785
852.838	21930
852.973	22029
853.107	21937
853.242	21705
853.376	21709
853.511	21564
853.645	21583
853.78	21770
853.914	21686
854.048	21625
854.183	21580
854.317	21675
854.451	21854
854.585	21523
854.72	21633
854.854	21778
854.988	21603
855.122	21724
855.256	21526
855.39	21705
855.524	21785
855.658	21679
855.792	21724
855.926	21709
856.06	21515
856.194	21682
856.327	21648
856.461	21660
856.595	21599
856.729	21625
856.862	21728
856.996	21701
857.13	21690
857.263	21804
857.397	21667
857.53	21720
857.664	21709
857.797	21743
857.931	21713
858.064	21766
858.197	21736
858.331	21561
858.464	21675
858.597	21553
858.731	21682
858.864	21587
858.997	21603
859.13	21595
859.263	21625
859.396	21800
859.529	21660
859.662	21698
859.795	21652
859.928	21701
860.061	21873
860.194	21975
860.327	21739
860.46	21656
860.592	21732
860.725	21789
860.858	21732
860.99	21709
861.123	21591
861.256	21568
861.388	21576
861.521	22363
861.653	21473
861.786	21549
861.918	21424
862.05	21492
862.183	21599
862.315	21736
862.447	21743
862.58	21542
862.712	21329
862.844	21435
862.976	21359
863.108	21618
863.24	21774
863.372	21260
863.504	21317
863.636	21424
863.768	21466
863.9	21507
864.032	21306
864.164	21496
864.296	21367
864.428	21557
864.559	21481
864.691	21492
864.823	21504
864.954	21386
865.086	21340
865.217	21249
865.349	21180
865.48	21283
865.612	21302
865.743	21378
865.875	21386
866.006	21135
866.137	21340
866.269	21226
866.4	21233
866.531	21188
866.662	21203
866.793	21283
866.924	21218
867.055	21275
867.186	21260
867.317	21104
867.448	21074
867.579	21085
867.71	21226
867.841	21108
867.972	21230
868.103	21188
868.233	21180
868.364	21188
868.495	21230
868.625	21454
868.756	21504
868.886	21412
869.017	21462
869.147	21469
869.278	21580
869.408	21572
869.539	21450
869.669	21576
869.799	21538
869.929	21473
870.06	21625
870.19	21690
870.32	21793
870.45	21739
870.58	21743
870.71	21846
870.84	21903
870.97	21816
871.1	21831
871.23	22044
871.36	22143
871.489	21899
871.619	21873
871.749	22013
871.879	21953
872.008	22116
872.138	21987
872.267	21983
872.397	21835
872.526	21865
872.656	21850
872.785	21930
872.915	22032
873.044	22128
873.173	22093
873.303	22051
873.432	22181
873.561	22013
873.69	22051
873.819	22021
873.948	22090
874.077	22116
874.206	22010
874.335	21994
874.464	22131
874.593	22272
874.722	22268
874.851	22348
874.979	22112
875.108	22337
875.237	22230
875.365	22063
875.494	22306
875.623	22306
875.751	22219
875.88	22268
876.008	22303
876.136	22489
876.265	22721
876.393	22843
876.521	22683
876.65	22786
876.778	22687
876.906	22592
877.034	22550
877.162	22596
877.29	22599
877.418	22618
877.546	22622
877.674	22630
877.802	22641
877.93	22561
878.058	22561
878.185	22512
878.313	22592
878.441	22504
878.568	22356
878.696	22577
878.824	22729
878.951	22618
879.079	22793
879.206	22938
879.333	22828
879.461	22618
879.588	22752
879.715	22702
879.842	22858
879.97	22740
880.097	22535
880.224	22386
880.351	22478
880.478	22386
880.605	22382
880.732	22390
880.859	22748
880.986	22352
881.112	22375
881.239	22295
881.366	22177
881.493	22048
881.619	21907
881.746	22143
881.872	21945
881.999	21907
882.125	21941
882.252	22105
882.378	22070
882.505	22101
882.631	21812
882.757	21781
882.883	21781
883.01	21736
883.136	21538
883.262	21656
883.388	21553
883.514	21686
883.64	21804
883.766	21603
883.892	21481
884.018	21534
884.143	21595
884.269	21572
884.395	21435
884.52	21291
884.646	21283
884.772	21302
884.897	21310
885.023	21405
885.148	21389
885.274	21420
885.399	21534
885.524	21264
885.65	21256
885.775	21408
885.9	21260
886.025	21462
886.15	21443
886.275	21351
886.4	21249
886.525	21268
886.65	21180
886.775	21287
886.9	21450
887.025	21564
887.149	21268
887.274	21214
887.399	21131
887.523	21142
887.648	21066
887.773	21138
887.897	21150
888.021	21173
888.146	21066
888.27	21237
888.395	21279
888.519	21116
888.643	21096
888.767	21127
888.891	21028
889.015	20883
889.139	20948
889.263	20956
889.387	21013
889.511	21142
889.635	21058
889.759	20857
889.883	20944
890.006	21020
890.13	21028
890.254	20868
890.377	20777
890.501	20659
890.624	20613
890.748	20689
890.871	20621
890.995	20545
891.118	20492
891.241	20419
891.364	20564
891.488	20659
891.611	20556
891.734	20488
891.857	20514
891.98	20503
892.103	20533
892.226	20484
892.349	20446
892.471	20210
892.594	20305
892.717	20423
892.839	20438
892.962	20461
893.085	20484
893.207	20339
893.33	20320
893.452	20290
893.575	20415
893.697	20393
893.819	20602
893.941	20545
894.064	20473
894.186	20313
894.308	20355
894.43	20423
894.552	20625
894.674	20522
894.796	20343
894.918	20301
895.04	20431
895.161	20518
895.283	20473
895.405	20419
895.526	20362
895.648	20374
895.769	20442
895.891	20431
896.012	20495
896.134	20446
896.255	20503
896.376	20362
896.498	20343
896.619	20514
896.74	20370
896.861	20518
896.982	20811
897.103	20838
897.224	20625
897.345	20629
897.466	20530
897.587	20560
897.708	20648
897.828	20693
897.949	20667
898.07	20358
898.19	20480
898.311	20735
898.431	20495
898.552	20568
898.672	20598
898.792	20807
898.913	20530
899.033	20533
899.153	20282
899.273	20298
899.393	20328
899.513	20336
899.633	20431
899.753	20412
899.873	20176
899.993	20317
900.113	20301
900.232	20404
900.352	20244
900.472	20153
900.591	20092
900.711	20138
900.83	20172
900.95	20214
901.069	20149
901.189	19913
901.308	19772
901.427	19666
901.546	19700
901.665	19731
901.784	19677
901.904	19643
902.023	19403
902.141	19362
902.26	19282
902.379	19240
902.498	19183
902.617	19209
902.735	19263
902.854	19289
902.973	19194
903.091	18970
903.21	18795
903.328	18924
903.446	18825
903.565	18726
903.683	18646
903.801	18547
903.919	18585
904.038	18464
904.156	18460
904.274	18486
904.392	18433
904.51	18395
904.627	18445
904.745	18608
904.863	18433
904.981	18285
905.098	18205
905.216	18220
905.334	18174
905.451	18182
905.569	17958
905.686	18133
905.803	18026
905.921	17965
906.038	17965
906.155	17977
906.272	17813
906.389	17718
906.506	17585
906.623	17798
906.74	17604
906.857	17596
906.974	17535
907.091	17733
907.208	17733
907.324	17611
907.441	17566
907.557	17395
907.674	17433
907.79	17273
907.907	17356
908.023	17383
908.139	17433
908.256	17216
908.372	17208
908.488	17269
908.604	17151
908.72	17045
908.836	17075
908.952	17045
909.068	17098
909.184	17132
909.3	17140
909.415	17083
909.531	17064
909.647	16869
909.762	16873
909.878	16736
909.993	16816
910.108	16725
910.224	16675
910.339	16790
910.454	16733
910.57	16561
910.685	16580
910.8	16767
910.915	16744
911.03	16508
911.145	16493
911.259	16405
911.374	16360
911.489	16299
911.604	16265
911.718	16109
911.833	16116
911.947	16032
912.062	15983
912.176	16074
912.291	16025
912.405	16219
912.519	16242
912.633	16303
912.748	16162
912.862	16040
912.976	15937
913.09	15854
913.204	15964
913.318	15953
913.431	15915
913.545	15983
913.659	15979
913.772	15873
913.886	15751
914	15720
914.113	15854
914.226	15751
914.34	15812
914.453	15656
914.566	15789
914.68	15610
914.793	15648
914.906	15454
915.019	15306
915.132	15344
915.245	15310
915.358	15367
915.47	15370
915.583	15405
915.696	15302
915.809	15507
915.921	15443
916.034	15363
916.146	15237
916.259	15188
916.371	15382
916.483	15233
916.595	15169
916.708	15226
916.82	15180
916.932	15214
917.044	15123
917.156	14979
917.268	14971
917.38	15104
917.491	15039
917.603	14998
917.715	14956
917.826	15005
917.938	14929
918.049	14933
918.161	14925
918.272	14933
918.384	15043
918.495	14937
918.606	14701
918.717	14727
918.828	14788
918.939	14750
919.05	14667
919.161	14716
919.272	14549
919.383	14545
919.494	14781
919.604	14952
919.715	14762
919.826	14610
919.936	14686
920.047	14754
920.157	14678
920.267	14815
920.378	14758
920.488	14629
920.598	14902
920.708	15055
920.818	14864
920.928	14857
921.038	14925
921.148	14960
921.258	14670
921.368	14552
921.477	14442
921.587	14419
921.697	14324
921.806	14408
921.916	14362
922.025	14100
922.134	14107
922.244	13959
922.353	13997
922.462	13982
922.571	13856
922.68	13742
922.789	13704
922.898	13738
923.007	13655
923.116	13753
923.224	13662
923.333	13632
923.442	13563
923.55	13537
923.659	13556
923.767	13533
923.876	13537
923.984	13613
924.092	13453
924.201	13403
924.309	13438
924.417	13457
924.525	13430
924.633	13255
924.741	14332
924.849	13152
924.956	13278
925.064	13141
925.172	13084
925.279	13183
925.387	13164
925.494	13133
925.602	13194
925.709	13213
925.816	12985
925.924	13038
926.031	13179
926.138	13031
926.245	13076
926.352	13046
926.459	13088
926.566	13084
926.673	12947
926.779	12806
926.886	12863
926.993	12673
927.099	12776
927.206	12582
927.312	12532
927.419	12749
927.525	12563
927.631	12673
927.737	12555
927.843	12506
927.95	12426
928.056	12566
928.162	12498
928.267	12460
928.373	13187
928.479	12513
928.585	12376
928.69	12418
928.796	12525
928.901	12395
929.007	12155
929.112	12308
929.218	12232
929.323	12266
929.428	12220
929.533	12330
929.638	12159
929.743	12110
929.848	12315
929.953	12114
930.058	12079
930.163	11893
930.267	11939
930.372	12007
930.477	11824
930.581	12155
930.685	11893
930.79	11836
930.894	11832
930.998	11733
931.103	11977
931.207	11528
931.311	11482
931.415	11395
931.519	11166
931.623	11178
