Data from test_V78500241_3350.txt Node
Date: Fri Mar 25 15:33:11 CST 2022
User: usil
Spectrometer: V785-0024
Trigger mode: 0
Integration Time (sec): 4.000000E-1
Scans to average: 1
Nonlinearity correction enabled: false
Boxcar width: 0
Storing dark spectrum: false
XAxis mode: Wavelengths
Number of Pixels in Spectrum: 1024
>>>>>Begin Spectral Data<<<<<
801.071	27112
801.214	27028
801.356	26845
801.499	26629
801.641	26830
801.783	26560
801.926	26762
802.068	26594
802.211	26507
802.353	26514
802.496	26400
802.638	26328
802.78	26275
802.923	26187
803.065	26263
803.208	26161
803.35	26347
803.492	26301
803.635	26453
803.777	26336
803.919	26374
804.061	26689
804.204	26541
804.346	26278
804.488	26305
804.63	26366
804.773	26328
804.915	26396
805.057	26697
805.199	26370
805.341	26480
805.483	26590
805.626	26530
805.768	26366
805.91	26667
806.052	26427
806.194	26393
806.336	26659
806.478	26442
806.62	26434
806.762	26632
806.904	26644
807.046	26811
807.188	26918
807.33	26918
807.472	26963
807.614	26956
807.756	26883
807.898	26769
808.04	26552
808.182	26674
808.324	26670
808.465	26819
808.607	26979
808.749	27096
808.891	27100
809.033	27302
809.174	27184
809.316	27051
809.458	27100
809.6	27058
809.741	27173
809.883	27294
810.025	27313
810.166	27431
810.308	27283
810.45	27355
810.591	27218
810.733	27032
810.875	27104
811.016	27024
811.158	27047
811.299	27135
811.441	27222
811.582	27279
811.724	27081
811.865	27096
812.007	26986
812.148	27096
812.29	27112
812.431	27161
812.573	27424
812.714	27435
812.855	27553
812.997	27637
813.138	27816
813.279	27637
813.421	27675
813.562	27523
813.703	27218
813.845	27287
813.986	27123
814.127	26990
814.268	26785
814.41	26796
814.551	26777
814.692	26682
814.833	26727
814.974	26716
815.115	26792
815.256	26602
815.397	26587
815.539	26716
815.68	26571
815.821	26461
815.962	26564
816.103	26492
816.244	26339
816.385	26149
816.526	26244
816.666	26073
816.807	25993
816.948	25963
817.089	26119
817.23	26020
817.371	25890
817.512	26088
817.653	25890
817.793	25982
817.934	25944
818.075	25978
818.216	25963
818.356	25993
818.497	25826
818.638	25784
818.778	25605
818.919	25734
819.06	25765
819.2	25951
819.341	25883
819.481	25841
819.622	26077
819.762	26381
819.903	26415
820.043	26206
820.184	26024
820.324	26062
820.465	26206
820.605	26111
820.746	26115
820.886	25776
821.026	25986
821.167	26012
821.307	26126
821.447	25807
821.588	25814
821.728	25753
821.868	25715
822.008	25597
822.149	25460
822.289	25403
822.429	25190
822.569	25213
822.709	25179
822.849	24962
822.99	24798
823.13	25034
823.27	24844
823.41	24722
823.55	24620
823.69	24806
823.83	24726
823.97	24696
824.11	24528
824.25	24525
824.389	24551
824.529	24654
824.669	24654
824.809	24650
824.949	24757
825.089	24627
825.228	24589
825.368	24437
825.508	24509
825.648	24521
825.787	24437
825.927	24407
826.067	24365
826.206	24479
826.346	24505
826.485	24452
826.625	24505
826.765	24601
826.904	24483
827.044	24285
827.183	24152
827.323	24110
827.462	24277
827.601	24220
827.741	24087
827.88	24235
828.02	24163
828.159	24072
828.298	24163
828.437	24072
828.577	24121
828.716	24186
828.855	23958
828.994	23748
829.134	23798
829.273	23920
829.412	23920
829.551	23882
829.69	23783
829.829	24095
829.968	23882
830.107	23920
830.246	23870
830.385	23802
830.524	23764
830.663	23779
830.802	23657
830.941	23398
831.08	23406
831.219	23512
831.357	23524
831.496	23764
831.635	23627
831.774	23364
831.913	23318
832.051	23311
832.19	23231
832.329	23311
832.467	23162
832.606	23140
832.744	23079
832.883	23136
833.022	23200
833.16	23162
833.299	23223
833.437	23174
833.576	23174
833.714	23280
833.852	23345
833.991	23406
834.129	23341
834.267	23242
834.406	23227
834.544	23212
834.682	23223
834.821	23197
834.959	23387
835.097	23235
835.235	23288
835.373	23307
835.511	23166
835.65	23010
835.788	23094
835.926	22919
836.064	22896
836.202	22915
836.34	23071
836.478	23143
836.615	23113
836.753	23079
836.891	23094
837.029	23136
837.167	23025
837.305	22961
837.443	23029
837.58	23041
837.718	23064
837.856	22991
837.993	22904
838.131	22900
838.269	22679
838.406	22957
838.544	22672
838.681	22641
838.819	22573
838.956	22379
839.094	22402
839.231	22554
839.369	22668
839.506	22736
839.643	22672
839.781	22466
839.918	22265
840.055	22379
840.193	22299
840.33	22348
840.467	22485
840.604	22402
840.742	22611
840.879	22265
841.016	22261
841.153	22223
841.29	22440
841.427	22249
841.564	22337
841.701	22348
841.838	22196
841.975	22287
842.112	22405
842.249	22253
842.385	22242
842.522	22314
842.659	22211
842.796	22093
842.933	22063
843.069	22070
843.206	22025
843.343	22215
843.479	22188
843.616	22147
843.752	21941
843.889	21922
844.025	22131
844.162	21903
844.298	22006
844.435	21945
844.571	22002
844.708	21892
844.844	22109
844.98	22006
845.117	21953
845.253	21656
845.389	21804
845.525	21690
845.661	21816
845.798	21549
845.934	21564
846.07	21591
846.206	21660
846.342	21808
846.478	21713
846.614	21408
846.75	21298
846.886	21363
847.022	21481
847.158	21412
847.294	21401
847.429	21405
847.565	21317
847.701	21705
847.837	21058
847.972	20982
848.108	21142
848.244	21104
848.379	21055
848.515	21013
848.65	20937
848.786	20910
848.921	20933
849.057	21157
849.192	21017
849.328	20864
849.463	20899
849.598	20933
849.734	20830
849.869	20849
850.004	20712
850.14	20811
850.275	20823
850.41	20651
850.545	20648
850.68	20663
850.815	20765
850.95	20773
851.085	20815
851.22	20876
851.355	20670
851.49	20686
851.625	20625
851.76	20708
851.895	20632
852.03	20686
852.165	20689
852.299	20777
852.434	20804
852.569	20849
852.703	20811
852.838	20800
852.973	20899
853.107	20743
853.242	20655
853.376	20598
853.511	20381
853.645	20492
853.78	20609
853.914	20545
854.048	20480
854.183	20678
854.317	20693
854.451	20765
854.585	20568
854.72	20492
854.854	20667
854.988	20423
855.122	20568
855.256	20583
855.39	20431
855.524	20689
855.658	20621
855.792	20583
855.926	20693
856.06	20583
856.194	20552
856.327	20575
856.461	20385
856.595	20533
856.729	20549
856.862	20492
856.996	20575
857.13	20670
857.263	20765
857.397	20724
857.53	20549
857.664	20667
857.797	20533
857.931	20720
858.064	20579
858.197	20686
858.331	20545
858.464	20499
858.597	20507
858.731	20613
858.864	20552
858.997	20446
859.13	20575
859.263	20556
859.396	20549
859.529	20613
859.662	20476
859.795	20518
859.928	20689
860.061	20785
860.194	20735
860.327	20617
860.46	20667
860.592	20682
860.725	20701
860.858	20556
860.99	20469
861.123	20377
861.256	20575
861.388	20571
861.521	21298
861.653	20530
861.786	20450
861.918	20450
862.05	20469
862.183	20541
862.315	20720
862.447	20644
862.58	20488
862.712	20256
862.844	20267
862.976	20450
863.108	20385
863.24	20788
863.372	20229
863.504	20298
863.636	20328
863.768	20305
863.9	20187
864.032	20164
864.164	20385
864.296	20317
864.428	20301
864.559	20427
864.691	20313
864.823	20317
864.954	20393
865.086	20336
865.217	20187
865.349	20126
865.48	20206
865.612	20168
865.743	20294
865.875	20202
866.006	20233
866.137	20180
866.269	20248
866.4	20157
866.531	20145
866.662	20024
866.793	20111
866.924	20103
867.055	20157
867.186	20126
867.317	20191
867.448	20039
867.579	20157
867.71	20153
867.841	20039
867.972	20191
868.103	20149
868.233	20157
868.364	20115
868.495	20252
868.625	20343
868.756	20446
868.886	20377
869.017	20415
869.147	20408
869.278	20568
869.408	20400
869.539	20408
869.669	20442
869.799	20332
869.929	20454
870.06	20507
870.19	20663
870.32	20716
870.45	20754
870.58	20792
870.71	20819
870.84	20800
870.97	20731
871.1	20739
871.23	20941
871.36	20906
871.489	20883
871.619	21009
871.749	20975
871.879	20899
872.008	21173
872.138	21135
872.267	20979
872.397	20944
872.526	20910
872.656	20807
872.785	20712
872.915	20982
873.044	21081
873.173	21017
873.303	21100
873.432	20891
873.561	21116
873.69	20986
873.819	20952
873.948	21028
874.077	20902
874.206	20975
874.335	21074
874.464	21154
874.593	21252
874.722	21317
874.851	21329
874.979	21272
875.108	21382
875.237	21150
875.365	21089
875.494	21252
875.623	21336
875.751	21336
875.88	21211
876.008	21344
876.136	21454
876.265	21751
876.393	21934
876.521	21766
876.65	21747
876.778	21724
876.906	21530
877.034	21572
877.162	21534
877.29	21557
877.418	21576
877.546	21755
877.674	21542
877.802	21485
877.93	21679
878.058	21492
878.185	21473
878.313	21515
878.441	21618
878.568	21431
878.696	21557
878.824	21648
878.951	21591
879.079	21778
879.206	21926
879.333	21793
879.461	21595
879.588	21686
879.715	21797
879.842	21816
879.97	21709
880.097	21485
880.224	21359
880.351	21473
880.478	21450
880.605	21313
880.732	21420
880.859	21682
880.986	21507
881.112	21420
881.239	21310
881.366	21081
881.493	21100
881.619	20998
881.746	20998
881.872	20864
881.999	21009
882.125	21047
882.252	21081
882.378	21017
882.505	21127
882.631	20864
882.757	20849
882.883	20796
883.01	20670
883.136	20689
883.262	20617
883.388	20507
883.514	20678
883.64	20746
883.766	20739
883.892	20621
884.018	20480
884.143	20575
884.269	20727
884.395	20473
884.52	20347
884.646	20370
884.772	20381
884.897	20237
885.023	20415
885.148	20343
885.274	20583
885.399	20564
885.524	20484
885.65	20450
885.775	20290
885.9	20415
886.025	20541
886.15	20396
886.275	20400
886.4	20290
886.525	20290
886.65	20233
886.775	20183
886.9	20518
887.025	20503
887.149	20199
887.274	20145
887.399	20050
887.523	20092
887.648	20153
887.773	20005
887.897	20149
888.021	20286
888.146	20103
888.27	20233
888.395	20252
888.519	20092
888.643	20317
888.767	20252
888.891	20001
889.015	20035
889.139	20054
889.263	19993
889.387	20077
889.511	20187
889.635	20126
889.759	19902
889.883	19986
890.006	19967
890.13	20065
890.254	19906
890.377	19913
890.501	19784
890.624	19639
890.748	19750
890.871	19616
890.995	19575
891.118	19529
891.241	19510
891.364	19476
891.488	19708
891.611	19525
891.734	19464
891.857	19616
891.98	19487
892.103	19552
892.226	19552
892.349	19655
892.471	19464
892.594	19453
892.717	19506
892.839	19525
892.962	19403
893.085	19521
893.207	19426
893.33	19308
893.452	19270
893.575	19438
893.697	19419
893.819	19586
893.941	19674
894.064	19620
894.186	19426
894.308	19518
894.43	19487
894.552	19723
894.674	19620
894.796	19350
894.918	19354
895.04	19483
895.161	19476
895.283	19445
895.405	19506
895.526	19365
895.648	19350
895.769	19518
895.891	19487
896.012	19586
896.134	19491
896.255	19533
896.376	19476
896.498	19457
896.619	19540
896.74	19449
896.861	19544
896.982	19776
897.103	19936
897.224	19719
897.345	19674
897.466	19693
897.587	19750
897.708	19704
897.828	19734
897.949	19772
898.07	19533
898.19	19567
898.311	19879
898.431	19693
898.552	19677
898.672	19681
898.792	19826
898.913	19776
899.033	19548
899.153	19457
899.273	19445
899.393	19438
899.513	19529
899.633	19445
899.753	19525
899.873	19362
899.993	19586
900.113	19369
900.232	19411
900.352	19403
900.472	19247
900.591	19187
900.711	19304
900.83	19247
900.95	19324
901.069	19381
901.189	19171
901.308	18901
901.427	18840
901.546	18856
901.665	18897
901.784	18878
901.904	18654
902.023	18646
902.141	18350
902.26	18479
902.379	18498
902.498	18338
902.617	18403
902.735	18388
902.854	18334
902.973	18357
903.091	18083
903.21	18079
903.328	17935
903.446	18011
903.565	17809
903.683	17904
903.801	17680
903.919	17855
904.038	17699
904.156	17547
904.274	17649
904.392	17585
904.51	17665
904.627	17680
904.745	17577
904.863	17627
904.981	17356
905.098	17406
905.216	17368
905.334	17299
905.451	17315
905.569	17261
905.686	17269
905.803	17239
905.921	17102
906.038	17151
906.155	17052
906.272	16999
906.389	16930
906.506	16850
906.623	16820
906.74	16972
906.857	16702
906.974	16698
907.091	16942
907.208	16900
907.324	16889
907.441	16752
907.557	16516
907.674	16599
907.79	16466
907.907	16481
908.023	16538
908.139	16508
908.256	16527
908.372	16451
908.488	16306
908.604	16295
908.72	16272
908.836	16242
908.952	16242
909.068	16322
909.184	16356
909.3	16325
909.415	16421
909.531	16246
909.647	16131
909.762	16010
909.878	15903
909.993	16067
910.108	15960
910.224	15892
910.339	15979
910.454	15838
910.57	15770
910.685	15648
910.8	15941
910.915	15979
911.03	15873
911.145	15637
911.259	15564
911.374	15698
911.489	15511
911.604	15466
911.718	15344
911.833	15344
911.947	15233
912.062	15127
912.176	15359
912.291	15351
912.405	15287
912.519	15656
912.633	15564
912.748	15283
912.862	15389
912.976	15188
913.09	15089
913.204	15077
913.318	15188
913.431	15279
913.545	15214
913.659	15264
913.772	15150
913.886	15017
914	14979
914.113	15017
914.226	15036
914.34	15055
914.453	15051
914.566	15043
914.68	14941
914.793	14777
914.906	14674
915.019	14617
915.132	14480
915.245	14629
915.358	14579
915.47	14571
915.583	14568
915.696	14522
915.809	14758
915.921	14640
916.034	14484
916.146	14522
916.259	14526
916.371	14526
916.483	14697
916.595	14355
916.708	14522
916.82	14461
916.932	14469
917.044	14404
917.156	14465
917.268	14252
917.38	14233
917.491	14278
917.603	14240
917.715	14275
917.826	14286
917.938	14183
918.049	14024
918.161	14180
918.272	14214
918.384	14339
918.495	14256
918.606	14050
918.717	14012
918.828	14103
918.939	14145
919.05	13978
919.161	13932
919.272	13833
919.383	13875
919.494	14005
919.604	14187
919.715	14062
919.826	13833
919.936	14020
920.047	14050
920.157	14012
920.267	14187
920.378	14069
920.488	13989
920.598	14210
920.708	14305
920.818	14161
920.928	14130
921.038	14343
921.148	14237
921.258	13944
921.368	13852
921.477	13841
921.587	13727
921.697	13670
921.806	13746
921.916	13666
922.025	13441
922.134	13388
922.244	13373
922.353	13464
922.462	13270
922.571	13244
922.68	13061
922.789	13084
922.898	13069
923.007	12970
923.116	13129
923.224	13012
923.333	13031
923.442	12916
923.55	12840
923.659	12905
923.767	12920
923.876	12863
923.984	12867
924.092	12791
924.201	12738
924.309	12817
924.417	12814
924.525	12776
924.633	12734
924.741	13712
924.849	12509
924.956	12700
925.064	12509
925.172	12429
925.279	12509
925.387	12452
925.494	12532
925.602	12589
925.709	12471
925.816	12437
925.924	12525
926.031	12536
926.138	12433
926.245	12521
926.352	12464
926.459	12506
926.566	12498
926.673	12353
926.779	12247
926.886	12323
926.993	12102
927.099	12106
927.206	12034
927.312	12038
927.419	12159
927.525	12045
927.631	12144
927.737	12011
927.843	11969
927.95	11813
928.056	11889
928.162	12011
928.267	12015
928.373	12483
928.479	12003
928.585	11718
928.69	11863
928.796	11920
928.901	11707
929.007	11646
929.112	11802
929.218	11760
929.323	11653
929.428	11611
929.533	11767
929.638	11566
929.743	11630
929.848	11619
929.953	11589
930.058	11490
930.163	11383
930.267	11299
930.372	11501
930.477	11326
930.581	11490
930.685	11387
930.79	11235
930.894	11292
930.998	11223
931.103	11326
931.207	10984
931.311	10896
931.415	10889
931.519	10630
931.623	10721
