Data from test_V78500241_1711.txt Node
Date: Fri Mar 25 15:21:46 CST 2022
User: usil
Spectrometer: V785-0024
Trigger mode: 0
Integration Time (sec): 4.000000E-1
Scans to average: 1
Nonlinearity correction enabled: false
Boxcar width: 0
Storing dark spectrum: false
XAxis mode: Wavelengths
Number of Pixels in Spectrum: 1024
>>>>>Begin Spectral Data<<<<<
801.071	27648
801.214	27568
801.356	27412
801.499	27249
801.641	27188
801.783	27116
801.926	27226
802.068	27233
802.211	27070
802.353	27055
802.496	26899
802.638	26773
802.78	26796
802.923	26876
803.065	26777
803.208	26785
803.35	26853
803.492	27017
803.635	26994
803.777	26952
803.919	27024
804.061	27329
804.204	27192
804.346	26887
804.488	26925
804.63	27032
804.773	26952
804.915	27024
805.057	27116
805.199	26937
805.341	26929
805.483	27245
805.626	27165
805.768	27005
805.91	27249
806.052	27195
806.194	27123
806.336	27386
806.478	27195
806.62	27096
806.762	27306
806.904	27481
807.046	27739
807.188	27583
807.33	27511
807.472	27606
807.614	27458
807.756	27633
807.898	27363
808.04	27408
808.182	27439
808.324	27454
808.465	27462
808.607	27622
808.749	27865
808.891	27778
809.033	27922
809.174	27934
809.316	27701
809.458	27652
809.6	27667
809.741	27838
809.883	27968
810.025	27873
810.166	28021
810.308	27964
810.45	28029
810.591	27842
810.733	27831
810.875	27694
811.016	27675
811.158	27637
811.299	27682
811.441	27812
811.582	27838
811.724	27736
811.865	27724
812.007	27587
812.148	27717
812.29	27808
812.431	27914
812.573	28139
812.714	28154
812.855	28268
812.997	28322
813.138	28557
813.279	28386
813.421	28276
813.562	28223
813.703	28090
813.845	27880
813.986	27629
814.127	27500
814.268	27443
814.41	27431
814.551	27420
814.692	27534
814.833	27477
814.974	27462
815.115	27523
815.256	27195
815.397	27393
815.539	27321
815.68	27199
815.821	27150
815.962	27252
816.103	27222
816.244	27169
816.385	27043
816.526	26986
816.666	26902
816.807	26735
816.948	26758
817.089	26823
817.23	26834
817.371	26693
817.512	26701
817.653	26754
817.793	26682
817.934	26693
818.075	26720
818.216	26773
818.356	26682
818.497	26682
818.638	26412
818.778	26457
818.919	26594
819.06	26442
819.2	26602
819.341	26800
819.481	26731
819.622	26891
819.762	27089
819.903	26948
820.043	27005
820.184	26788
820.324	26929
820.465	26834
820.605	26842
820.746	26826
820.886	26716
821.026	26796
821.167	26830
821.307	26842
821.447	26762
821.588	26560
821.728	26579
821.868	26400
822.008	26214
822.149	26214
822.289	26115
822.429	25879
822.569	25868
822.709	25879
822.849	25742
822.99	25708
823.13	25746
823.27	25643
823.41	25571
823.55	25415
823.69	25487
823.83	25632
823.97	25525
824.11	25381
824.25	25278
824.389	25415
824.529	25396
824.669	25308
824.809	25556
824.949	25441
825.089	25327
825.228	25472
825.368	25202
825.508	25259
825.648	25202
825.787	25270
825.927	25190
826.067	25244
826.206	25179
826.346	25304
826.485	25316
826.625	25156
826.765	25308
826.904	25373
827.044	25034
827.183	24909
827.323	24882
827.462	24989
827.601	24901
827.741	24852
827.88	24920
828.02	24829
828.159	25069
828.298	24897
828.437	24973
828.577	24928
828.716	25027
828.855	24829
828.994	24661
829.134	24722
829.273	24726
829.412	24623
829.551	24612
829.69	24669
829.829	24669
829.968	24726
830.107	24859
830.246	24696
830.385	24654
830.524	24551
830.663	24475
830.802	24403
830.941	24285
831.08	24216
831.219	24311
831.357	24277
831.496	24460
831.635	24110
831.774	24205
831.913	24243
832.051	24182
832.19	24053
832.329	23969
832.467	24015
832.606	23920
832.744	23931
832.883	23798
833.022	24018
833.16	23897
833.299	24018
833.437	24079
833.576	24041
833.714	24102
833.852	24038
833.991	24140
834.129	24121
834.267	24174
834.406	23961
834.544	24186
834.682	23992
834.821	23958
834.959	24251
835.097	23897
835.235	24038
835.373	23980
835.511	23977
835.65	23889
835.788	23790
835.926	23676
836.064	23680
836.202	23779
836.34	23965
836.478	23954
836.615	23904
836.753	23836
836.891	24098
837.029	23969
837.167	23813
837.305	23767
837.443	23707
837.58	23695
837.718	23771
837.856	23756
837.993	23805
838.131	23748
838.269	23589
838.406	23680
838.544	23634
838.681	23486
838.819	23387
838.956	23292
839.094	23220
839.231	23265
839.369	23330
839.506	23600
839.643	23467
839.781	23117
839.918	23193
840.055	23212
840.193	23121
840.33	23094
840.467	23105
840.604	23250
840.742	23421
840.879	22911
841.016	23018
841.153	22980
841.29	23292
841.427	23185
841.564	23136
841.701	23185
841.838	23041
841.975	22904
842.112	22896
842.249	22911
842.385	22778
842.522	23003
842.659	22801
842.796	22900
842.933	22904
843.069	22858
843.206	22889
843.343	22862
843.479	22930
843.616	22900
843.752	22687
843.889	22691
844.025	22816
844.162	22527
844.298	22828
844.435	22561
844.571	22653
844.708	22675
844.844	22862
844.98	22717
845.117	22748
845.253	22561
845.389	22356
845.525	22668
845.661	22622
845.798	22504
845.934	22352
846.07	22394
846.206	22367
846.342	22493
846.478	22333
846.614	22196
846.75	22044
846.886	22143
847.022	22185
847.158	22116
847.294	22230
847.429	22135
847.565	22082
847.701	22386
847.837	21869
847.972	21762
848.108	21953
848.244	22002
848.379	21842
848.515	21717
848.65	21755
848.786	21720
848.921	21892
849.057	21835
849.192	21789
849.328	21637
849.463	21675
849.598	21599
849.734	21572
849.869	21629
850.004	21583
850.14	21500
850.275	21603
850.41	21298
850.545	21473
850.68	21408
850.815	21545
850.95	21412
851.085	21709
851.22	21644
851.355	21622
851.49	21386
851.625	21477
851.76	21351
851.895	21344
852.03	21420
852.165	21275
852.299	21393
852.434	21477
852.569	21485
852.703	21492
852.838	21538
852.973	21644
853.107	21652
853.242	21386
853.376	21294
853.511	21188
853.645	21241
853.78	21466
853.914	21298
854.048	21237
854.183	21336
854.317	21351
854.451	21526
854.585	21325
854.72	21203
854.854	21378
854.988	21264
855.122	21294
855.256	21157
855.39	21230
855.524	21344
855.658	21344
855.792	21260
855.926	21359
856.06	21370
856.194	21363
856.327	21233
856.461	21264
856.595	21245
856.729	21321
856.862	21447
856.996	21306
857.13	21313
857.263	21313
857.397	21367
857.53	21192
857.664	21325
857.797	21344
857.931	21325
858.064	21264
858.197	21473
858.331	21325
858.464	21245
858.597	21199
858.731	21355
858.864	21245
858.997	21237
859.13	21222
859.263	21348
859.396	21363
859.529	21161
859.662	21344
859.795	21329
859.928	21317
860.061	21412
860.194	21466
860.327	21302
860.46	21245
860.592	21507
860.725	21496
860.858	21443
860.99	21283
861.123	21214
861.256	21203
861.388	21291
861.521	21960
861.653	21161
861.786	21108
861.918	21066
862.05	21112
862.183	21233
862.315	21287
862.447	21207
862.58	21260
862.712	21005
862.844	20937
862.976	21116
863.108	21142
863.24	21538
863.372	21039
863.504	20990
863.636	20963
863.768	21074
863.9	20910
864.032	20834
864.164	21074
864.296	20986
864.428	21207
864.559	21089
864.691	21062
864.823	21047
864.954	20963
865.086	20861
865.217	20857
865.349	20899
865.48	20895
865.612	20902
865.743	20902
865.875	20834
866.006	20838
866.137	20826
866.269	20925
866.4	20895
866.531	20765
866.662	20823
866.793	20861
866.924	20739
867.055	20868
867.186	20994
867.317	20853
867.448	20937
867.579	20792
867.71	20788
867.841	20720
867.972	20830
868.103	20762
868.233	20758
868.364	20727
868.495	20918
868.625	21176
868.756	21211
868.886	21013
869.017	21020
869.147	21207
869.278	21176
869.408	20994
869.539	21157
869.669	21081
869.799	21005
869.929	21211
870.06	21176
870.19	21359
870.32	21252
870.45	21462
870.58	21424
870.71	21523
870.84	21485
870.97	21477
871.1	21492
871.23	21656
871.36	21652
871.489	21488
871.619	21724
871.749	21629
871.879	21713
872.008	21724
872.138	21671
872.267	21713
872.397	21622
872.526	21568
872.656	21504
872.785	21557
872.915	21709
873.044	21728
873.173	21648
873.303	21732
873.432	21774
873.561	21831
873.69	21591
873.819	21709
873.948	21739
874.077	21629
874.206	21603
874.335	21656
874.464	21690
874.593	21956
874.722	21800
874.851	21926
874.979	22036
875.108	21983
875.237	21895
875.365	21827
875.494	21789
875.623	21941
875.751	21869
875.88	21895
876.008	22051
876.136	22226
876.265	22284
876.393	22363
876.521	22409
876.65	22459
876.778	22310
876.906	22375
877.034	22192
877.162	22299
877.29	22272
877.418	22253
877.546	22261
877.674	22310
877.802	22181
877.93	22272
878.058	22181
878.185	22204
878.313	22181
878.441	22207
878.568	22086
878.696	22090
878.824	22402
878.951	22291
879.079	22440
879.206	22500
879.333	22413
879.461	22314
879.588	22413
879.715	22356
879.842	22500
879.97	22413
880.097	22036
880.224	21968
880.351	22044
880.478	22044
880.605	22143
880.732	22181
880.859	22341
880.986	22059
881.112	22048
881.239	21865
881.366	21728
881.493	21797
881.619	21728
881.746	21667
881.872	21614
881.999	21675
882.125	21625
882.252	21682
882.378	21618
882.505	21823
882.631	21496
882.757	21443
882.883	21526
883.01	21291
883.136	21401
883.262	21203
883.388	21199
883.514	21329
883.64	21386
883.766	21313
883.892	21154
884.018	21077
884.143	21275
884.269	21389
884.395	21024
884.52	21001
884.646	21036
884.772	20963
884.897	20929
885.023	21020
885.148	21032
885.274	21184
885.399	21100
885.524	21036
885.65	21043
885.775	20990
885.9	20982
886.025	21005
886.15	21085
886.275	20887
886.4	20830
886.525	20998
886.65	20910
886.775	20849
886.9	21085
887.025	21157
887.149	21093
887.274	20781
887.399	20823
887.523	20693
887.648	20644
887.773	20754
887.897	20819
888.021	20758
888.146	20754
888.27	20762
888.395	20887
888.519	20937
888.643	20838
888.767	20792
888.891	20617
889.015	20518
889.139	20693
889.263	20499
889.387	20667
889.511	20777
889.635	20693
889.759	20537
889.883	20564
890.006	20499
890.13	20670
890.254	20385
890.377	20290
890.501	20278
890.624	20374
890.748	20499
890.871	20317
890.995	20111
891.118	20035
891.241	20084
891.364	20058
891.488	20309
891.611	20218
891.734	20142
891.857	20191
891.98	20069
892.103	20202
892.226	20157
892.349	20054
892.471	20012
892.594	20020
892.717	20062
892.839	20031
892.962	20020
893.085	19959
893.207	20081
893.33	19871
893.452	19784
893.575	20126
893.697	20122
893.819	20313
893.941	20240
894.064	20142
894.186	19856
894.308	19826
894.43	20119
894.552	20153
894.674	20149
894.796	19955
894.918	20065
895.04	20039
895.161	20001
895.283	20024
895.405	20138
895.526	20115
895.648	19993
895.769	19993
895.891	20134
896.012	20035
896.134	20157
896.255	20031
896.376	19917
896.498	20062
896.619	20130
896.74	19970
896.861	20058
896.982	20412
897.103	20530
897.224	20271
897.345	20149
897.466	20294
897.587	20282
897.708	20389
897.828	20252
897.949	20145
898.07	19944
898.19	20172
898.311	20298
898.431	20126
898.552	20225
898.672	20408
898.792	20419
898.913	20180
899.033	20301
899.153	19970
899.273	19936
899.393	19864
899.513	19936
899.633	20035
899.753	19947
899.873	19967
899.993	20130
900.113	19967
900.232	20035
900.352	19913
900.472	19868
900.591	19837
900.711	19879
900.83	19731
900.95	19909
901.069	19841
901.189	19643
901.308	19358
901.427	19392
901.546	19316
901.665	19381
901.784	19392
901.904	19232
902.023	19061
902.141	18909
902.26	18806
902.379	19012
902.498	18840
902.617	18871
902.735	18890
902.854	18829
902.973	18650
903.091	18578
903.21	18475
903.328	18604
903.446	18536
903.565	18357
903.683	18422
903.801	18209
903.919	18220
904.038	18357
904.156	18319
904.274	18205
904.392	18083
904.51	18053
904.627	18098
904.745	18133
904.863	18205
904.981	17931
905.098	17756
905.216	17942
905.334	17874
905.451	17813
905.569	17790
905.686	17767
905.803	17847
905.921	17471
906.038	17661
906.155	17600
906.272	17573
906.389	17562
906.506	17322
906.623	17376
906.74	17391
906.857	17197
906.974	17239
907.091	17258
907.208	17322
907.324	17265
907.441	17212
907.557	17075
907.674	17029
907.79	17124
907.907	17010
908.023	17143
908.139	17029
908.256	16915
908.372	17056
908.488	16991
908.604	16713
908.72	16843
908.836	16812
908.952	16672
909.068	16748
909.184	16790
909.3	16786
909.415	16752
909.531	16786
909.647	16459
909.762	16447
909.878	16497
909.993	16508
910.108	16428
910.224	16523
910.339	16478
910.454	16295
910.57	16276
910.685	16226
910.8	16474
910.915	16398
911.03	16249
911.145	16215
911.259	16032
911.374	16017
911.489	16017
911.604	15960
911.718	15724
911.833	15850
911.947	15671
912.062	15606
912.176	15743
912.291	15732
912.405	15789
912.519	15930
912.633	16002
912.748	15861
912.862	15827
912.976	15629
913.09	15553
913.204	15599
913.318	15622
913.431	15778
913.545	15690
913.659	15709
913.772	15595
913.886	15523
914	15389
914.113	15564
914.226	15526
914.34	15485
914.453	15287
914.566	15477
914.68	15321
914.793	15317
914.906	15100
915.019	14994
915.132	14998
915.245	14971
915.358	15036
915.47	15020
915.583	15112
915.696	15150
915.809	15093
915.921	15112
916.034	15013
916.146	14906
916.259	15043
916.371	15039
916.483	15055
916.595	14826
916.708	14910
916.82	14845
916.932	14845
917.044	14826
917.156	14834
917.268	14670
917.38	14621
917.491	14606
917.603	14648
917.715	14842
917.826	14842
917.938	14629
918.049	14571
918.161	14606
918.272	14746
918.384	14777
918.495	14705
918.606	14438
918.717	14377
918.828	14560
918.939	14457
919.05	14355
919.161	14393
919.272	14256
919.383	14320
919.494	14370
919.604	14686
919.715	14480
919.826	14294
919.936	14339
920.047	14473
920.157	14442
920.267	14564
920.378	14518
920.488	14320
920.598	14613
920.708	14648
920.818	14480
920.928	14530
921.038	14716
921.148	14670
921.258	14278
921.368	14305
921.477	14237
921.587	14138
921.697	14005
921.806	14134
921.916	13947
922.025	13822
922.134	13670
922.244	13799
922.353	13833
922.462	13636
922.571	13597
922.68	13529
922.789	13373
922.898	13525
923.007	13343
923.116	13472
923.224	13384
923.333	13388
923.442	13388
923.55	13274
923.659	13304
923.767	13358
923.876	13129
923.984	13381
924.092	13190
924.201	13137
924.309	13171
924.417	13293
924.525	13080
924.633	13042
924.741	13928
924.849	12909
924.956	13038
925.064	12985
925.172	12768
925.279	12840
925.387	12863
925.494	12871
925.602	13027
925.709	12833
925.816	12791
925.924	12806
926.031	12829
926.138	12878
926.245	12825
926.352	12715
926.459	12856
926.566	12882
926.673	12711
926.779	12639
926.886	12646
926.993	12513
927.099	12506
927.206	12467
927.312	12338
927.419	12502
927.525	12410
927.631	12536
927.737	12330
927.843	12186
927.95	12140
928.056	12239
928.162	12228
928.267	12243
928.373	12958
928.479	12353
928.585	12076
928.69	12235
928.796	12319
928.901	12049
929.007	12003
929.112	12125
929.218	12106
929.323	12003
929.428	11958
929.533	12114
929.638	11923
929.743	11916
929.848	11988
929.953	11954
930.058	11828
930.163	11623
930.267	11805
930.372	11851
930.477	11638
930.581	11828
930.685	11813
930.79	11516
930.894	11589
930.998	11532
931.103	11695
931.207	11322
931.311	11261
931.415	11174
931.519	10984
931.623	10900
