Data from test_V78500241_3153.txt Node
Date: Fri Mar 25 15:31:48 CST 2022
User: usil
Spectrometer: V785-0024
Trigger mode: 0
Integration Time (sec): 4.000000E-1
Scans to average: 1
Nonlinearity correction enabled: false
Boxcar width: 0
Storing dark spectrum: false
XAxis mode: Wavelengths
Number of Pixels in Spectrum: 1024
>>>>>Begin Spectral Data<<<<<
801.071	27195
801.214	27154
801.356	27013
801.499	26906
801.641	26800
801.783	26731
801.926	26823
802.068	26826
802.211	26651
802.353	26552
802.496	26415
802.638	26389
802.78	26419
802.923	26290
803.065	26313
803.208	26259
803.35	26377
803.492	26499
803.635	26632
803.777	26533
803.919	26556
804.061	26735
804.204	26632
804.346	26461
804.488	26457
804.63	26503
804.773	26446
804.915	26465
805.057	26670
805.199	26271
805.341	26705
805.483	26716
805.626	26663
805.768	26655
805.91	26617
806.052	26663
806.194	26473
806.336	26788
806.478	26651
806.62	26560
806.762	26899
806.904	26849
807.046	27241
807.188	27161
807.33	27150
807.472	27157
807.614	27020
807.756	27062
807.898	26918
808.04	26834
808.182	26819
808.324	26868
808.465	26963
808.607	27218
808.749	27249
808.891	27348
809.033	27294
809.174	27393
809.316	27165
809.458	27230
809.6	27150
809.741	27344
809.883	27287
810.025	27488
810.166	27603
810.308	27485
810.45	27507
810.591	27416
810.733	27283
810.875	27230
811.016	27146
811.158	27264
811.299	27435
811.441	27431
811.582	27450
811.724	27317
811.865	27313
812.007	27192
812.148	27146
812.29	27256
812.431	27469
812.573	27561
812.714	27530
812.855	27682
812.997	27812
813.138	27842
813.279	27937
813.421	27690
813.562	27751
813.703	27599
813.845	27504
813.986	27150
814.127	26994
814.268	26883
814.41	27005
814.551	26857
814.692	26921
814.833	26887
814.974	26986
815.115	26940
815.256	26727
815.397	26785
815.539	26800
815.68	26682
815.821	26697
815.962	26682
816.103	26613
816.244	26598
816.385	26480
816.526	26332
816.666	26362
816.807	26202
816.948	26138
817.089	26210
817.23	26122
817.371	26210
817.512	26210
817.653	26145
817.793	26195
817.934	26244
818.075	26145
818.216	26244
818.356	26145
818.497	26138
818.638	25887
818.778	26012
818.919	26016
819.06	25951
819.2	26119
819.341	26005
819.481	26008
819.622	26225
819.762	26492
819.903	26434
820.043	26328
820.184	26229
820.324	26339
820.465	26263
820.605	26271
820.746	26107
820.886	26073
821.026	26153
821.167	26043
821.307	26336
821.447	26221
821.588	26043
821.728	25989
821.868	25784
822.008	25670
822.149	25628
822.289	25761
822.429	25266
822.569	25373
822.709	25343
822.849	25065
822.99	25110
823.13	25053
823.27	25160
823.41	24962
823.55	24738
823.69	24894
823.83	24913
823.97	24875
824.11	24639
824.25	24692
824.389	24692
824.529	24814
824.669	24764
824.809	24741
824.949	24726
825.089	24806
825.228	24837
825.368	24532
825.508	24566
825.648	24631
825.787	24646
825.927	24852
826.067	24547
826.206	24715
826.346	24646
826.485	24703
826.625	24726
826.765	24688
826.904	24540
827.044	24456
827.183	24323
827.323	24289
827.462	24437
827.601	24357
827.741	24346
827.88	24304
828.02	24243
828.159	24243
828.298	24376
828.437	24410
828.577	24190
828.716	24429
828.855	24266
828.994	24049
829.134	24106
829.273	23923
829.412	23969
829.551	23859
829.69	23863
829.829	24091
829.968	24201
830.107	24057
830.246	23901
830.385	23912
830.524	24053
830.663	23866
830.802	23767
830.941	23611
831.08	23615
831.219	23691
831.357	23684
831.496	23695
831.635	23691
831.774	23531
831.913	23547
832.051	23505
832.19	23429
832.329	23467
832.467	23322
832.606	23223
832.744	23330
832.883	23296
833.022	23402
833.16	23417
833.299	23383
833.437	23353
833.576	23318
833.714	23395
833.852	23368
833.991	23387
834.129	23547
834.267	23478
834.406	23490
834.544	23307
834.682	23421
834.821	23406
834.959	23482
835.097	23315
835.235	23410
835.373	23459
835.511	23448
835.65	23299
835.788	23269
835.926	23185
836.064	22911
836.202	23166
836.34	23299
836.478	23227
836.615	23143
836.753	23200
836.891	23315
837.029	23273
837.167	23280
837.305	23079
837.443	23143
837.58	22919
837.718	23261
837.856	23166
837.993	23143
838.131	23090
838.269	22915
838.406	22911
838.544	22961
838.681	22694
838.819	22672
838.956	22668
839.094	22557
839.231	22626
839.369	22683
839.506	22965
839.643	22839
839.781	22588
839.918	22561
840.055	22538
840.193	22470
840.33	22527
840.467	22500
840.604	22561
840.742	22839
840.879	22325
841.016	22508
841.153	22390
841.29	22668
841.427	22493
841.564	22618
841.701	22577
841.838	22485
841.975	22489
842.112	22276
842.249	22322
842.385	22295
842.522	22367
842.659	22485
842.796	22169
842.933	22261
843.069	22143
843.206	22192
843.343	22284
843.479	22310
843.616	22238
843.752	22116
843.889	22067
844.025	22166
844.162	22078
844.298	22070
844.435	21945
844.571	21953
844.708	22051
844.844	22223
844.98	22238
845.117	22173
845.253	21899
845.389	21975
845.525	21907
845.661	21895
845.798	21709
845.934	21842
846.07	21736
846.206	21770
846.342	21930
846.478	21743
846.614	21656
846.75	21435
846.886	21450
847.022	21595
847.158	21443
847.294	21549
847.429	21538
847.565	21526
847.701	21781
847.837	21279
847.972	21291
848.108	21363
848.244	21382
848.379	21169
848.515	21070
848.65	21154
848.786	21096
848.921	21100
849.057	21199
849.192	21165
849.328	21116
849.463	21127
849.598	21055
849.734	20963
849.869	21070
850.004	20891
850.14	20887
850.275	20906
850.41	20701
850.545	20724
850.68	20861
850.815	20887
850.95	20883
851.085	21074
851.22	20941
851.355	20788
851.49	20902
851.625	20644
851.76	20963
851.895	20758
852.03	20765
852.165	20834
852.299	20967
852.434	21005
852.569	20834
852.703	20807
852.838	20823
852.973	20967
853.107	20979
853.242	20785
853.376	20678
853.511	20530
853.645	20708
853.78	20815
853.914	20724
854.048	20613
854.183	20575
854.317	20769
854.451	20826
854.585	20746
854.72	20617
854.854	20815
854.988	20568
855.122	20743
855.256	20549
855.39	20606
855.524	20705
855.658	20754
855.792	20644
855.926	20693
856.06	20815
856.194	20830
856.327	20549
856.461	20689
856.595	20617
856.729	20754
856.862	20762
856.996	20743
857.13	20830
857.263	20773
857.397	20800
857.53	20705
857.664	20670
857.797	20743
857.931	20906
858.064	20697
858.197	20887
858.331	20602
858.464	20640
858.597	20609
858.731	20724
858.864	20712
858.997	20590
859.13	20632
859.263	20735
859.396	20724
859.529	20651
859.662	20693
859.795	20648
859.928	20739
860.061	20910
860.194	20857
860.327	20777
860.46	20670
860.592	20785
860.725	20807
860.858	20754
860.99	20693
861.123	20655
861.256	20708
861.388	20606
861.521	21176
861.653	20594
861.786	20518
861.918	20537
862.05	20537
862.183	20663
862.315	20758
862.447	20659
862.58	20621
862.712	20503
862.844	20362
862.976	20495
863.108	20552
863.24	20941
863.372	20454
863.504	20473
863.636	20423
863.768	20465
863.9	20400
864.032	20233
864.164	20366
864.296	20495
864.428	20457
864.559	20446
864.691	20404
864.823	20446
864.954	20328
865.086	20404
865.217	20278
865.349	20191
865.48	20301
865.612	20347
865.743	20507
865.875	20305
866.006	20271
866.137	20309
866.269	20389
866.4	20301
866.531	20336
866.662	20206
866.793	20172
866.924	20252
867.055	20351
867.186	20339
867.317	20267
867.448	20145
867.579	20168
867.71	20081
867.841	20199
867.972	20278
868.103	20282
868.233	20290
868.364	20286
868.495	20317
868.625	20511
868.756	20659
868.886	20503
869.017	20503
869.147	20594
869.278	20636
869.408	20526
869.539	20461
869.669	20629
869.799	20571
869.929	20617
870.06	20697
870.19	20868
870.32	20853
870.45	20823
870.58	20758
870.71	20960
870.84	20929
870.97	20849
871.1	20963
871.23	21127
871.36	21192
871.489	20994
871.619	20994
871.749	21127
871.879	21123
872.008	21207
872.138	21176
872.267	21077
872.397	21093
872.526	20956
872.656	20910
872.785	20895
872.915	21138
873.044	21176
873.173	21241
873.303	21116
873.432	21207
873.561	21283
873.69	21157
873.819	21066
873.948	21211
874.077	21119
874.206	20986
874.335	21024
874.464	21195
874.593	21249
874.722	21397
874.851	21458
874.979	21393
875.108	21367
875.237	21226
875.365	21203
875.494	21408
875.623	21492
875.751	21313
875.88	21450
876.008	21561
876.136	21534
876.265	21720
876.393	21888
876.521	21812
876.65	22036
876.778	21819
876.906	21641
877.034	21827
877.162	21930
877.29	21759
877.418	21873
877.546	21743
877.674	21663
877.802	21682
877.93	21785
878.058	21595
878.185	21564
878.313	21618
878.441	21842
878.568	21481
878.696	21648
878.824	21717
878.951	21778
879.079	21816
879.206	22021
879.333	21876
879.461	21892
879.588	21698
879.715	21880
879.842	21964
879.97	21724
880.097	21614
880.224	21553
880.351	21595
880.478	21477
880.605	21576
880.732	21500
880.859	21720
880.986	21504
881.112	21492
881.239	21378
881.366	21252
881.493	21142
881.619	21211
881.746	21123
881.872	21119
881.999	21123
882.125	21074
882.252	20979
882.378	21093
882.505	21321
882.631	20994
882.757	20830
882.883	20963
883.01	20910
883.136	20773
883.262	20804
883.388	20708
883.514	20891
883.64	20941
883.766	20739
883.892	20568
884.018	20667
884.143	20830
884.269	20849
884.395	20625
884.52	20461
884.646	20522
884.772	20404
884.897	20465
885.023	20514
885.148	20602
885.274	20530
885.399	20606
885.524	20461
885.65	20457
885.775	20530
885.9	20488
886.025	20632
886.15	20454
886.275	20343
886.4	20282
886.525	20408
886.65	20454
886.775	20393
886.9	20537
887.025	20705
887.149	20408
887.274	20336
887.399	20313
887.523	20229
887.648	20103
887.773	20183
887.897	20256
888.021	20244
888.146	20248
888.27	20294
888.395	20259
888.519	20199
888.643	20267
888.767	20275
888.891	20100
889.015	20016
889.139	20183
889.263	20005
889.387	20157
889.511	20240
889.635	20218
889.759	19967
889.883	19951
890.006	20142
890.13	20195
890.254	20001
890.377	19970
890.501	19875
890.624	19803
890.748	19879
890.871	19761
890.995	19731
891.118	19521
891.241	19662
891.364	19628
891.488	19814
891.611	19594
891.734	19590
891.857	19734
891.98	19715
892.103	19620
892.226	19635
892.349	19468
892.471	19548
892.594	19590
892.717	19616
892.839	19540
892.962	19643
893.085	19696
893.207	19590
893.33	19620
893.452	19544
893.575	19567
893.697	19521
893.819	19696
893.941	19807
894.064	19681
894.186	19567
894.308	19632
894.43	19620
894.552	19639
894.674	19681
894.796	19556
894.918	19693
895.04	19582
895.161	19647
895.283	19582
895.405	19506
895.526	19651
895.648	19499
895.769	19590
895.891	19620
896.012	19575
896.134	19601
896.255	19651
896.376	19571
896.498	19499
896.619	19734
896.74	19620
896.861	19712
896.982	19875
897.103	19921
897.224	19837
897.345	19761
897.466	19696
897.587	19807
897.708	19982
897.828	19788
897.949	19742
898.07	19693
898.19	19712
898.311	19906
898.431	19830
898.552	19780
898.672	19898
898.792	20001
898.913	19750
899.033	19708
899.153	19537
899.273	19586
899.393	19552
899.513	19605
899.633	19552
899.753	19628
899.873	19445
899.993	19575
900.113	19441
900.232	19506
900.352	19426
900.472	19411
900.591	19282
900.711	19460
900.83	19324
900.95	19278
901.069	19365
901.189	19225
901.308	18954
901.427	18745
901.546	18905
901.665	18859
901.784	18909
901.904	18821
902.023	18703
902.141	18635
902.26	18414
902.379	18513
902.498	18544
902.617	18330
902.735	18384
902.854	18391
902.973	18334
903.091	18167
903.21	18125
903.328	18087
903.446	17984
903.565	17950
903.683	17870
903.801	17760
903.919	17908
904.038	17927
904.156	17722
904.274	17874
904.392	17630
904.51	17657
904.627	17741
904.745	17745
904.863	17798
904.981	17493
905.098	17436
905.216	17379
905.334	17478
905.451	17417
905.569	17345
905.686	17452
905.803	17368
905.921	16995
906.038	17220
906.155	17178
906.272	17029
906.389	17189
906.506	16919
906.623	16968
906.74	16930
906.857	16824
906.974	16721
907.091	16965
907.208	17105
907.324	16850
907.441	16698
907.557	16645
907.674	16637
907.79	16618
907.907	16725
908.023	16668
908.139	16622
908.256	16561
908.372	16516
908.488	16577
908.604	16424
908.72	16322
908.836	16371
908.952	16329
909.068	16451
909.184	16459
909.3	16360
909.415	16382
909.531	16451
909.647	16150
909.762	16074
909.878	16078
909.993	15991
910.108	16006
910.224	16067
910.339	16185
910.454	15953
910.57	15911
910.685	15827
910.8	16082
910.915	16040
911.03	15892
911.145	15705
911.259	15618
911.374	15751
911.489	15625
911.604	15511
911.718	15473
911.833	15408
911.947	15294
912.062	15340
912.176	15469
912.291	15481
912.405	15386
912.519	15580
912.633	15614
912.748	15545
912.862	15336
912.976	15298
913.09	15195
913.204	15207
913.318	15112
913.431	15367
913.545	15283
913.659	15260
913.772	15256
913.886	15146
914	15093
914.113	15264
914.226	15199
914.34	15161
914.453	14990
914.566	15123
914.68	14998
914.793	14864
914.906	14750
915.019	14686
915.132	14697
915.245	14636
915.358	14674
915.47	14758
915.583	14731
915.696	14682
915.809	14788
915.921	14758
916.034	14674
916.146	14575
916.259	14564
916.371	14667
916.483	14526
916.595	14533
916.708	14514
916.82	14499
916.932	14355
917.044	14488
917.156	14400
917.268	14324
917.38	14374
917.491	14328
917.603	14374
917.715	14450
917.826	14480
917.938	14412
918.049	14199
918.161	14256
918.272	14431
918.384	14351
918.495	14259
918.606	14183
918.717	13993
918.828	14092
918.939	14191
919.05	14024
919.161	14107
919.272	13967
919.383	13959
919.494	14138
919.604	14332
919.715	14020
919.826	13875
919.936	14111
920.047	14054
920.157	14084
920.267	14195
920.378	14081
920.488	13974
920.598	14206
920.708	14381
920.818	14202
920.928	14237
921.038	14408
921.148	14358
921.258	14111
921.368	13864
921.477	13830
921.587	13822
921.697	13689
921.806	13849
921.916	13674
922.025	13521
922.134	13559
922.244	13487
922.353	13525
922.462	13316
922.571	13278
922.68	13126
922.789	13133
922.898	13008
923.007	13057
923.116	13141
923.224	13152
923.333	13042
923.442	12958
923.55	13031
923.659	12905
923.767	13046
923.876	12920
923.984	12947
924.092	12829
924.201	12886
924.309	12867
924.417	12886
924.525	12821
924.633	12738
924.741	13841
924.849	12528
924.956	12711
925.064	12559
925.172	12513
925.279	12532
925.387	12604
925.494	12566
925.602	12669
925.709	12574
925.816	12456
925.924	12475
926.031	12677
926.138	12506
926.245	12464
926.352	12437
926.459	12532
926.566	12532
926.673	12456
926.779	12311
926.886	12243
926.993	12148
927.099	12106
927.206	12247
927.312	12140
927.419	12144
927.525	12106
927.631	12140
927.737	12030
927.843	12034
927.95	11882
928.056	11946
928.162	12019
928.267	12125
928.373	12654
928.479	12076
928.585	11866
928.69	11912
928.796	11977
928.901	11840
929.007	11703
929.112	11904
929.218	11771
929.323	11764
929.428	11699
929.533	11904
929.638	11623
929.743	11630
929.848	11668
929.953	11638
930.058	11577
930.163	11387
930.267	11467
930.372	11528
930.477	11372
930.581	11627
930.685	11478
930.79	11315
930.894	11341
930.998	11334
931.103	11398
931.207	11086
931.311	11022
931.415	10942
931.519	10793
931.623	10721
