Data from test_V78500241_1359.txt Node
Date: Fri Mar 25 15:19:19 CST 2022
User: usil
Spectrometer: V785-0024
Trigger mode: 0
Integration Time (sec): 4.000000E-1
Scans to average: 1
Nonlinearity correction enabled: false
Boxcar width: 0
Storing dark spectrum: false
XAxis mode: Wavelengths
Number of Pixels in Spectrum: 1024
>>>>>Begin Spectral Data<<<<<
801.071	28147
801.214	28147
801.356	27850
801.499	27804
801.641	27724
801.783	27667
801.926	27743
802.068	27675
802.211	27629
802.353	27496
802.496	27348
802.638	27412
802.78	27332
802.923	27374
803.065	27180
803.208	27454
803.35	27351
803.492	27386
803.635	27500
803.777	27382
803.919	27492
804.061	27873
804.204	27492
804.346	27587
804.488	27496
804.63	27500
804.773	27496
804.915	27561
805.057	27660
805.199	27622
805.341	27728
805.483	27751
805.626	27766
805.768	27610
805.91	27660
806.052	27850
806.194	27542
806.336	27850
806.478	27804
806.62	27709
806.762	27732
806.904	27907
807.046	28344
807.188	28204
807.33	28101
807.472	28131
807.614	28177
807.756	28109
807.898	28059
808.04	27941
808.182	28040
808.324	27812
808.465	28139
808.607	28196
808.749	28215
808.891	28459
809.033	28535
809.174	28500
809.316	28379
809.458	28341
809.6	28246
809.741	28398
809.883	28527
810.025	28774
810.166	28451
810.308	28550
810.45	28596
810.591	28588
810.733	28291
810.875	28390
811.016	28219
811.158	28280
811.299	28428
811.441	28649
811.582	28417
811.724	28478
811.865	28246
812.007	28329
812.148	28276
812.29	28382
812.431	28637
812.573	28637
812.714	28980
812.855	28824
812.997	28934
813.138	28892
813.279	29014
813.421	28793
813.562	28892
813.703	28763
813.845	28569
813.986	28344
814.127	28036
814.268	28093
814.41	28067
814.551	28173
814.692	28078
814.833	27945
814.974	28093
815.115	28181
815.256	27854
815.397	27968
815.539	27884
815.68	27728
815.821	27724
815.962	27770
816.103	27850
816.244	27766
816.385	27667
816.526	27580
816.666	27492
816.807	27344
816.948	27507
817.089	27431
817.23	27378
817.371	27317
817.512	27378
817.653	27351
817.793	27272
817.934	27359
818.075	27370
818.216	27370
818.356	27370
818.497	27233
818.638	27157
818.778	27081
818.919	27116
819.06	27146
819.2	27218
819.341	27355
819.481	27283
819.622	27515
819.762	27614
819.903	27667
820.043	27507
820.184	27424
820.324	27351
820.465	27576
820.605	27412
820.746	27447
820.886	27329
821.026	27408
821.167	27291
821.307	27420
821.447	27466
821.588	27306
821.728	27100
821.868	27051
822.008	26804
822.149	26842
822.289	26705
822.429	26598
822.569	26419
822.709	26514
822.849	26370
822.99	26453
823.13	26336
823.27	26210
823.41	26058
823.55	26039
823.69	26210
823.83	26168
823.97	26161
824.11	26043
824.25	25822
824.389	25944
824.529	26126
824.669	25940
824.809	26168
824.949	26088
825.089	26100
825.228	26100
825.368	25769
825.508	25902
825.648	25837
825.787	26027
825.927	25887
826.067	25715
826.206	25727
826.346	25955
826.485	26035
826.625	25750
826.765	26073
826.904	25833
827.044	25616
827.183	25689
827.323	25575
827.462	25670
827.601	25643
827.741	25601
827.88	25624
828.02	25552
828.159	25594
828.298	25571
828.437	25708
828.577	25571
828.716	25689
828.855	25426
828.994	25255
829.134	25247
829.273	25350
829.412	25247
829.551	25255
829.69	25346
829.829	25289
829.968	25343
830.107	25415
830.246	25255
830.385	25084
830.524	25259
830.663	25209
830.802	25008
830.941	24825
831.08	24958
831.219	25099
831.357	25076
831.496	25008
831.635	25027
831.774	24821
831.913	24734
832.051	24627
832.19	24620
832.329	24787
832.467	24559
832.606	24612
832.744	24418
832.883	24479
833.022	24486
833.16	24608
833.299	24696
833.437	24631
833.576	24772
833.714	24684
833.852	24631
833.991	24631
834.129	24730
834.267	24650
834.406	24540
834.544	24779
834.682	24650
834.821	24738
834.959	24814
835.097	24635
835.235	24623
835.373	24551
835.511	24673
835.65	24509
835.788	24532
835.926	24384
836.064	24224
836.202	24296
836.34	24452
836.478	24452
836.615	24418
836.753	24479
836.891	24566
837.029	24460
837.167	24300
837.305	24281
837.443	24357
837.58	24281
837.718	24350
837.856	24300
837.993	24254
838.131	24342
838.269	24057
838.406	24304
838.544	24102
838.681	23984
838.819	23832
838.956	23752
839.094	23672
839.231	23866
839.369	23965
839.506	24098
839.643	24174
839.781	23836
839.918	23661
840.055	23668
840.193	23836
840.33	23653
840.467	23562
840.604	23558
840.742	23790
840.879	23440
841.016	23600
841.153	23554
841.29	23760
841.427	23627
841.564	23634
841.701	23714
841.838	23627
841.975	23531
842.112	23551
842.249	23478
842.385	23452
842.522	23805
842.659	23417
842.796	23406
842.933	23391
843.069	23273
843.206	23376
843.343	23425
843.479	23410
843.616	23402
843.752	23299
843.889	23231
844.025	23349
844.162	23159
844.298	23318
844.435	23261
844.571	23105
844.708	23162
844.844	23383
844.98	23258
845.117	23288
845.253	23094
845.389	23048
845.525	23022
845.661	23090
845.798	22889
845.934	23105
846.07	22908
846.206	22942
846.342	23067
846.478	22767
846.614	22733
846.75	22637
846.886	22596
847.022	22679
847.158	22622
847.294	22725
847.429	22820
847.565	22729
847.701	22904
847.837	22417
847.972	22379
848.108	22561
848.244	22417
848.379	22303
848.515	22200
848.65	22166
848.786	22333
848.921	22261
849.057	22265
849.192	22261
849.328	22295
849.463	22306
849.598	22101
849.734	22116
849.869	21972
850.004	22067
850.14	22029
850.275	22074
850.41	21979
850.545	21857
850.68	22040
850.815	22010
850.95	21865
851.085	22032
851.22	22204
851.355	22067
851.49	21991
851.625	22021
851.76	22055
851.895	21926
852.03	22044
852.165	22002
852.299	21994
852.434	21934
852.569	22051
852.703	21869
852.838	22173
852.973	22093
853.107	22082
853.242	21865
853.376	21789
853.511	21724
853.645	21751
853.78	21922
853.914	21842
854.048	21816
854.183	21880
854.317	21831
854.451	21975
854.585	21842
854.72	21797
854.854	21873
854.988	21713
855.122	21781
855.256	21701
855.39	21827
855.524	21743
855.658	21869
855.792	21831
855.926	21888
856.06	21846
856.194	21816
856.327	21797
856.461	21835
856.595	21774
856.729	21747
856.862	21838
856.996	21846
857.13	21918
857.263	21915
857.397	21766
857.53	21838
857.664	21876
857.797	21778
857.931	21945
858.064	21884
858.197	21835
858.331	21797
858.464	21781
858.597	21667
858.731	21713
858.864	21732
858.997	21724
859.13	21842
859.263	21937
859.396	22025
859.529	21789
859.662	21778
859.795	21629
859.928	21838
860.061	22013
860.194	22078
860.327	21941
860.46	21888
860.592	21895
860.725	21994
860.858	21937
860.99	21789
861.123	21838
861.256	21736
861.388	21804
861.521	22371
861.653	21568
861.786	21534
861.918	21618
862.05	21675
862.183	21709
862.315	21778
862.447	21778
862.58	21717
862.712	21557
862.844	21557
862.976	21553
863.108	21526
863.24	21873
863.372	21450
863.504	21485
863.636	21534
863.768	21530
863.9	21500
864.032	21469
864.164	21477
864.296	21625
864.428	21606
864.559	21576
864.691	21519
864.823	21462
864.954	21515
865.086	21545
865.217	21393
865.349	21340
865.48	21435
865.612	21450
865.743	21606
865.875	21454
866.006	21458
866.137	21298
866.269	21416
866.4	21389
866.531	21408
866.662	21279
866.793	21313
866.924	21222
867.055	21378
867.186	21363
867.317	21306
867.448	21287
867.579	21123
867.71	21245
867.841	21298
867.972	21412
868.103	21291
868.233	21294
868.364	21412
868.495	21325
868.625	21580
868.756	21728
868.886	21553
869.017	21450
869.147	21679
869.278	21580
869.408	21572
869.539	21534
869.669	21614
869.799	21576
869.929	21671
870.06	21660
870.19	21884
870.32	21873
870.45	21960
870.58	21903
870.71	22044
870.84	22059
870.97	21956
871.1	21968
871.23	22120
871.36	22101
871.489	21869
871.619	21994
871.749	22185
871.879	22116
872.008	22295
872.138	22200
872.267	22139
872.397	22036
872.526	21941
872.656	21994
872.785	21937
872.915	22158
873.044	22188
873.173	22135
873.303	22234
873.432	22116
873.561	22303
873.69	22318
873.819	22188
873.948	22173
874.077	22238
874.206	22101
874.335	22192
874.464	22204
874.593	22440
874.722	22287
874.851	22413
874.979	22356
875.108	22455
875.237	22352
875.365	22356
875.494	22329
875.623	22459
875.751	22253
875.88	22379
876.008	22493
876.136	22573
876.265	22847
876.393	22908
876.521	22828
876.65	22953
876.778	22797
876.906	22744
877.034	22736
877.162	22767
877.29	22698
877.418	22679
877.546	22683
877.674	22736
877.802	22630
877.93	22755
878.058	22584
878.185	22592
878.313	22839
878.441	22767
878.568	22599
878.696	22538
878.824	22790
878.951	22725
879.079	22812
879.206	23086
879.333	22911
879.461	22755
879.588	22778
879.715	22930
879.842	22927
879.97	22774
880.097	22630
880.224	22478
880.351	22569
880.478	22634
880.605	22538
880.732	22474
880.859	22900
880.986	22569
881.112	22584
881.239	22402
881.366	22310
881.493	22200
881.619	22090
881.746	22181
881.872	22070
881.999	22044
882.125	21994
882.252	22219
882.378	22139
882.505	22295
882.631	22059
882.757	21956
882.883	21964
883.01	21835
883.136	21732
883.262	21762
883.388	21709
883.514	21850
883.64	21747
883.766	21842
883.892	21599
884.018	21633
884.143	21827
884.269	21797
884.395	21466
884.52	21477
884.646	21526
884.772	21378
884.897	21317
885.023	21466
885.148	21530
885.274	21583
885.399	21557
885.524	21389
885.65	21458
885.775	21428
885.9	21374
886.025	21538
886.15	21450
886.275	21428
886.4	21416
886.525	21412
886.65	21408
886.775	21298
886.9	21583
887.025	21591
887.149	21424
887.274	21154
887.399	21203
887.523	21245
887.648	21249
887.773	21077
887.897	21336
888.021	21188
888.146	21214
888.27	21351
888.395	21211
888.519	21298
888.643	21188
888.767	21321
888.891	20998
889.015	21074
889.139	21062
889.263	20921
889.387	21032
889.511	21135
889.635	21173
889.759	20979
889.883	20933
890.006	20963
890.13	21112
890.254	21001
890.377	20963
890.501	20804
890.624	20663
890.748	20674
890.871	20636
890.995	20499
891.118	20522
891.241	20526
891.364	20564
891.488	20667
891.611	20533
891.734	20511
891.857	20594
891.98	20583
892.103	20549
892.226	20640
892.349	20541
892.471	20374
892.594	20366
892.717	20575
892.839	20465
892.962	20518
893.085	20606
893.207	20423
893.33	20427
893.452	20366
893.575	20434
893.697	20484
893.819	20648
893.941	20636
894.064	20492
894.186	20446
894.308	20412
894.43	20564
894.552	20670
894.674	20568
894.796	20385
894.918	20473
895.04	20355
895.161	20495
895.283	20530
895.405	20381
895.526	20450
895.648	20412
895.769	20476
895.891	20545
896.012	20598
896.134	20446
896.255	20537
896.376	20328
896.498	20450
896.619	20465
896.74	20419
896.861	20518
896.982	20746
897.103	20788
897.224	20765
897.345	20792
897.466	20541
897.587	20746
897.708	20762
897.828	20716
897.949	20541
898.07	20526
898.19	20545
898.311	20739
898.431	20575
898.552	20689
898.672	20769
898.792	20724
898.913	20659
899.033	20469
899.153	20332
899.273	20396
899.393	20393
899.513	20419
899.633	20465
899.753	20469
899.873	20339
899.993	20461
900.113	20309
900.232	20438
900.352	20294
900.472	20244
900.591	20126
900.711	20233
900.83	20153
900.95	20263
901.069	20237
901.189	20054
901.308	19906
901.427	19788
901.546	19818
901.665	19655
901.784	19814
901.904	19563
902.023	19571
902.141	19396
902.26	19369
902.379	19324
902.498	19228
902.617	19244
902.735	19343
902.854	19217
902.973	19282
903.091	18958
903.21	18863
903.328	18996
903.446	18848
903.565	18821
903.683	18856
903.801	18700
903.919	18798
904.038	18795
904.156	18521
904.274	18627
904.392	18467
904.51	18388
904.627	18528
904.745	18479
904.863	18528
904.981	18365
905.098	18277
905.216	18232
905.334	18285
905.451	18155
905.569	18220
905.686	18254
905.803	18235
905.921	17832
906.038	18045
906.155	18049
906.272	17866
906.389	17843
906.506	17718
906.623	17752
906.74	17745
906.857	17741
906.974	17710
907.091	17828
907.208	17813
907.324	17783
907.441	17642
907.557	17482
907.674	17436
907.79	17516
907.907	17512
908.023	17600
908.139	17433
908.256	17406
908.372	17299
908.488	17330
908.604	17311
908.72	17117
908.836	17105
908.952	17064
909.068	17345
909.184	17318
909.3	17254
909.415	17083
909.531	17193
909.647	16885
909.762	16911
909.878	16831
909.993	16942
910.108	16847
910.224	16869
910.339	16976
910.454	16725
910.57	16717
910.685	16675
910.8	16850
910.915	16812
911.03	16569
911.145	16603
911.259	16379
911.374	16470
911.489	16432
911.604	16371
911.718	16150
911.833	16074
911.947	16131
912.062	16086
912.176	16078
912.291	16150
912.405	16166
912.519	16341
912.633	16360
912.748	16322
912.862	16192
912.976	16097
913.09	15857
913.204	15953
913.318	15895
913.431	16128
913.545	16055
913.659	16162
913.772	15975
913.886	15732
914	15812
914.113	15915
914.226	15804
914.34	15800
914.453	15637
914.566	15804
914.68	15686
914.793	15679
914.906	15507
915.019	15458
915.132	15329
915.245	15389
915.358	15534
915.47	15447
915.583	15397
915.696	15416
915.809	15523
915.921	15458
916.034	15382
916.146	15287
916.259	15310
916.371	15397
916.483	15256
916.595	15272
916.708	15230
916.82	15237
916.932	15218
917.044	15142
917.156	15157
917.268	15097
917.38	15131
917.491	15001
917.603	15051
917.715	15169
917.826	15097
917.938	14952
918.049	14819
918.161	14948
918.272	15123
918.384	15062
918.495	14990
918.606	14815
918.717	14735
918.828	14788
918.939	14914
919.05	14727
919.161	14823
919.272	14625
919.383	14667
919.494	14819
919.604	15028
919.715	14674
919.826	14705
919.936	14701
920.047	14792
920.157	14845
920.267	14899
920.378	14800
920.488	14663
920.598	14925
920.708	14975
920.818	14845
920.928	14918
921.038	15043
921.148	14979
921.258	14667
921.368	14636
921.477	14473
921.587	14457
921.697	14366
921.806	14549
921.916	14355
922.025	14202
922.134	14119
922.244	14130
922.353	14172
922.462	13967
922.571	13936
922.68	13860
922.789	13772
922.898	13826
923.007	13677
923.116	13803
923.224	13738
923.333	13696
923.442	13639
923.55	13537
923.659	13674
923.767	13666
923.876	13590
923.984	13559
924.092	13464
924.201	13540
924.309	13510
924.417	13518
924.525	13499
924.633	13449
924.741	14153
924.849	13114
924.956	13304
925.064	13187
925.172	13110
925.279	13183
925.387	13263
925.494	13129
925.602	13373
925.709	13168
925.816	13000
925.924	13187
926.031	13228
926.138	13065
926.245	13251
926.352	13008
926.459	13084
926.566	13198
926.673	13103
926.779	12901
926.886	12890
926.993	12779
927.099	12734
927.206	12700
927.312	12639
927.419	12757
927.525	12696
927.631	12779
927.737	12623
927.843	12585
927.95	12433
928.056	12479
928.162	12574
928.267	12585
928.373	13198
928.479	12604
928.585	12388
928.69	12464
928.796	12486
928.901	12365
929.007	12254
929.112	12330
929.218	12334
929.323	12285
929.428	12315
929.533	12380
929.638	12270
929.743	12167
929.848	12171
929.953	12110
930.058	12072
930.163	11946
930.267	12022
930.372	12060
930.477	11916
930.581	12228
930.685	12034
930.79	11821
930.894	11935
930.998	11908
931.103	11946
931.207	11596
931.311	11539
931.415	11398
931.519	11174
931.623	11151
