Data from test_V78500241_2344.txt Node
Date: Fri Mar 25 15:26:10 CST 2022
User: usil
Spectrometer: V785-0024
Trigger mode: 0
Integration Time (sec): 4.000000E-1
Scans to average: 1
Nonlinearity correction enabled: false
Boxcar width: 0
Storing dark spectrum: false
XAxis mode: Wavelengths
Number of Pixels in Spectrum: 1024
>>>>>Begin Spectral Data<<<<<
801.071	27458
801.214	27393
801.356	27230
801.499	27070
801.641	26952
801.783	26960
801.926	27070
802.068	26899
802.211	26811
802.353	26891
802.496	26796
802.638	26644
802.78	26636
802.923	26636
803.065	26552
803.208	26556
803.35	26568
803.492	26880
803.635	26853
803.777	26663
803.919	26800
804.061	27100
804.204	26982
804.346	26876
804.488	26746
804.63	26933
804.773	26743
804.915	26716
805.057	27032
805.199	26781
805.341	26826
805.483	26960
805.626	26823
805.768	26651
805.91	26994
806.052	26857
806.194	26948
806.336	26956
806.478	26971
806.62	26960
806.762	27123
806.904	27165
807.046	27351
807.188	27367
807.33	27348
807.472	27431
807.614	27310
807.756	27348
807.898	27165
808.04	27157
808.182	27058
808.324	27222
808.465	27393
808.607	27321
808.749	27435
808.891	27450
809.033	27732
809.174	27568
809.316	27591
809.458	27462
809.6	27507
809.741	27641
809.883	27732
810.025	27831
810.166	27850
810.308	27823
810.45	27797
810.591	27656
810.733	27500
810.875	27545
811.016	27496
811.158	27416
811.299	27610
811.441	27694
811.582	27622
811.724	27427
811.865	27538
812.007	27538
812.148	27488
812.29	27587
812.431	27698
812.573	27911
812.714	27930
812.855	27918
812.997	27998
813.138	28166
813.279	28154
813.421	28017
813.562	27888
813.703	27873
813.845	27690
813.986	27386
814.127	27306
814.268	27302
814.41	27363
814.551	27199
814.692	27249
814.833	27093
814.974	27138
815.115	27199
815.256	27096
815.397	27020
815.539	27074
815.68	27085
815.821	27013
815.962	27036
816.103	26994
816.244	26861
816.385	26758
816.526	26826
816.666	26514
816.807	26385
816.948	26488
817.089	26621
817.23	26507
817.371	26552
817.512	26514
817.653	26453
817.793	26313
817.934	26495
818.075	26374
818.216	26606
818.356	26476
818.497	26419
818.638	26240
818.778	26202
818.919	26214
819.06	26313
819.2	26374
819.341	26469
819.481	26522
819.622	26568
819.762	26769
819.903	26727
820.043	26667
820.184	26632
820.324	26522
820.465	26632
820.605	26450
820.746	26469
820.886	26453
821.026	26518
821.167	26526
821.307	26545
821.447	26408
821.588	26427
821.728	26389
821.868	26115
822.008	25940
822.149	25932
822.289	26024
822.429	25700
822.569	25567
822.709	25594
822.849	25419
822.99	25457
823.13	25422
823.27	25407
823.41	25270
823.55	25126
823.69	25232
823.83	25354
823.97	25175
824.11	25129
824.25	24992
824.389	24973
824.529	25107
824.669	25061
824.809	25228
824.949	25171
825.089	25107
825.228	25050
825.368	24863
825.508	24977
825.648	24985
825.787	24932
825.927	24996
826.067	24882
826.206	24894
826.346	24970
826.485	24954
826.625	24875
826.765	25225
826.904	25129
827.044	24772
827.183	24760
827.323	24620
827.462	24677
827.601	24669
827.741	24722
827.88	24608
828.02	24471
828.159	24700
828.298	24555
828.437	24760
828.577	24582
828.716	24669
828.855	24528
828.994	24292
829.134	24433
829.273	24498
829.412	24426
829.551	24228
829.69	24289
829.829	24410
829.968	24399
830.107	24285
830.246	24353
830.385	24296
830.524	24270
830.663	24171
830.802	23950
830.941	23946
831.08	23874
831.219	24098
831.357	24114
831.496	24144
831.635	23977
831.774	23893
831.913	23920
832.051	23832
832.19	23710
832.329	23790
832.467	23676
832.606	23505
832.744	23577
832.883	23676
833.022	23619
833.16	23745
833.299	23779
833.437	23718
833.576	23798
833.714	23726
833.852	23786
833.991	23657
834.129	23726
834.267	23767
834.406	23665
834.544	23710
834.682	23653
834.821	23737
834.959	23908
835.097	23642
835.235	23745
835.373	23760
835.511	23786
835.65	23566
835.788	23577
835.926	23311
836.064	23379
836.202	23349
836.34	23543
836.478	23585
836.615	23558
836.753	23467
836.891	23581
837.029	23585
837.167	23528
837.305	23455
837.443	23368
837.58	23360
837.718	23372
837.856	23467
837.993	23448
838.131	23337
838.269	23261
838.406	23311
838.544	23212
838.681	23109
838.819	22965
838.956	22733
839.094	22755
839.231	22953
839.369	22995
839.506	23307
839.643	23109
839.781	22835
839.918	22717
840.055	22889
840.193	22896
840.33	22869
840.467	22733
840.604	22740
840.742	23105
840.879	22706
841.016	22645
841.153	22771
841.29	22869
841.427	22710
841.564	22915
841.701	22759
841.838	22809
841.975	22618
842.112	22645
842.249	22550
842.385	22485
842.522	22713
842.659	22577
842.796	22554
842.933	22470
843.069	22535
843.206	22489
843.343	22653
843.479	22554
843.616	22573
843.752	22329
843.889	22348
844.025	22519
844.162	22242
844.298	22371
844.435	22219
844.571	22325
844.708	22424
844.844	22626
844.98	22382
845.117	22413
845.253	22188
845.389	22105
845.525	22223
845.661	22124
845.798	22002
845.934	22135
846.07	22025
846.206	22059
846.342	22158
846.478	21884
846.614	21808
846.75	21755
846.886	21880
847.022	21907
847.158	21838
847.294	21945
847.429	21778
847.565	21675
847.701	21956
847.837	21530
847.972	21526
848.108	21637
848.244	21644
848.379	21466
848.515	21412
848.65	21435
848.786	21332
848.921	21408
849.057	21466
849.192	21469
849.328	21344
849.463	21428
849.598	21310
849.734	21256
849.869	21272
850.004	21173
850.14	21104
850.275	21093
850.41	21085
850.545	21081
850.68	21146
850.815	21104
850.95	21135
851.085	21336
851.22	21329
851.355	21199
851.49	21131
851.625	21081
851.76	21055
851.895	20998
852.03	21001
852.165	21165
852.299	21142
852.434	21188
852.569	21226
852.703	21161
852.838	21146
852.973	21123
853.107	21256
853.242	21161
853.376	20944
853.511	20823
853.645	20895
853.78	21070
853.914	20937
854.048	20956
854.183	20948
854.317	20902
854.451	21051
854.585	20902
854.72	20971
854.854	21032
854.988	20933
855.122	20895
855.256	20906
855.39	21013
855.524	21066
855.658	20971
855.792	21020
855.926	20998
856.06	21047
856.194	21093
856.327	20960
856.461	20910
856.595	20941
856.729	20933
856.862	21066
856.996	21017
857.13	21009
857.263	21001
857.397	21062
857.53	20967
857.664	21051
857.797	21074
857.931	20994
858.064	21093
858.197	20952
858.331	20891
858.464	20990
858.597	20880
858.731	20967
858.864	20857
858.997	20887
859.13	20941
859.263	20990
859.396	20967
859.529	20910
859.662	20982
859.795	20781
859.928	20941
860.061	21131
860.194	21062
860.327	20937
860.46	21028
860.592	21138
860.725	21203
860.858	21173
860.99	20899
861.123	20960
861.256	20868
861.388	20971
861.521	21454
861.653	20986
861.786	20712
861.918	20648
862.05	20876
862.183	20895
862.315	20868
862.447	20967
862.58	20739
862.712	20735
862.844	20693
862.976	20765
863.108	20807
863.24	21142
863.372	20621
863.504	20613
863.636	20697
863.768	20724
863.9	20678
864.032	20446
864.164	20560
864.296	20739
864.428	20750
864.559	20815
864.691	20731
864.823	20708
864.954	20663
865.086	20598
865.217	20648
865.349	20575
865.48	20575
865.612	20659
865.743	20636
865.875	20514
866.006	20590
866.137	20541
866.269	20450
866.4	20568
866.531	20442
866.662	20457
866.793	20358
866.924	20549
867.055	20552
867.186	20541
867.317	20560
867.448	20317
867.579	20575
867.71	20419
867.841	20427
867.972	20442
868.103	20518
868.233	20568
868.364	20503
868.495	20674
868.625	20587
868.756	20750
868.886	20556
869.017	20663
869.147	20769
869.278	20868
869.408	20849
869.539	20659
869.669	20849
869.799	20765
869.929	20762
870.06	20895
870.19	21203
870.32	21028
870.45	21165
870.58	21146
870.71	21214
870.84	21184
870.97	21089
871.1	21123
871.23	21416
871.36	21233
871.489	21298
871.619	21348
871.749	21287
871.879	21393
872.008	21336
872.138	21466
872.267	21401
872.397	21123
872.526	21108
872.656	21154
872.785	21180
872.915	21382
873.044	21458
873.173	21283
873.303	21321
873.432	21378
873.561	21439
873.69	21389
873.819	21237
873.948	21458
874.077	21363
874.206	21336
874.335	21275
874.464	21393
874.593	21694
874.722	21523
874.851	21603
874.979	21591
875.108	21599
875.237	21507
875.365	21447
875.494	21606
875.623	21656
875.751	21519
875.88	21603
876.008	21713
876.136	21770
876.265	21888
876.393	22147
876.521	22131
876.65	22044
876.778	22162
876.906	21895
877.034	21937
877.162	21918
877.29	21903
877.418	21953
877.546	22002
877.674	21884
877.802	21903
877.93	21926
878.058	21899
878.185	21827
878.313	21880
878.441	21903
878.568	21812
878.696	21930
878.824	22025
878.951	21941
879.079	22105
879.206	22223
879.333	21991
879.461	22112
879.588	22021
879.715	22021
879.842	22196
879.97	22051
880.097	21823
880.224	21781
880.351	21713
880.478	21717
880.605	21694
880.732	21804
880.859	21930
880.986	21861
881.112	21838
881.239	21724
881.366	21538
881.493	21389
881.619	21450
881.746	21526
881.872	21317
881.999	21306
882.125	21386
882.252	21393
882.378	21420
882.505	21435
882.631	21245
882.757	21135
882.883	21169
883.01	21028
883.136	20975
883.262	20914
883.388	20876
883.514	21055
883.64	21093
883.766	20963
883.892	20823
884.018	20864
884.143	21036
884.269	21127
884.395	20800
884.52	20773
884.646	20663
884.772	20678
884.897	20587
885.023	20644
885.148	20731
885.274	20800
885.399	20842
885.524	20777
885.65	20731
885.775	20712
885.9	20762
886.025	20708
886.15	20701
886.275	20651
886.4	20522
886.525	20712
886.65	20640
886.775	20625
886.9	20800
887.025	20902
887.149	20613
887.274	20537
887.399	20412
887.523	20362
887.648	20434
887.773	20336
887.897	20552
888.021	20606
888.146	20450
888.27	20511
888.395	20503
888.519	20473
888.643	20423
888.767	20545
888.891	20450
889.015	20362
889.139	20259
889.263	20275
889.387	20400
889.511	20533
889.635	20412
889.759	20381
889.883	20374
890.006	20294
890.13	20339
890.254	20244
890.377	20172
890.501	20168
890.624	20043
890.748	20046
890.871	20039
890.995	19883
891.118	19811
891.241	19803
891.364	19811
891.488	19887
891.611	19921
891.734	19795
891.857	19883
891.98	19841
892.103	19932
892.226	19913
892.349	19811
892.471	19708
892.594	19772
892.717	19811
892.839	19814
892.962	19845
893.085	19822
893.207	19856
893.33	19639
893.452	19715
893.575	19845
893.697	19765
893.819	19875
893.941	20050
894.064	19871
894.186	19712
894.308	19677
894.43	19909
894.552	19909
894.674	19712
894.796	19639
894.918	19765
895.04	19628
895.161	19757
895.283	19731
895.405	19723
895.526	19769
895.648	19723
895.769	19780
895.891	19753
896.012	19940
896.134	19788
896.255	19791
896.376	19723
896.498	19784
896.619	19791
896.74	19632
896.861	19769
896.982	20195
897.103	20191
897.224	20084
897.345	19921
897.466	19932
897.587	20050
897.708	20180
897.828	19982
897.949	19928
898.07	19951
898.19	19845
898.311	20069
898.431	19879
898.552	20001
898.672	20031
898.792	20031
898.913	19982
899.033	19875
899.153	19803
899.273	19647
899.393	19693
899.513	19757
899.633	19761
899.753	19799
899.873	19727
899.993	19769
900.113	19753
900.232	19753
900.352	19635
900.472	19590
900.591	19556
900.711	19594
900.83	19510
900.95	19605
901.069	19632
901.189	19419
901.308	19274
901.427	19088
901.546	19251
901.665	19179
901.784	19095
901.904	19004
902.023	18913
902.141	18791
902.26	18654
902.379	18661
902.498	18604
902.617	18521
902.735	18574
902.854	18585
902.973	18525
903.091	18273
903.21	18399
903.328	18247
903.446	18140
903.565	18098
903.683	18228
903.801	18007
903.919	18072
904.038	18072
904.156	17988
904.274	17927
904.392	17912
904.51	17847
904.627	17882
904.745	17965
904.863	17920
904.981	17767
905.098	17596
905.216	17551
905.334	17592
905.451	17585
905.569	17490
905.686	17699
905.803	17630
905.921	17299
906.038	17471
906.155	17318
906.272	17261
906.389	17273
906.506	17223
906.623	17075
906.74	17086
906.857	16984
906.974	17010
907.091	17220
907.208	17254
907.324	17064
907.441	16991
907.557	16869
907.674	16854
907.79	16797
907.907	16736
908.023	16930
908.139	16828
908.256	16752
908.372	16675
908.488	16736
908.604	16573
908.72	16577
908.836	16546
908.952	16527
909.068	16554
909.184	16713
909.3	16485
909.415	16542
909.531	16474
909.647	16363
909.762	16314
909.878	16173
909.993	16230
910.108	16181
910.224	16246
910.339	16181
910.454	16090
910.57	16109
910.685	15968
910.8	16226
910.915	16207
911.03	16109
911.145	15838
911.259	15865
911.374	15892
911.489	15648
911.604	15778
911.718	15584
911.833	15564
911.947	15431
912.062	15450
912.176	15618
912.291	15549
912.405	15526
912.519	15671
912.633	15762
912.748	15656
912.862	15530
912.976	15447
913.09	15325
913.204	15401
913.318	15382
913.431	15447
913.545	15519
913.659	15458
913.772	15428
913.886	15310
914	15173
914.113	15367
914.226	15310
914.34	15355
914.453	15176
914.566	15184
914.68	15176
914.793	15112
914.906	14925
915.019	14868
915.132	14785
915.245	14796
915.358	14864
915.47	14823
915.583	14857
915.696	14842
915.809	14864
915.921	14861
916.034	14720
916.146	14705
916.259	14720
916.371	14883
916.483	14750
916.595	14785
916.708	14651
916.82	14583
916.932	14610
917.044	14545
917.156	14590
917.268	14602
917.38	14602
917.491	14381
917.603	14492
917.715	14579
917.826	14495
917.938	14415
918.049	14404
918.161	14457
918.272	14556
918.384	14537
918.495	14476
918.606	14290
918.717	14161
918.828	14229
918.939	14263
919.05	14214
919.161	14199
919.272	14050
919.383	14157
919.494	14324
919.604	14522
919.715	14233
919.826	14191
919.936	14183
920.047	14336
920.157	14168
920.267	14370
920.378	14210
920.488	14176
920.598	14377
920.708	14533
920.818	14282
920.928	14343
921.038	14495
921.148	14461
921.258	14202
921.368	14062
921.477	14035
921.587	13970
921.697	13780
921.806	13967
921.916	13765
922.025	13738
922.134	13628
922.244	13613
922.353	13639
922.462	13544
922.571	13430
922.68	13316
922.789	13289
922.898	13297
923.007	13247
923.116	13301
923.224	13198
923.333	13175
923.442	13065
923.55	13069
923.659	13114
923.767	13194
923.876	13027
923.984	13107
924.092	13065
924.201	12951
924.309	12981
924.417	12989
924.525	12913
924.633	12924
924.741	13799
924.849	12734
924.956	12905
925.064	12741
925.172	12650
925.279	12757
925.387	12677
925.494	12711
925.602	12722
925.709	12707
925.816	12551
925.924	12715
926.031	12684
926.138	12620
926.245	12692
926.352	12555
926.459	12642
926.566	12700
926.673	12536
926.779	12410
926.886	12407
926.993	12334
927.099	12171
927.206	12239
927.312	12296
927.419	12319
927.525	12292
927.631	12346
927.737	12281
927.843	12087
927.95	11973
928.056	12148
928.162	12106
928.267	12155
928.373	12715
928.479	12182
928.585	11920
928.69	12041
928.796	12068
928.901	12060
929.007	11847
929.112	11942
929.218	11893
929.323	11908
929.428	11866
929.533	11901
929.638	11771
929.743	11680
929.848	11828
929.953	11779
930.058	11608
930.163	11459
930.267	11551
930.372	11695
930.477	11493
930.581	11657
930.685	11585
930.79	11417
930.894	11414
930.998	11349
931.103	11589
931.207	11128
931.311	11060
931.415	11010
931.519	10862
931.623	10752
