Data from test_V78500241_3061.txt Node
Date: Fri Mar 25 15:31:10 CST 2022
User: usil
Spectrometer: V785-0024
Trigger mode: 0
Integration Time (sec): 4.000000E-1
Scans to average: 1
Nonlinearity correction enabled: false
Boxcar width: 0
Storing dark spectrum: false
XAxis mode: Wavelengths
Number of Pixels in Spectrum: 1024
>>>>>Begin Spectral Data<<<<<
801.071	27348
801.214	27245
801.356	27123
801.499	26929
801.641	26689
801.783	26887
801.926	26906
802.068	26853
802.211	26853
802.353	26613
802.496	26404
802.638	26530
802.78	26450
802.923	26313
803.065	26301
803.208	26366
803.35	26381
803.492	26568
803.635	26640
803.777	26408
803.919	26560
804.061	27017
804.204	26762
804.346	26621
804.488	26689
804.63	26701
804.773	26602
804.915	26480
805.057	26590
805.199	26290
805.341	26663
805.483	26659
805.626	26648
805.768	26663
805.91	26701
806.052	26640
806.194	26621
806.336	26845
806.478	26765
806.62	26670
806.762	26868
806.904	26929
807.046	27161
807.188	27195
807.33	27150
807.472	27165
807.614	27066
807.756	26948
807.898	26937
808.04	26887
808.182	26918
808.324	26986
808.465	27017
808.607	27237
808.749	27252
808.891	27363
809.033	27458
809.174	27374
809.316	27214
809.458	27363
809.6	27268
809.741	27298
809.883	27454
810.025	27416
810.166	27675
810.308	27553
810.45	27534
810.591	27481
810.733	27252
810.875	27237
811.016	27199
811.158	27150
811.299	27526
811.441	27507
811.582	27427
811.724	27252
811.865	27218
812.007	27192
812.148	27420
812.29	27260
812.431	27386
812.573	27496
812.714	27705
812.855	27739
812.997	27975
813.138	28032
813.279	27884
813.421	27869
813.562	27686
813.703	27576
813.845	27344
813.986	27218
814.127	27005
814.268	26880
814.41	26921
814.551	26887
814.692	26971
814.833	26788
814.974	26853
815.115	27001
815.256	26663
815.397	26944
815.539	26895
815.68	26750
815.821	26769
815.962	26731
816.103	26727
816.244	26499
816.385	26457
816.526	26431
816.666	26309
816.807	26088
816.948	26240
817.089	26336
817.23	26122
817.371	26252
817.512	26058
817.653	26176
817.793	26122
817.934	26149
818.075	26347
818.216	26347
818.356	26073
818.497	25940
818.638	25837
818.778	26016
818.919	26043
819.06	25993
819.2	26164
819.341	26202
819.481	26149
819.622	26339
819.762	26541
819.903	26412
820.043	26301
820.184	26298
820.324	26385
820.465	26309
820.605	26275
820.746	26256
820.886	26172
821.026	26298
821.167	26275
821.307	26320
821.447	26252
821.588	26134
821.728	26073
821.868	25852
822.008	25700
822.149	25685
822.289	25693
822.429	25304
822.569	25377
822.709	25312
822.849	25137
822.99	25225
823.13	25168
823.27	25209
823.41	25065
823.55	24966
823.69	24920
823.83	24985
823.97	24966
824.11	24734
824.25	24916
824.389	24779
824.529	24753
824.669	24825
824.809	24791
824.949	24924
825.089	24772
825.228	24802
825.368	24700
825.508	24639
825.648	24582
825.787	24772
825.927	24635
826.067	24665
826.206	24681
826.346	24578
826.485	24642
826.625	24658
826.765	24753
826.904	24829
827.044	24513
827.183	24380
827.323	24311
827.462	24395
827.601	24353
827.741	24292
827.88	24388
828.02	24270
828.159	24232
828.298	24174
828.437	24467
828.577	24369
828.716	24486
828.855	24273
828.994	24117
829.134	24064
829.273	24110
829.412	23882
829.551	24011
829.69	24076
829.829	24110
829.968	24117
830.107	24144
830.246	23988
830.385	24034
830.524	23859
830.663	23824
830.802	23745
830.941	23726
831.08	23543
831.219	23790
831.357	23703
831.496	23828
831.635	23615
831.774	23733
831.913	23551
832.051	23509
832.19	23448
832.329	23429
832.467	23436
832.606	23330
832.744	23204
832.883	23322
833.022	23349
833.16	23216
833.299	23337
833.437	23334
833.576	23425
833.714	23341
833.852	23425
833.991	23493
834.129	23573
834.267	23486
834.406	23349
834.544	23391
834.682	23372
834.821	23452
834.959	23512
835.097	23368
835.235	23421
835.373	23364
835.511	23452
835.65	23235
835.788	23379
835.926	23193
836.064	23121
836.202	23056
836.34	23181
836.478	23307
836.615	23102
836.753	23216
836.891	23326
837.029	23200
837.167	23193
837.305	23197
837.443	23265
837.58	23014
837.718	23246
837.856	23052
837.993	22968
838.131	23193
838.269	22984
838.406	22991
838.544	22946
838.681	22805
838.819	22767
838.956	22603
839.094	22554
839.231	22618
839.369	22797
839.506	22904
839.643	22812
839.781	22554
839.918	22569
840.055	22596
840.193	22569
840.33	22535
840.467	22618
840.604	22592
840.742	22752
840.879	22363
841.016	22504
841.153	22489
841.29	22592
841.427	22512
841.564	22527
841.701	22428
841.838	22500
841.975	22367
842.112	22344
842.249	22261
842.385	22329
842.522	22512
842.659	22417
842.796	22226
842.933	22219
843.069	22204
843.206	22124
843.343	22310
843.479	22215
843.616	22261
843.752	22006
843.889	22025
844.025	22280
844.162	22032
844.298	22131
844.435	21937
844.571	22021
844.708	22017
844.844	22162
844.98	22162
845.117	22055
845.253	21926
845.389	21960
845.525	21838
845.661	21903
845.798	21751
845.934	21789
846.07	21785
846.206	21778
846.342	21831
846.478	21717
846.614	21568
846.75	21564
846.886	21545
847.022	21599
847.158	21431
847.294	21538
847.429	21507
847.565	21386
847.701	21675
847.837	21336
847.972	21230
848.108	21245
848.244	21264
848.379	21131
848.515	21131
848.65	21104
848.786	21108
848.921	21093
849.057	21214
849.192	21237
849.328	21051
849.463	21180
849.598	21028
849.734	21074
849.869	20967
850.004	20902
850.14	20925
850.275	20887
850.41	20876
850.545	20765
850.68	20834
850.815	20849
850.95	20861
851.085	20960
851.22	20861
851.355	20758
851.49	20861
851.625	20792
851.76	20800
851.895	20773
852.03	20796
852.165	20921
852.299	20956
852.434	20933
852.569	20948
852.703	20918
852.838	20948
852.973	21009
853.107	20963
853.242	20762
853.376	20621
853.511	20602
853.645	20746
853.78	20746
853.914	20667
854.048	20720
854.183	20659
854.317	20621
854.451	20800
854.585	20655
854.72	20720
854.854	20629
854.988	20659
855.122	20602
855.256	20530
855.39	20648
855.524	20804
855.658	20781
855.792	20815
855.926	20579
856.06	20819
856.194	20807
856.327	20629
856.461	20697
856.595	20621
856.729	20678
856.862	20670
856.996	20644
857.13	20765
857.263	20674
857.397	20899
857.53	20598
857.664	20682
857.797	20701
857.931	20796
858.064	20762
858.197	20773
858.331	20678
858.464	20648
858.597	20609
858.731	20689
858.864	20686
858.997	20575
859.13	20682
859.263	20625
859.396	20746
859.529	20686
859.662	20636
859.795	20530
859.928	20663
860.061	20807
860.194	20849
860.327	20701
860.46	20602
860.592	20773
860.725	20800
860.858	20804
860.99	20731
861.123	20678
861.256	20617
861.388	20735
861.521	21169
861.653	20667
861.786	20511
861.918	20518
862.05	20522
862.183	20552
862.315	20609
862.447	20735
862.58	20598
862.712	20499
862.844	20282
862.976	20549
863.108	20514
863.24	20735
863.372	20355
863.504	20339
863.636	20320
863.768	20473
863.9	20473
864.032	20298
864.164	20313
864.296	20484
864.428	20423
864.559	20537
864.691	20564
864.823	20374
864.954	20347
865.086	20366
865.217	20377
865.349	20358
865.48	20324
865.612	20187
865.743	20362
865.875	20336
866.006	20202
866.137	20278
866.269	20298
866.4	20191
866.531	20286
866.662	20320
866.793	20210
866.924	20221
867.055	20263
867.186	20301
867.317	20301
867.448	20202
867.579	20218
867.71	20027
867.841	20195
867.972	20161
868.103	20130
868.233	20248
868.364	20119
868.495	20252
868.625	20377
868.756	20750
868.886	20389
869.017	20450
869.147	20514
869.278	20537
869.408	20484
869.539	20457
869.669	20461
869.799	20499
869.929	20613
870.06	20514
870.19	20762
870.32	20735
870.45	20701
870.58	20777
870.71	20937
870.84	21001
870.97	20842
871.1	20971
871.23	21013
871.36	21017
871.489	21081
871.619	21032
871.749	21211
871.879	21043
872.008	21043
872.138	21017
872.267	21096
872.397	20921
872.526	20838
872.656	21036
872.785	20842
872.915	21142
873.044	21150
873.173	21165
873.303	21188
873.432	21222
873.561	21123
873.69	21184
873.819	21104
873.948	21283
874.077	21070
874.206	21173
874.335	21245
874.464	21245
874.593	21344
874.722	21382
874.851	21321
874.979	21412
875.108	21477
875.237	21268
875.365	21241
875.494	21408
875.623	21378
875.751	21340
875.88	21431
876.008	21454
876.136	21576
876.265	21850
876.393	21812
876.521	21869
876.65	21804
876.778	21720
876.906	21667
877.034	21625
877.162	21705
877.29	21831
877.418	21743
877.546	21713
877.674	21831
877.802	21705
877.93	21854
878.058	21660
878.185	21561
878.313	21633
878.441	21648
878.568	21469
878.696	21641
878.824	21819
878.951	21854
879.079	21884
879.206	21975
879.333	21953
879.461	21690
879.588	21827
879.715	22040
879.842	22021
879.97	21903
880.097	21515
880.224	21614
880.351	21576
880.478	21583
880.605	21458
880.732	21473
880.859	21846
880.986	21564
881.112	21523
881.239	21477
881.366	21359
881.493	21142
881.619	21169
881.746	21100
881.872	21123
881.999	21199
882.125	21176
882.252	21055
882.378	21123
882.505	21131
882.631	20967
882.757	20804
882.883	20918
883.01	20891
883.136	20834
883.262	20811
883.388	20560
883.514	20815
883.64	20933
883.766	20716
883.892	20598
884.018	20571
884.143	20891
884.269	20899
884.395	20651
884.52	20408
884.646	20442
884.772	20533
884.897	20370
885.023	20480
885.148	20537
885.274	20674
885.399	20670
885.524	20476
885.65	20560
885.775	20541
885.9	20503
886.025	20648
886.15	20598
886.275	20419
886.4	20389
886.525	20408
886.65	20355
886.775	20446
886.9	20549
887.025	20773
887.149	20419
887.274	20351
887.399	20180
887.523	20324
887.648	20161
887.773	20172
887.897	20317
888.021	20294
888.146	20210
888.27	20347
888.395	20317
888.519	20328
888.643	20286
888.767	20370
888.891	20237
889.015	20126
889.139	20081
889.263	19967
889.387	20092
889.511	20256
889.635	20050
889.759	20084
889.883	20142
890.006	20119
890.13	20138
890.254	19963
890.377	19868
890.501	19868
890.624	19841
890.748	19826
890.871	19708
890.995	19616
891.118	19597
891.241	19655
891.364	19624
891.488	19681
891.611	19784
891.734	19590
891.857	19723
891.98	19597
892.103	19719
892.226	19700
892.349	19647
892.471	19449
892.594	19544
892.717	19548
892.839	19533
892.962	19533
893.085	19704
893.207	19575
893.33	19510
893.452	19616
893.575	19620
893.697	19506
893.819	19818
893.941	19681
894.064	19704
894.186	19491
894.308	19567
894.43	19613
894.552	19624
894.674	19700
894.796	19537
894.918	19613
895.04	19544
895.161	19544
895.283	19620
895.405	19514
895.526	19651
895.648	19506
895.769	19426
895.891	19594
896.012	19647
896.134	19590
896.255	19662
896.376	19552
896.498	19502
896.619	19594
896.74	19510
896.861	19575
896.982	19917
897.103	20157
897.224	19856
897.345	19655
897.466	19723
897.587	19807
897.708	19864
897.828	19856
897.949	19746
898.07	19647
898.19	19693
898.311	19883
898.431	19765
898.552	19902
898.672	19875
898.792	19898
898.913	19871
899.033	19693
899.153	19613
899.273	19563
899.393	19624
899.513	19578
899.633	19563
899.753	19563
899.873	19533
899.993	19556
900.113	19578
900.232	19563
900.352	19460
900.472	19453
900.591	19350
900.711	19308
900.83	19251
900.95	19491
901.069	19514
901.189	19251
901.308	19080
901.427	18886
901.546	18939
901.665	19008
901.784	18909
901.904	18837
902.023	18795
902.141	18544
902.26	18433
902.379	18585
902.498	18486
902.617	18433
902.735	18414
902.854	18407
902.973	18357
903.091	18133
903.21	18034
903.328	18167
903.446	18057
903.565	17958
903.683	18030
903.801	17916
903.919	17809
904.038	17893
904.156	17691
904.274	17889
904.392	17623
904.51	17676
904.627	17695
904.745	17745
904.863	17722
904.981	17482
905.098	17410
905.216	17379
905.334	17410
905.451	17330
905.569	17383
905.686	17452
905.803	17478
905.921	17288
906.038	17280
906.155	17231
906.272	17045
906.389	17124
906.506	16938
906.623	16900
906.74	16957
906.857	16782
906.974	16858
907.091	16892
907.208	17113
907.324	16889
907.441	16828
907.557	16596
907.674	16740
907.79	16599
907.907	16607
908.023	16668
908.139	16592
908.256	16531
908.372	16607
908.488	16481
908.604	16409
908.72	16344
908.836	16394
908.952	16306
909.068	16417
909.184	16512
909.3	16325
909.415	16352
909.531	16303
909.647	16135
909.762	16055
909.878	16048
909.993	16093
910.108	16002
910.224	16025
910.339	15998
910.454	15934
910.57	16021
910.685	15876
910.8	16082
910.915	16082
911.03	15827
911.145	15770
911.259	15675
911.374	15675
911.489	15587
911.604	15580
911.718	15523
911.833	15485
911.947	15428
912.062	15302
912.176	15511
912.291	15416
912.405	15496
912.519	15682
912.633	15622
912.748	15526
912.862	15428
912.976	15272
913.09	15154
913.204	15302
913.318	15313
913.431	15272
913.545	15367
913.659	15256
913.772	15127
913.886	15043
914	15097
914.113	15039
914.226	15127
914.34	15176
914.453	14941
914.566	15146
914.68	14872
914.793	14906
914.906	14697
915.019	14731
915.132	14621
915.245	14617
915.358	14636
915.47	14682
915.583	14705
915.696	14598
915.809	14815
915.921	14792
916.034	14579
916.146	14575
916.259	14621
916.371	14697
916.483	14651
916.595	14552
916.708	14495
916.82	14552
916.932	14446
917.044	14503
917.156	14499
917.268	14404
917.38	14332
917.491	14336
917.603	14221
917.715	14446
917.826	14358
917.938	14286
918.049	14214
918.161	14374
918.272	14358
918.384	14427
918.495	14229
918.606	14142
918.717	14024
918.828	14206
918.939	14115
919.05	13963
919.161	14123
919.272	13906
919.383	14088
919.494	14126
919.604	14290
919.715	14107
919.826	14001
919.936	14092
920.047	14069
920.157	14046
920.267	14240
920.378	14073
920.488	14024
920.598	14119
920.708	14450
920.818	14229
920.928	14138
921.038	14385
921.148	14294
921.258	14031
921.368	13925
921.477	13849
921.587	13795
921.697	13704
921.806	13860
921.916	13746
922.025	13529
922.134	13502
922.244	13430
922.353	13578
922.462	13339
922.571	13255
922.68	13133
922.789	13175
922.898	13099
923.007	13141
923.116	13080
923.224	13099
923.333	13118
923.442	12962
923.55	12981
923.659	12920
923.767	13072
923.876	12966
923.984	12932
924.092	12928
924.201	12905
924.309	12886
924.417	12882
924.525	12764
924.633	12916
924.741	13742
924.849	12681
924.956	12722
925.064	12692
925.172	12502
925.279	12604
925.387	12642
925.494	12566
925.602	12692
925.709	12646
925.816	12456
925.924	12486
926.031	12498
926.138	12410
926.245	12604
926.352	12376
926.459	12650
926.566	12589
926.673	12441
926.779	12369
926.886	12300
926.993	12182
927.099	12186
927.206	12083
927.312	12038
927.419	12232
927.525	12083
927.631	12213
927.737	11958
927.843	12015
927.95	11904
928.056	11961
928.162	11950
928.267	12060
928.373	12608
928.479	12098
928.585	11805
928.69	11863
928.796	11958
928.901	11832
929.007	11745
929.112	11885
929.218	11771
929.323	11798
929.428	11691
929.533	11805
929.638	11653
929.743	11657
929.848	11707
929.953	11623
930.058	11577
930.163	11387
930.267	11417
930.372	11558
930.477	11395
930.581	11615
930.685	11421
930.79	11318
930.894	11322
930.998	11299
931.103	11353
931.207	11083
931.311	11048
931.415	10824
931.519	10721
931.623	10691
