Data from test_V78500241_2730.txt Node
Date: Fri Mar 25 15:28:52 CST 2022
User: usil
Spectrometer: V785-0024
Trigger mode: 0
Integration Time (sec): 4.000000E-1
Scans to average: 1
Nonlinearity correction enabled: false
Boxcar width: 0
Storing dark spectrum: false
XAxis mode: Wavelengths
Number of Pixels in Spectrum: 1024
>>>>>Begin Spectral Data<<<<<
801.071	27123
801.214	27112
801.356	26925
801.499	26796
801.641	26735
801.783	26594
801.926	26686
802.068	26724
802.211	26655
802.353	26598
802.496	26366
802.638	26419
802.78	26336
802.923	26366
803.065	26317
803.208	26214
803.35	26434
803.492	26442
803.635	26613
803.777	26385
803.919	26545
804.061	26845
804.204	26415
804.346	26415
804.488	26400
804.63	26476
804.773	26408
804.915	26453
805.057	26625
805.199	26473
805.341	26495
805.483	26663
805.626	26594
805.768	26412
805.91	26598
806.052	26545
806.194	26450
806.336	26708
806.478	26598
806.62	26587
806.762	26571
806.904	26773
807.046	27127
807.188	27043
807.33	26998
807.472	27100
807.614	26906
807.756	26925
807.898	26857
808.04	26750
808.182	26762
808.324	26739
808.465	26982
808.607	27127
808.749	27249
808.891	27207
809.033	27458
809.174	27268
809.316	27150
809.458	27252
809.6	27119
809.741	27192
809.883	27332
810.025	27504
810.166	27663
810.308	27454
810.45	27367
810.591	27344
810.733	27165
810.875	27009
811.016	27058
811.158	27245
811.299	27378
811.441	27344
811.582	27424
811.724	27268
811.865	27135
812.007	27074
812.148	27188
812.29	27237
812.431	27313
812.573	27454
812.714	27728
812.855	27751
812.997	27781
813.138	27964
813.279	27701
813.421	27679
813.562	27564
813.703	27488
813.845	27275
813.986	27176
814.127	26990
814.268	26853
814.41	26743
814.551	26678
814.692	26914
814.833	26792
814.974	26895
815.115	26838
815.256	26663
815.397	26727
815.539	26712
815.68	26606
815.821	26358
815.962	26606
816.103	26579
816.244	26492
816.385	26419
816.526	26237
816.666	26278
816.807	26164
816.948	26130
817.089	26233
817.23	26142
817.371	26050
817.512	26206
817.653	26027
817.793	25887
817.934	26008
818.075	26100
818.216	26050
818.356	26001
818.497	26065
818.638	25723
818.778	25818
818.919	25769
819.06	25902
819.2	25932
819.341	26119
819.481	26172
819.622	26248
819.762	26431
819.903	26214
820.043	26271
820.184	26130
820.324	26134
820.465	26263
820.605	26210
820.746	26210
820.886	25947
821.026	26210
821.167	26153
821.307	26164
821.447	26115
821.588	25959
821.728	25925
821.868	25731
822.008	25460
822.149	25540
822.289	25594
822.429	25339
822.569	25289
822.709	25209
822.849	25053
822.99	25088
823.13	24992
823.27	25046
823.41	24802
823.55	24749
823.69	24787
823.83	24932
823.97	24901
824.11	24673
824.25	24642
824.389	24623
824.529	24783
824.669	24711
824.809	24798
824.949	24871
825.089	24764
825.228	24726
825.368	24566
825.508	24525
825.648	24563
825.787	24547
825.927	24703
826.067	24589
826.206	24486
826.346	24669
826.485	24661
826.625	24445
826.765	24574
826.904	24631
827.044	24281
827.183	24308
827.323	24140
827.462	24270
827.601	24330
827.741	24190
827.88	24220
828.02	24228
828.159	24114
828.298	24213
828.437	24213
828.577	24129
828.716	24323
828.855	24045
828.994	23980
829.134	23946
829.273	24125
829.412	23866
829.551	23878
829.69	23992
829.829	23927
829.968	24087
830.107	23946
830.246	23885
830.385	23923
830.524	23889
830.663	23840
830.802	23649
830.941	23566
831.08	23592
831.219	23531
831.357	23729
831.496	23779
831.635	23623
831.774	23452
831.913	23440
832.051	23383
832.19	23368
832.329	23379
832.467	23208
832.606	23151
832.744	23098
832.883	23288
833.022	23280
833.16	23364
833.299	23322
833.437	23360
833.576	23402
833.714	23322
833.852	23284
833.991	23292
834.129	23398
834.267	23261
834.406	23402
834.544	23341
834.682	23364
834.821	23284
834.959	23604
835.097	23307
835.235	23303
835.373	23265
835.511	23299
835.65	23227
835.788	23220
835.926	23090
836.064	22911
836.202	23022
836.34	23197
836.478	23273
836.615	23162
836.753	23258
836.891	23292
837.029	23239
837.167	23151
837.305	22949
837.443	23075
837.58	22965
837.718	23003
837.856	22915
837.993	22889
838.131	23041
838.269	22820
838.406	22809
838.544	22835
838.681	22664
838.819	22611
838.956	22531
839.094	22554
839.231	22504
839.369	22679
839.506	22877
839.643	22729
839.781	22561
839.918	22440
840.055	22497
840.193	22440
840.33	22447
840.467	22489
840.604	22508
840.742	22649
840.879	22333
841.016	22398
841.153	22386
841.29	22519
841.427	22474
841.564	22329
841.701	22363
841.838	22352
841.975	22394
842.112	22417
842.249	22352
842.385	22207
842.522	22500
842.659	22230
842.796	22196
842.933	22185
843.069	22086
843.206	22048
843.343	22249
843.479	22078
843.616	22101
843.752	21922
843.889	21968
844.025	22074
844.162	21880
844.298	21983
844.435	22044
844.571	21949
844.708	21941
844.844	22086
844.98	22112
845.117	22013
845.253	21873
845.389	21854
845.525	21823
845.661	21755
845.798	21606
845.934	21755
846.07	21648
846.206	21690
846.342	21808
846.478	21622
846.614	21469
846.75	21355
846.886	21408
847.022	21538
847.158	21485
847.294	21416
847.429	21538
847.565	21412
847.701	21652
847.837	21116
847.972	21028
848.108	21245
848.244	21138
848.379	21135
848.515	21009
848.65	20975
848.786	21055
848.921	21055
849.057	21039
849.192	21062
849.328	21074
849.463	20963
849.598	20960
849.734	20948
849.869	20902
850.004	20769
850.14	20743
850.275	20800
850.41	20655
850.545	20686
850.68	20777
850.815	20716
850.95	20792
851.085	20990
851.22	20990
851.355	20880
851.49	20727
851.625	20731
851.76	20785
851.895	20716
852.03	20686
852.165	20933
852.299	20811
852.434	20796
852.569	20708
852.703	20796
852.838	20796
852.973	20910
853.107	20800
853.242	20667
853.376	20590
853.511	20552
853.645	20537
853.78	20708
853.914	20606
854.048	20545
854.183	20648
854.317	20602
854.451	20792
854.585	20617
854.72	20575
854.854	20701
854.988	20564
855.122	20617
855.256	20370
855.39	20609
855.524	20636
855.658	20693
855.792	20636
855.926	20625
856.06	20746
856.194	20724
856.327	20575
856.461	20461
856.595	20545
856.729	20632
856.862	20750
856.996	20598
857.13	20708
857.263	20705
857.397	20754
857.53	20659
857.664	20735
857.797	20541
857.931	20678
858.064	20689
858.197	20720
858.331	20533
858.464	20541
858.597	20530
858.731	20564
858.864	20659
858.997	20560
859.13	20560
859.263	20602
859.396	20667
859.529	20602
859.662	20560
859.795	20503
859.928	20518
860.061	20701
860.194	20823
860.327	20648
860.46	20678
860.592	20777
860.725	20613
860.858	20712
860.99	20659
861.123	20465
861.256	20609
861.388	20659
861.521	21066
861.653	20473
861.786	20412
861.918	20495
862.05	20495
862.183	20442
862.315	20571
862.447	20503
862.58	20560
862.712	20301
862.844	20332
862.976	20377
863.108	20301
863.24	20724
863.372	20259
863.504	20385
863.636	20339
863.768	20294
863.9	20294
864.032	20229
864.164	20370
864.296	20267
864.428	20385
864.559	20450
864.691	20385
864.823	20408
864.954	20358
865.086	20263
865.217	20328
865.349	20187
865.48	20142
865.612	20301
865.743	20324
865.875	20225
866.006	20225
866.137	20225
866.269	20145
866.4	20244
866.531	20237
866.662	20096
866.793	20191
866.924	20084
867.055	20256
867.186	20172
867.317	20122
867.448	20050
867.579	20195
867.71	20157
867.841	20077
867.972	20252
868.103	20115
868.233	20149
868.364	20183
868.495	20267
868.625	20412
868.756	20590
868.886	20256
869.017	20473
869.147	20514
869.278	20469
869.408	20404
869.539	20381
869.669	20488
869.799	20522
869.929	20514
870.06	20522
870.19	20701
870.32	20701
870.45	20705
870.58	20800
870.71	20823
870.84	20765
870.97	20880
871.1	20937
871.23	21077
871.36	21001
871.489	20868
871.619	20895
871.749	21036
871.879	21039
872.008	21173
872.138	21146
872.267	21036
872.397	20921
872.526	20769
872.656	20902
872.785	20857
872.915	21055
873.044	21085
873.173	21165
873.303	20990
873.432	20963
873.561	21028
873.69	20960
873.819	21005
873.948	21127
874.077	20982
874.206	20941
874.335	21024
874.464	21199
874.593	21279
874.722	21214
874.851	21298
874.979	21332
875.108	21268
875.237	21119
875.365	21245
875.494	21173
875.623	21340
875.751	21184
875.88	21260
876.008	21424
876.136	21443
876.265	21762
876.393	21819
876.521	21766
876.65	21831
876.778	21564
876.906	21477
877.034	21686
877.162	21614
877.29	21450
877.418	21564
877.546	21591
877.674	21652
877.802	21583
877.93	21553
878.058	21568
878.185	21545
878.313	21530
878.441	21564
878.568	21447
878.696	21606
878.824	21682
878.951	21785
879.079	21888
879.206	21861
879.333	21766
879.461	21644
879.588	21663
879.715	21785
879.842	21816
879.97	21720
880.097	21564
880.224	21481
880.351	21519
880.478	21424
880.605	21462
880.732	21458
880.859	21759
880.986	21412
881.112	21397
881.239	21310
881.366	21203
881.493	21070
881.619	21077
881.746	21116
881.872	21066
881.999	20994
882.125	20944
882.252	21005
882.378	20944
882.505	21089
882.631	20887
882.757	20819
882.883	20845
883.01	20804
883.136	20845
883.262	20678
883.388	20651
883.514	20746
883.64	20910
883.766	20663
883.892	20480
884.018	20598
884.143	20625
884.269	20880
884.395	20408
884.52	20442
884.646	20408
884.772	20320
884.897	20324
885.023	20423
885.148	20434
885.274	20590
885.399	20499
885.524	20347
885.65	20480
885.775	20457
885.9	20438
886.025	20579
886.15	20484
886.275	20343
886.4	20252
886.525	20259
886.65	20294
886.775	20419
886.9	20507
887.025	20640
887.149	20370
887.274	20176
887.399	20092
887.523	20313
887.648	20134
887.773	19940
887.897	20275
888.021	20180
888.146	20191
888.27	20301
888.395	20218
888.519	20225
888.643	20237
888.767	20237
888.891	20073
889.015	19913
889.139	20005
889.263	19917
889.387	20103
889.511	20092
889.635	20058
889.759	20001
889.883	20115
890.006	20001
890.13	20096
890.254	19902
890.377	19925
890.501	19780
890.624	19807
890.748	19723
890.871	19674
890.995	19525
891.118	19449
891.241	19658
891.364	19590
891.488	19681
891.611	19521
891.734	19601
891.857	19708
891.98	19525
892.103	19674
892.226	19609
892.349	19495
892.471	19396
892.594	19548
892.717	19521
892.839	19460
892.962	19563
893.085	19647
893.207	19472
893.33	19373
893.452	19400
893.575	19476
893.697	19495
893.819	19567
893.941	19666
894.064	19723
894.186	19403
894.308	19316
894.43	19594
894.552	19556
894.674	19483
894.796	19426
894.918	19540
895.04	19510
895.161	19529
895.283	19529
895.405	19438
895.526	19411
895.648	19453
895.769	19384
895.891	19495
896.012	19548
896.134	19514
896.255	19544
896.376	19487
896.498	19483
896.619	19514
896.74	19548
896.861	19651
896.982	19784
897.103	19921
897.224	19784
897.345	19693
897.466	19643
897.587	19772
897.708	19772
897.828	19689
897.949	19624
898.07	19582
898.19	19594
898.311	19765
898.431	19712
898.552	19662
898.672	19837
898.792	19963
898.913	19803
899.033	19624
899.153	19559
899.273	19335
899.393	19430
899.513	19510
899.633	19548
899.753	19434
899.873	19373
899.993	19430
900.113	19495
900.232	19495
900.352	19480
900.472	19384
900.591	19244
900.711	19293
900.83	19316
900.95	19297
901.069	19468
901.189	19099
901.308	18981
901.427	18814
901.546	18760
901.665	18859
901.784	18878
901.904	18730
902.023	18665
902.141	18509
902.26	18475
902.379	18422
902.498	18239
902.617	18448
902.735	18448
902.854	18361
902.973	18171
903.091	18053
903.21	18091
903.328	17950
903.446	17984
903.565	17889
903.683	17973
903.801	17767
903.919	17775
904.038	17802
904.156	17684
904.274	17710
904.392	17627
904.51	17615
904.627	17623
904.745	17627
904.863	17729
904.981	17444
905.098	17334
905.216	17265
905.334	17429
905.451	17258
905.569	17318
905.686	17326
905.803	17353
905.921	17060
906.038	17174
906.155	17189
906.272	16984
906.389	17022
906.506	16881
906.623	16866
906.74	16885
906.857	16729
906.974	16698
907.091	16889
907.208	16980
907.324	16835
907.441	16759
907.557	16615
907.674	16554
907.79	16436
907.907	16516
908.023	16561
908.139	16596
908.256	16554
908.372	16459
908.488	16398
908.604	16322
908.72	16295
908.836	16348
908.952	16253
909.068	16280
909.184	16341
909.3	16223
909.415	16390
909.531	16242
909.647	16090
909.762	15968
909.878	16025
909.993	15953
910.108	15956
910.224	15884
910.339	15953
910.454	15842
910.57	15819
910.685	15819
910.8	16036
910.915	15934
911.03	15842
911.145	15679
911.259	15526
911.374	15526
911.489	15641
911.604	15393
911.718	15317
911.833	15431
911.947	15310
912.062	15256
912.176	15408
912.291	15401
912.405	15401
912.519	15610
912.633	15675
912.748	15389
912.862	15378
912.976	15260
913.09	15081
913.204	15097
913.318	15173
913.431	15226
913.545	15233
913.659	15188
913.772	15066
913.886	15043
914	14994
914.113	15119
914.226	15154
914.34	15097
914.453	14910
914.566	15032
914.68	14842
914.793	14845
914.906	14689
915.019	14667
915.132	14469
915.245	14522
915.358	14621
915.47	14503
915.583	14598
915.696	14701
915.809	14735
915.921	14720
916.034	14670
916.146	14492
916.259	14412
916.371	14629
916.483	14617
916.595	14526
916.708	14385
916.82	14415
916.932	14294
917.044	14362
917.156	14419
917.268	14275
917.38	14358
917.491	14229
917.603	14267
917.715	14275
917.826	14381
917.938	14153
918.049	14119
918.161	14263
918.272	14381
918.384	14275
918.495	14229
918.606	14172
918.717	14050
918.828	14046
918.939	14020
919.05	13898
919.161	13955
919.272	13868
919.383	13875
919.494	14115
919.604	14263
919.715	14001
919.826	13974
919.936	13890
920.047	14050
920.157	13913
920.267	14153
920.378	14088
920.488	14024
920.598	14259
920.708	14271
920.818	14123
920.928	14084
921.038	14339
921.148	14267
921.258	14027
921.368	13909
921.477	13826
921.587	13822
921.697	13666
921.806	13807
921.916	13674
922.025	13460
922.134	13350
922.244	13343
922.353	13400
922.462	13301
922.571	13320
922.68	13190
922.789	13053
922.898	13149
923.007	13061
923.116	13122
923.224	12970
923.333	12951
923.442	12947
923.55	12890
923.659	12894
923.767	12878
923.876	12825
923.984	12871
924.092	12837
924.201	12840
924.309	12852
924.417	12760
924.525	12821
924.633	12783
924.741	13799
924.849	12589
924.956	12707
925.064	12498
925.172	12452
925.279	12525
925.387	12597
925.494	12582
925.602	12654
925.709	12566
925.816	12475
925.924	12513
926.031	12616
926.138	12437
926.245	12483
926.352	12429
926.459	12532
926.566	12494
926.673	12448
926.779	12243
926.886	12273
926.993	12144
927.099	12079
927.206	12045
927.312	12038
927.419	12117
927.525	12038
927.631	12102
927.737	11965
927.843	12015
927.95	11836
928.056	11882
928.162	11977
928.267	12030
928.373	12437
928.479	12011
928.585	11748
928.69	11843
928.796	11954
928.901	11775
929.007	11691
929.112	11737
929.218	11741
929.323	11695
929.428	11638
929.533	11805
929.638	11539
929.743	11630
929.848	11615
929.953	11611
930.058	11512
930.163	11356
930.267	11421
930.372	11532
930.477	11303
930.581	11505
930.685	11429
930.79	11250
930.894	11280
930.998	11246
931.103	11368
931.207	11018
931.311	10911
931.415	10843
931.519	10675
931.623	10664
