Data from test_V78500241_2853.txt Node
Date: Fri Mar 25 15:29:43 CST 2022
User: usil
Spectrometer: V785-0024
Trigger mode: 0
Integration Time (sec): 4.000000E-1
Scans to average: 1
Nonlinearity correction enabled: false
Boxcar width: 0
Storing dark spectrum: false
XAxis mode: Wavelengths
Number of Pixels in Spectrum: 1024
>>>>>Begin Spectral Data<<<<<
801.071	27256
801.214	27313
801.356	27093
801.499	26979
801.641	26906
801.783	26876
801.926	26921
802.068	26826
802.211	26731
802.353	26883
802.496	26583
802.638	26530
802.78	26575
802.923	26377
803.065	26339
803.208	26412
803.35	26473
803.492	26659
803.635	26651
803.777	26476
803.919	26670
804.061	26899
804.204	26739
804.346	26667
804.488	26473
804.63	26495
804.773	26613
804.915	26773
805.057	26758
805.199	26727
805.341	26815
805.483	26720
805.626	26739
805.768	26609
805.91	26811
806.052	26883
806.194	26750
806.336	26948
806.478	26906
806.62	26750
806.762	26838
806.904	27051
807.046	27154
807.188	27089
807.33	27180
807.472	27355
807.614	27116
807.756	27096
807.898	26838
808.04	27047
808.182	26979
808.324	27020
808.465	27138
808.607	27173
808.749	27427
808.891	27408
809.033	27485
809.174	27359
809.316	27355
809.458	27549
809.6	27317
809.741	27526
809.883	27466
810.025	27618
810.166	27701
810.308	27709
810.45	27656
810.591	27454
810.733	27485
810.875	27344
811.016	27211
811.158	27268
811.299	27450
811.441	27606
811.582	27488
811.724	27542
811.865	27321
812.007	27306
812.148	27393
812.29	27447
812.431	27534
812.573	27583
812.714	27755
812.855	27800
812.997	27819
813.138	27972
813.279	27884
813.421	27732
813.562	27660
813.703	27675
813.845	27511
813.986	27123
814.127	27051
814.268	26967
814.41	26998
814.551	26857
814.692	27055
814.833	27028
814.974	26887
815.115	27001
815.256	26967
815.397	26864
815.539	26807
815.68	26792
815.821	26644
815.962	26811
816.103	26838
816.244	26575
816.385	26667
816.526	26511
816.666	26282
816.807	26317
816.948	26389
817.089	26317
817.23	26419
817.371	26305
817.512	26336
817.653	26278
817.793	26256
817.934	26248
818.075	26320
818.216	26248
818.356	26229
818.497	26043
818.638	26012
818.778	26043
818.919	25928
819.06	26084
819.2	26126
819.341	26438
819.481	26221
819.622	26332
819.762	26560
819.903	26457
820.043	26317
820.184	26313
820.324	26320
820.465	26503
820.605	26419
820.746	26476
820.886	26180
821.026	26271
821.167	26164
821.307	26332
821.447	26328
821.588	26252
821.728	26024
821.868	26024
822.008	25685
822.149	25772
822.289	25708
822.429	25518
822.569	25552
822.709	25354
822.849	25160
822.99	25217
823.13	25171
823.27	25190
823.41	25015
823.55	24920
823.69	25137
823.83	24966
823.97	24992
824.11	24806
824.25	24779
824.389	24696
824.529	24890
824.669	24894
824.809	24768
824.949	24859
825.089	24844
825.228	24875
825.368	24700
825.508	24635
825.648	24703
825.787	24764
825.927	24753
826.067	24779
826.206	24814
826.346	24833
826.485	24749
826.625	24848
826.765	24859
826.904	24833
827.044	24509
827.183	24486
827.323	24399
827.462	24464
827.601	24528
827.741	24544
827.88	24452
828.02	24323
828.159	24464
828.298	24372
828.437	24388
828.577	24216
828.716	24494
828.855	24235
828.994	24182
829.134	24133
829.273	24178
829.412	24098
829.551	24167
829.69	24251
829.829	24167
829.968	24289
830.107	24224
830.246	24171
830.385	24034
830.524	24091
830.663	23901
830.802	23878
830.941	23657
831.08	23703
831.219	23836
831.357	23733
831.496	23923
831.635	23805
831.774	23638
831.913	23543
832.051	23577
832.19	23543
832.329	23604
832.467	23391
832.606	23258
832.744	23299
832.883	23376
833.022	23334
833.16	23356
833.299	23440
833.437	23417
833.576	23520
833.714	23444
833.852	23493
833.991	23448
834.129	23608
834.267	23505
834.406	23520
834.544	23493
834.682	23482
834.821	23524
834.959	23608
835.097	23296
835.235	23512
835.373	23368
835.511	23436
835.65	23250
835.788	23311
835.926	23166
836.064	23044
836.202	23132
836.34	23204
836.478	23383
836.615	23261
836.753	23299
836.891	23311
837.029	23185
837.167	23250
837.305	23296
837.443	23113
837.58	23094
837.718	23143
837.856	23212
837.993	23094
838.131	23060
838.269	23006
838.406	23094
838.544	22797
838.681	22896
838.819	22919
838.956	22721
839.094	22664
839.231	22656
839.369	22801
839.506	22908
839.643	22763
839.781	22691
839.918	22531
840.055	22580
840.193	22577
840.33	22519
840.467	22599
840.604	22607
840.742	22793
840.879	22527
841.016	22440
841.153	22451
841.29	22493
841.427	22603
841.564	22508
841.701	22508
841.838	22512
841.975	22322
842.112	22493
842.249	22352
842.385	22356
842.522	22546
842.659	22440
842.796	22215
842.933	22344
843.069	22253
843.206	22173
843.343	22329
843.479	22135
843.616	22329
843.752	22025
843.889	22200
844.025	22295
844.162	21991
844.298	22169
844.435	22051
844.571	22013
844.708	22086
844.844	22280
844.98	22169
845.117	22116
845.253	21968
845.389	21899
845.525	22021
845.661	21854
845.798	21892
845.934	21865
846.07	21751
846.206	21838
846.342	21915
846.478	21838
846.614	21679
846.75	21591
846.886	21447
847.022	21663
847.158	21633
847.294	21408
847.429	21553
847.565	21595
847.701	21747
847.837	21325
847.972	21306
848.108	21420
848.244	21344
848.379	21207
848.515	21032
848.65	21135
848.786	21070
848.921	21260
849.057	21351
849.192	21268
849.328	21131
849.463	21119
849.598	21157
849.734	21077
849.869	20925
850.004	20857
850.14	21058
850.275	20979
850.41	20823
850.545	20918
850.68	20887
850.815	20921
850.95	20849
851.085	20990
851.22	21036
851.355	20910
851.49	20834
851.625	20826
851.76	20979
851.895	20712
852.03	20937
852.165	20769
852.299	20857
852.434	20982
852.569	20853
852.703	20826
852.838	20864
852.973	21047
853.107	21017
853.242	20773
853.376	20758
853.511	20701
853.645	20602
853.78	20807
853.914	20754
854.048	20598
854.183	20727
854.317	20682
854.451	20819
854.585	20731
854.72	20712
854.854	20925
854.988	20609
855.122	20727
855.256	20442
855.39	20617
855.524	20659
855.658	20750
855.792	20636
855.926	20785
856.06	20762
856.194	20849
856.327	20754
856.461	20640
856.595	20617
856.729	20507
856.862	20693
856.996	20773
857.13	20796
857.263	20811
857.397	20819
857.53	20807
857.664	20826
857.797	20758
857.931	20857
858.064	20651
858.197	20899
858.331	20667
858.464	20625
858.597	20590
858.731	20686
858.864	20743
858.997	20644
859.13	20712
859.263	20788
859.396	20746
859.529	20587
859.662	20598
859.795	20549
859.928	20625
860.061	20971
860.194	20864
860.327	20785
860.46	20857
860.592	20861
860.725	20762
860.858	20891
860.99	20625
861.123	20560
861.256	20686
861.388	20758
861.521	21431
861.653	20514
861.786	20469
861.918	20560
862.05	20556
862.183	20651
862.315	20636
862.447	20712
862.58	20545
862.712	20499
862.844	20381
862.976	20484
863.108	20503
863.24	21028
863.372	20434
863.504	20362
863.636	20423
863.768	20537
863.9	20419
864.032	20290
864.164	20377
864.296	20438
864.428	20503
864.559	20484
864.691	20412
864.823	20408
864.954	20434
865.086	20492
865.217	20271
865.349	20199
865.48	20400
865.612	20275
865.743	20522
865.875	20271
866.006	20423
866.137	20355
866.269	20305
866.4	20271
866.531	20210
866.662	20286
866.793	20202
866.924	20221
867.055	20362
867.186	20286
867.317	20294
867.448	20225
867.579	20221
867.71	20149
867.841	20145
867.972	20172
868.103	20206
868.233	20336
868.364	20286
868.495	20259
868.625	20503
868.756	20617
868.886	20495
869.017	20484
869.147	20674
869.278	20549
869.408	20484
869.539	20427
869.669	20625
869.799	20511
869.929	20587
870.06	20499
870.19	20815
870.32	20941
870.45	20872
870.58	20819
870.71	21036
870.84	20948
870.97	20925
871.1	20883
871.23	21013
871.36	21070
871.489	21055
871.619	21127
871.749	21013
871.879	21142
872.008	21188
872.138	21093
872.267	21161
872.397	20910
872.526	20994
872.656	20967
872.785	20990
872.915	21142
873.044	21108
873.173	21226
873.303	21188
873.432	21104
873.561	21275
873.69	21214
873.819	21116
873.948	21245
874.077	21085
874.206	21077
874.335	21074
874.464	21302
874.593	21351
874.722	21401
874.851	21355
874.979	21291
875.108	21386
875.237	21302
875.365	21192
875.494	21272
875.623	21397
875.751	21363
875.88	21420
876.008	21568
876.136	21572
876.265	21823
876.393	21937
876.521	21770
876.65	21838
876.778	21747
876.906	21759
877.034	21656
877.162	21770
877.29	21736
877.418	21720
877.546	21618
877.674	21656
877.802	21679
877.93	21652
878.058	21637
878.185	21458
878.313	21641
878.441	21732
878.568	21515
878.696	21751
878.824	21675
878.951	21755
879.079	21899
879.206	21991
879.333	21831
879.461	21720
879.588	21816
879.715	21869
879.842	21937
879.97	21895
880.097	21542
880.224	21641
880.351	21523
880.478	21591
880.605	21542
880.732	21553
880.859	21800
880.986	21595
881.112	21405
881.239	21386
881.366	21340
881.493	21123
881.619	21154
881.746	21176
881.872	21043
881.999	21043
882.125	20998
882.252	21214
882.378	21104
882.505	21214
882.631	20967
882.757	20686
882.883	20925
883.01	20785
883.136	20804
883.262	20655
883.388	20644
883.514	20819
883.64	20880
883.766	20788
883.892	20663
884.018	20632
884.143	20754
884.269	20830
884.395	20640
884.52	20438
884.646	20415
884.772	20366
884.897	20469
885.023	20507
885.148	20609
885.274	20575
885.399	20621
885.524	20431
885.65	20511
885.775	20503
885.9	20469
886.025	20625
886.15	20530
886.275	20419
886.4	20317
886.525	20473
886.65	20404
886.775	20377
886.9	20568
887.025	20609
887.149	20457
887.274	20191
887.399	20252
887.523	20275
887.648	20164
887.773	20225
887.897	20271
888.021	20206
888.146	20206
888.27	20374
888.395	20191
888.519	20267
888.643	20290
888.767	20336
888.891	20077
889.015	20176
889.139	20187
889.263	20073
889.387	20100
889.511	20278
889.635	20084
889.759	19947
889.883	20092
890.006	19951
890.13	20100
890.254	19925
890.377	19913
890.501	19841
890.624	19750
890.748	19932
890.871	19791
890.995	19681
891.118	19670
891.241	19651
891.364	19552
891.488	19761
891.611	19715
891.734	19662
891.857	19655
891.98	19567
892.103	19651
892.226	19556
892.349	19483
892.471	19339
892.594	19616
892.717	19685
892.839	19556
892.962	19533
893.085	19666
893.207	19491
893.33	19396
893.452	19441
893.575	19571
893.697	19544
893.819	19666
893.941	19788
894.064	19761
894.186	19514
894.308	19480
894.43	19647
894.552	19818
894.674	19651
894.796	19388
894.918	19544
895.04	19377
895.161	19628
895.283	19548
895.405	19548
895.526	19422
895.648	19537
895.769	19586
895.891	19514
896.012	19639
896.134	19556
896.255	19552
896.376	19605
896.498	19609
896.619	19605
896.74	19464
896.861	19601
896.982	19837
897.103	20081
897.224	19902
897.345	19833
897.466	19708
897.587	19826
897.708	19871
897.828	19845
897.949	19830
898.07	19616
898.19	19799
898.311	19928
898.431	19624
898.552	19700
898.672	19769
898.792	19860
898.913	19715
899.033	19723
899.153	19597
899.273	19544
899.393	19453
899.513	19651
899.633	19426
899.753	19647
899.873	19426
899.993	19518
900.113	19518
900.232	19670
900.352	19316
900.472	19274
900.591	19278
900.711	19312
900.83	19354
900.95	19521
901.069	19312
901.189	19206
901.308	19076
901.427	18977
901.546	18943
901.665	18981
901.784	18962
901.904	18882
902.023	18719
902.141	18517
902.26	18494
902.379	18410
902.498	18410
902.617	18372
902.735	18460
902.854	18369
902.973	18361
903.091	18239
903.21	18117
903.328	18121
903.446	18095
903.565	17878
903.683	17931
903.801	17927
903.919	17923
904.038	17908
904.156	17786
904.274	17794
904.392	17767
904.51	17634
904.627	17604
904.745	17611
904.863	17828
904.981	17509
905.098	17273
905.216	17376
905.334	17436
905.451	17383
905.569	17337
905.686	17421
905.803	17372
905.921	17155
906.038	17246
906.155	17105
906.272	17140
906.389	17151
906.506	16942
906.623	16953
906.74	16968
906.857	16740
906.974	16816
907.091	16946
907.208	17006
907.324	16987
907.441	16828
907.557	16596
907.674	16565
907.79	16531
907.907	16626
908.023	16694
908.139	16588
908.256	16641
908.372	16531
908.488	16519
908.604	16428
908.72	16291
908.836	16459
908.952	16322
909.068	16443
909.184	16405
909.3	16352
909.415	16405
909.531	16363
909.647	16135
909.762	16071
909.878	15987
909.993	16036
910.108	16143
910.224	16051
910.339	16071
910.454	15979
910.57	15998
910.685	15816
910.8	16017
910.915	16040
911.03	15835
911.145	15644
911.259	15736
911.374	15705
911.489	15633
911.604	15530
911.718	15424
911.833	15545
911.947	15325
912.062	15348
912.176	15405
912.291	15469
912.405	15447
912.519	15610
912.633	15698
912.748	15557
912.862	15351
912.976	15283
913.09	15138
913.204	15154
913.318	15279
913.431	15401
913.545	15275
913.659	15332
913.772	15123
913.886	15089
914	15043
914.113	15150
914.226	15154
914.34	15077
914.453	15013
914.566	15020
914.68	14956
914.793	14853
914.906	14762
915.019	14701
915.132	14556
915.245	14644
915.358	14727
915.47	14701
915.583	14697
915.696	14731
915.809	14792
915.921	14796
916.034	14606
916.146	14590
916.259	14594
916.371	14651
916.483	14689
916.595	14545
916.708	14549
916.82	14549
916.932	14484
917.044	14454
917.156	14404
917.268	14419
917.38	14298
917.491	14298
917.603	14343
917.715	14423
917.826	14454
917.938	14278
918.049	14168
918.161	14294
918.272	14522
918.384	14396
918.495	14240
918.606	14180
918.717	13989
918.828	14164
918.939	14248
919.05	13993
919.161	14130
919.272	13921
919.383	14012
919.494	14126
919.604	14324
919.715	14035
919.826	14084
919.936	14092
920.047	14077
920.157	14115
920.267	14225
920.378	14081
920.488	14043
920.598	14187
920.708	14396
920.818	14153
920.928	14149
921.038	14396
921.148	14328
921.258	14054
921.368	13921
921.477	13841
921.587	13799
921.697	13643
921.806	13906
921.916	13689
922.025	13559
922.134	13449
922.244	13426
922.353	13506
922.462	13388
922.571	13346
922.68	13206
922.789	13065
922.898	13122
923.007	13103
923.116	13152
923.224	13168
923.333	13080
923.442	12932
923.55	12913
923.659	13027
923.767	13057
923.876	12939
923.984	13004
924.092	12863
924.201	12852
924.309	12920
924.417	12901
924.525	12798
924.633	12817
924.741	13689
924.849	12665
924.956	12715
925.064	12616
925.172	12483
925.279	12506
925.387	12604
925.494	12513
925.602	12654
925.709	12513
925.816	12357
925.924	12490
926.031	12551
926.138	12544
926.245	12559
926.352	12441
926.459	12494
926.566	12559
926.673	12460
926.779	12346
926.886	12323
926.993	12194
927.099	12243
927.206	12091
927.312	12098
927.419	12182
927.525	12095
927.631	12095
927.737	12057
927.843	12060
927.95	11923
928.056	11950
928.162	12087
928.267	11916
928.373	12585
928.479	12083
928.585	11863
928.69	11912
928.796	11969
928.901	11771
929.007	11668
929.112	11805
929.218	11805
929.323	11756
929.428	11748
929.533	11809
929.638	11726
929.743	11688
929.848	11638
929.953	11627
930.058	11566
930.163	11421
930.267	11379
930.372	11592
930.477	11410
930.581	11619
930.685	11471
930.79	11223
930.894	11246
930.998	11334
931.103	11387
931.207	11117
931.311	10885
931.415	10869
931.519	10691
931.623	10752
