Data from test_V78500241_3184.txt Node
Date: Fri Mar 25 15:32:01 CST 2022
User: usil
Spectrometer: V785-0024
Trigger mode: 0
Integration Time (sec): 4.000000E-1
Scans to average: 1
Nonlinearity correction enabled: false
Boxcar width: 0
Storing dark spectrum: false
XAxis mode: Wavelengths
Number of Pixels in Spectrum: 1024
>>>>>Begin Spectral Data<<<<<
801.071	27306
801.214	27085
801.356	26967
801.499	26823
801.641	26796
801.783	26674
801.926	26716
802.068	26644
802.211	26514
802.353	26606
802.496	26537
802.638	26450
802.78	26351
802.923	26309
803.065	26229
803.208	26191
803.35	26298
803.492	26598
803.635	26568
803.777	26336
803.919	26533
804.061	26880
804.204	26655
804.346	26511
804.488	26339
804.63	26579
804.773	26358
804.915	26347
805.057	26583
805.199	26476
805.341	26629
805.483	26708
805.626	26609
805.768	26530
805.91	26465
806.052	26663
806.194	26488
806.336	26876
806.478	26697
806.62	26556
806.762	26804
806.904	26918
807.046	27062
807.188	26910
807.33	27017
807.472	27104
807.614	26902
807.756	26990
807.898	26838
808.04	26868
808.182	26823
808.324	26826
808.465	26975
808.607	27108
808.749	27116
808.891	27245
809.033	27443
809.174	27310
809.316	27173
809.458	27237
809.6	27180
809.741	27199
809.883	27268
810.025	27481
810.166	27488
810.308	27397
810.45	27458
810.591	27329
810.733	27195
810.875	27245
811.016	27161
811.158	27066
811.299	27321
811.441	27355
811.582	27424
811.724	27214
811.865	27020
812.007	27146
812.148	27089
812.29	27192
812.431	27378
812.573	27515
812.714	27606
812.855	27564
812.997	27660
813.138	27907
813.279	27831
813.421	27698
813.562	27458
813.703	27526
813.845	27332
813.986	27131
814.127	26929
814.268	26902
814.41	26891
814.551	26712
814.692	26792
814.833	26754
814.974	26838
815.115	26762
815.256	26667
815.397	26678
815.539	26648
815.68	26697
815.821	26636
815.962	26594
816.103	26590
816.244	26408
816.385	26324
816.526	26404
816.666	26233
816.807	26035
816.948	26164
817.089	26248
817.23	26225
817.371	26100
817.512	26103
817.653	26050
817.793	26005
817.934	26020
818.075	26100
818.216	26088
818.356	26126
818.497	25989
818.638	25837
818.778	25925
818.919	25818
819.06	25765
819.2	26050
819.341	25982
819.481	26122
819.622	26153
819.762	26408
819.903	26438
820.043	26206
820.184	26206
820.324	26115
820.465	26442
820.605	26180
820.746	26069
820.886	26031
821.026	26130
821.167	26115
821.307	26122
821.447	26122
821.588	26012
821.728	25909
821.868	25616
822.008	25548
822.149	25601
822.289	25533
822.429	25301
822.569	25354
822.709	25304
822.849	25046
822.99	25148
823.13	24973
823.27	24985
823.41	24840
823.55	24856
823.69	24943
823.83	24951
823.97	24810
824.11	24620
824.25	24760
824.389	24547
824.529	24715
824.669	24707
824.809	24901
824.949	24783
825.089	24734
825.228	24677
825.368	24509
825.508	24513
825.648	24623
825.787	24528
825.927	24700
826.067	24604
826.206	24623
826.346	24684
826.485	24730
826.625	24563
826.765	24498
826.904	24471
827.044	24369
827.183	24391
827.323	24273
827.462	24429
827.601	24357
827.741	24376
827.88	24270
828.02	24125
828.159	24110
828.298	24232
828.437	24350
828.577	24232
828.716	24372
828.855	24323
828.994	23885
829.134	24041
829.273	24117
829.412	23977
829.551	23931
829.69	23939
829.829	24011
829.968	23969
830.107	24015
830.246	23984
830.385	23866
830.524	23790
830.663	23809
830.802	23707
830.941	23638
831.08	23627
831.219	23638
831.357	23703
831.496	23866
831.635	23573
831.774	23570
831.913	23478
832.051	23330
832.19	23455
832.329	23334
832.467	23273
832.606	23170
832.744	23258
832.883	23425
833.022	23216
833.16	23292
833.299	23299
833.437	23368
833.576	23379
833.714	23417
833.852	23376
833.991	23376
834.129	23337
834.267	23463
834.406	23269
834.544	23387
834.682	23478
834.821	23296
834.959	23493
835.097	23269
835.235	23273
835.373	23261
835.511	23360
835.65	23181
835.788	23239
835.926	23121
836.064	22892
836.202	23044
836.34	23147
836.478	23292
836.615	23185
836.753	23193
836.891	23204
837.029	23250
837.167	23124
837.305	23079
837.443	23124
837.58	23018
837.718	23223
837.856	23010
837.993	22999
838.131	23041
838.269	22934
838.406	22919
838.544	22885
838.681	22763
838.819	22717
838.956	22607
839.094	22508
839.231	22694
839.369	22698
839.506	22980
839.643	22702
839.781	22542
839.918	22405
840.055	22500
840.193	22508
840.33	22421
840.467	22535
840.604	22436
840.742	22733
840.879	22215
841.016	22382
841.153	22352
841.29	22584
841.427	22337
841.564	22386
841.701	22333
841.838	22481
841.975	22268
842.112	22367
842.249	22310
842.385	22173
842.522	22394
842.659	22386
842.796	22242
842.933	22238
843.069	22204
843.206	22097
843.343	22166
843.479	22200
843.616	22192
843.752	21922
843.889	21941
844.025	22093
844.162	21953
844.298	21972
844.435	22002
844.571	21884
844.708	21907
844.844	22242
844.98	22143
845.117	22143
845.253	21911
845.389	21895
845.525	21888
845.661	21717
845.798	21816
845.934	21903
846.07	21587
846.206	21827
846.342	21869
846.478	21713
846.614	21549
846.75	21428
846.886	21408
847.022	21549
847.158	21591
847.294	21545
847.429	21538
847.565	21378
847.701	21652
847.837	21112
847.972	21157
848.108	21192
848.244	21317
848.379	21199
848.515	21089
848.65	21013
848.786	20941
848.921	20914
849.057	21165
849.192	21157
849.328	21081
849.463	20982
849.598	21032
849.734	20921
849.869	20899
850.004	20819
850.14	20876
850.275	20804
850.41	20819
850.545	20857
850.68	20891
850.815	20830
850.95	20914
851.085	20998
851.22	20876
851.355	20823
851.49	20823
851.625	20769
851.76	20773
851.895	20796
852.03	20788
852.165	20724
852.299	20811
852.434	20948
852.569	20762
852.703	20861
852.838	20853
852.973	21020
853.107	20914
853.242	20727
853.376	20663
853.511	20419
853.645	20552
853.78	20773
853.914	20670
854.048	20655
854.183	20651
854.317	20674
854.451	20838
854.585	20712
854.72	20598
854.854	20705
854.988	20583
855.122	20632
855.256	20606
855.39	20644
855.524	20701
855.658	20743
855.792	20640
855.926	20716
856.06	20617
856.194	20693
856.327	20568
856.461	20541
856.595	20632
856.729	20648
856.862	20739
856.996	20644
857.13	20655
857.263	20689
857.397	20670
857.53	20678
857.664	20613
857.797	20731
857.931	20788
858.064	20545
858.197	20765
858.331	20621
858.464	20693
858.597	20514
858.731	20583
858.864	20579
858.997	20587
859.13	20746
859.263	20617
859.396	20758
859.529	20625
859.662	20621
859.795	20503
859.928	20644
860.061	20720
860.194	20880
860.327	20708
860.46	20777
860.592	20712
860.725	20864
860.858	20815
860.99	20689
861.123	20488
861.256	20587
861.388	20632
861.521	21169
861.653	20476
861.786	20385
861.918	20431
862.05	20564
862.183	20465
862.315	20583
862.447	20636
862.58	20541
862.712	20423
862.844	20267
862.976	20377
863.108	20351
863.24	20800
863.372	20176
863.504	20347
863.636	20320
863.768	20457
863.9	20454
864.032	20202
864.164	20294
864.296	20381
864.428	20438
864.559	20404
864.691	20442
864.823	20446
864.954	20419
865.086	20434
865.217	20206
865.349	20168
865.48	20267
865.612	20275
865.743	20469
865.875	20263
866.006	20256
866.137	20317
866.269	20237
866.4	20218
866.531	20206
866.662	20157
866.793	20252
866.924	20259
867.055	20282
867.186	20172
867.317	20206
867.448	20195
867.579	20275
867.71	20134
867.841	20130
867.972	20187
868.103	20229
868.233	20237
868.364	20237
868.495	20298
868.625	20431
868.756	20450
868.886	20385
869.017	20511
869.147	20461
869.278	20495
869.408	20522
869.539	20427
869.669	20495
869.799	20442
869.929	20545
870.06	20522
870.19	20792
870.32	20663
870.45	20765
870.58	20781
870.71	21032
870.84	20967
870.97	20849
871.1	20792
871.23	20975
871.36	21020
871.489	20998
871.619	21017
871.749	21009
871.879	21074
872.008	21131
872.138	21024
872.267	20975
872.397	20902
872.526	20880
872.656	20880
872.785	20815
872.915	21001
873.044	21222
873.173	21104
873.303	21036
873.432	21085
873.561	21195
873.69	21116
873.819	21096
873.948	21176
874.077	21157
874.206	21001
874.335	21051
874.464	21154
874.593	21325
874.722	21249
874.851	21332
874.979	21389
875.108	21275
875.237	21313
875.365	21310
875.494	21294
875.623	21447
875.751	21313
875.88	21336
876.008	21397
876.136	21386
876.265	21766
876.393	21930
876.521	21789
876.65	21949
876.778	21644
876.906	21793
877.034	21622
877.162	21622
877.29	21686
877.418	21736
877.546	21717
877.674	21709
877.802	21694
877.93	21610
878.058	21644
878.185	21492
878.313	21530
878.441	21675
878.568	21542
878.696	21591
878.824	21694
878.951	21709
879.079	21816
879.206	21972
879.333	21819
879.461	21755
879.588	21774
879.715	21884
879.842	21975
879.97	21724
880.097	21530
880.224	21519
880.351	21530
880.478	21538
880.605	21435
880.732	21462
880.859	21720
880.986	21431
881.112	21561
881.239	21458
881.366	21214
881.493	21169
881.619	21157
881.746	21096
881.872	21096
881.999	20952
882.125	21017
882.252	21127
882.378	21119
882.505	21199
882.631	21020
882.757	20986
882.883	20902
883.01	20777
883.136	20689
883.262	20667
883.388	20689
883.514	20701
883.64	20845
883.766	20689
883.892	20579
884.018	20545
884.143	20598
884.269	20845
884.395	20533
884.52	20530
884.646	20545
884.772	20332
884.897	20427
885.023	20400
885.148	20568
885.274	20644
885.399	20465
885.524	20476
885.65	20473
885.775	20446
885.9	20324
886.025	20587
886.15	20518
886.275	20393
886.4	20278
886.525	20317
886.65	20358
886.775	20355
886.9	20457
887.025	20495
887.149	20450
887.274	20313
887.399	20320
887.523	20172
887.648	20214
887.773	20233
887.897	20301
888.021	20202
888.146	20157
888.27	20301
888.395	20362
888.519	20176
888.643	20195
888.767	20259
888.891	20084
889.015	20081
889.139	19978
889.263	20103
889.387	20065
889.511	20145
889.635	20065
889.759	20020
889.883	19898
890.006	20043
890.13	19970
890.254	20081
890.377	19932
890.501	19799
890.624	19784
890.748	19795
890.871	19582
890.995	19578
891.118	19548
891.241	19647
891.364	19594
891.488	19693
891.611	19487
891.734	19559
891.857	19533
891.98	19571
892.103	19571
892.226	19529
892.349	19483
892.471	19426
892.594	19529
892.717	19548
892.839	19476
892.962	19483
893.085	19476
893.207	19487
893.33	19480
893.452	19476
893.575	19434
893.697	19472
893.819	19696
893.941	19696
894.064	19658
894.186	19434
894.308	19434
894.43	19635
894.552	19590
894.674	19548
894.796	19468
894.918	19575
895.04	19457
895.161	19575
895.283	19514
895.405	19400
895.526	19502
895.648	19514
895.769	19529
895.891	19586
896.012	19616
896.134	19506
896.255	19506
896.376	19499
896.498	19472
896.619	19559
896.74	19403
896.861	19563
896.982	19871
897.103	20024
897.224	19753
897.345	19765
897.466	19753
897.587	19681
897.708	19925
897.828	19818
897.949	19738
898.07	19514
898.19	19723
898.311	19864
898.431	19571
898.552	19795
898.672	19913
898.792	19833
898.913	19856
899.033	19578
899.153	19616
899.273	19464
899.393	19567
899.513	19544
899.633	19483
899.753	19472
899.873	19495
899.993	19369
900.113	19468
900.232	19449
900.352	19388
900.472	19289
900.591	19316
900.711	19346
900.83	19327
900.95	19441
901.069	19373
901.189	19118
901.308	19091
901.427	18886
901.546	18916
901.665	18791
901.784	18939
901.904	18684
902.023	18669
902.141	18467
902.26	18369
902.379	18555
902.498	18350
902.617	18273
902.735	18395
902.854	18403
902.973	18327
903.091	18136
903.21	17999
903.328	18091
903.446	17984
903.565	17920
903.683	17935
903.801	17859
903.919	17821
904.038	17859
904.156	17687
904.274	17726
904.392	17676
904.51	17570
904.627	17699
904.745	17657
904.863	17726
904.981	17467
905.098	17364
905.216	17200
905.334	17353
905.451	17387
905.569	17265
905.686	17360
905.803	17265
905.921	17086
906.038	17220
906.155	17162
906.272	17056
906.389	17033
906.506	16873
906.623	16908
906.74	16904
906.857	16809
906.974	16828
907.091	16873
907.208	16942
907.324	16965
907.441	16839
907.557	16558
907.674	16561
907.79	16538
907.907	16577
908.023	16729
908.139	16573
908.256	16630
908.372	16474
908.488	16462
908.604	16348
908.72	16352
908.836	16371
908.952	16287
909.068	16318
909.184	16356
909.3	16352
909.415	16306
909.531	16329
909.647	16078
909.762	16010
909.878	16036
909.993	16143
910.108	15956
910.224	15949
910.339	16002
910.454	15922
910.57	15869
910.685	15747
910.8	16063
910.915	16040
911.03	15838
911.145	15637
911.259	15633
911.374	15652
911.489	15652
911.604	15534
911.718	15321
911.833	15420
911.947	15370
912.062	15344
912.176	15443
912.291	15389
912.405	15370
912.519	15614
912.633	15572
912.748	15488
912.862	15359
912.976	15173
913.09	15146
913.204	15237
913.318	15165
913.431	15214
913.545	15340
913.659	15245
913.772	15207
913.886	15108
914	14979
914.113	15169
914.226	15112
914.34	15066
914.453	14933
914.566	14975
914.68	14891
914.793	14891
914.906	14564
915.019	14610
915.132	14568
915.245	14545
915.358	14712
915.47	14579
915.583	14636
915.696	14564
915.809	14655
915.921	14720
916.034	14495
916.146	14598
916.259	14492
916.371	14530
916.483	14621
916.595	14465
916.708	14511
916.82	14492
916.932	14415
917.044	14412
917.156	14400
917.268	14309
917.38	14324
917.491	14358
917.603	14290
917.715	14385
917.826	14396
917.938	14195
918.049	14172
918.161	14240
918.272	14358
918.384	14389
918.495	14149
918.606	14088
918.717	14050
918.828	14111
918.939	14115
919.05	13993
919.161	14054
919.272	13860
919.383	13871
919.494	14046
919.604	14168
919.715	14111
919.826	13959
919.936	14046
920.047	14039
920.157	14077
920.267	14294
920.378	14058
920.488	13993
920.598	14145
920.708	14278
920.818	14191
920.928	14145
921.038	14423
921.148	14343
921.258	14054
921.368	13902
921.477	13856
921.587	13811
921.697	13685
921.806	13841
921.916	13616
922.025	13472
922.134	13422
922.244	13495
922.353	13472
922.462	13343
922.571	13240
922.68	13137
922.789	13069
922.898	13122
923.007	13042
923.116	13095
923.224	13088
923.333	13038
923.442	12989
923.55	12924
923.659	12882
923.767	13118
923.876	12859
923.984	13042
924.092	12814
924.201	12920
924.309	12852
924.417	12821
924.525	12753
924.633	12875
924.741	13727
924.849	12616
924.956	12730
925.064	12631
925.172	12528
925.279	12570
925.387	12601
925.494	12540
925.602	12665
925.709	12612
925.816	12433
925.924	12445
926.031	12582
926.138	12452
926.245	12574
926.352	12361
926.459	12471
926.566	12566
926.673	12490
926.779	12270
926.886	12285
926.993	12095
927.099	12064
927.206	12110
927.312	12102
927.419	12117
927.525	12079
927.631	12136
927.737	11988
927.843	11923
927.95	11863
928.056	11916
928.162	11973
928.267	11969
928.373	12559
928.479	12026
928.585	11748
928.69	11973
928.796	11923
928.901	11695
929.007	11642
929.112	11836
929.218	11718
929.323	11714
929.428	11688
929.533	11790
929.638	11596
929.743	11649
929.848	11752
929.953	11608
930.058	11551
930.163	11318
930.267	11349
930.372	11497
930.477	11349
930.581	11551
930.685	11524
930.79	11277
930.894	11311
930.998	11250
931.103	11360
931.207	11086
931.311	10889
931.415	10828
931.519	10755
931.623	10645
