Data from test_V78500241_1285.txt Node
Date: Fri Mar 25 15:18:48 CST 2022
User: usil
Spectrometer: V785-0024
Trigger mode: 0
Integration Time (sec): 4.000000E-1
Scans to average: 1
Nonlinearity correction enabled: false
Boxcar width: 0
Storing dark spectrum: false
XAxis mode: Wavelengths
Number of Pixels in Spectrum: 1024
>>>>>Begin Spectral Data<<<<<
801.071	28188
801.214	28032
801.356	27804
801.499	27648
801.641	27614
801.783	27629
801.926	27701
802.068	27743
802.211	27591
802.353	27614
802.496	27363
802.638	27321
802.78	27268
802.923	27310
803.065	27249
803.208	27157
803.35	27302
803.492	27450
803.635	27511
803.777	27435
803.919	27629
804.061	27759
804.204	27660
804.346	27450
804.488	27427
804.63	27591
804.773	27329
804.915	27496
805.057	27686
805.199	27526
805.341	27561
805.483	27698
805.626	27583
805.768	27633
805.91	27519
806.052	27671
806.194	27549
806.336	27755
806.478	27641
806.62	27633
806.762	27717
806.904	27747
807.046	28063
807.188	28086
807.33	28124
807.472	28207
807.614	28063
807.756	28070
807.898	27816
808.04	27895
808.182	27972
808.324	27854
808.465	27914
808.607	28181
808.749	28242
808.891	28162
809.033	28405
809.174	28443
809.316	28291
809.458	28485
809.6	28242
809.741	28405
809.883	28550
810.025	28470
810.166	28550
810.308	28599
810.45	28519
810.591	28451
810.733	28352
810.875	28329
811.016	28185
811.158	28188
811.299	28405
811.441	28386
811.582	28519
811.724	28386
811.865	28242
812.007	28291
812.148	28405
812.29	28287
812.431	28382
812.573	28691
812.714	28622
812.855	28828
812.997	28839
813.138	29029
813.279	28957
813.421	28854
813.562	28858
813.703	28717
813.845	28641
813.986	28291
814.127	28059
814.268	28219
814.41	28021
814.551	28101
814.692	28109
814.833	27903
814.974	28067
815.115	27949
815.256	27918
815.397	27865
815.539	27926
815.68	27907
815.821	27774
815.962	27781
816.103	27899
816.244	27679
816.385	27572
816.526	27538
816.666	27431
816.807	27245
816.948	27389
817.089	27625
817.23	27344
817.371	27287
817.512	27405
817.653	27340
817.793	27325
817.934	27336
818.075	27123
818.216	27291
818.356	27211
818.497	27214
818.638	27093
818.778	27070
818.919	27077
819.06	27150
819.2	27245
819.341	27298
819.481	27283
819.622	27367
819.762	27743
819.903	27519
820.043	27458
820.184	27526
820.324	27466
820.465	27321
820.605	27412
820.746	27298
820.886	27279
821.026	27367
821.167	27336
821.307	27466
821.447	27321
821.588	27207
821.728	27150
821.868	27051
822.008	26804
822.149	26815
822.289	26670
822.429	26469
822.569	26442
822.709	26541
822.849	26404
822.99	26248
823.13	26305
823.27	26248
823.41	26016
823.55	25951
823.69	26077
823.83	26103
823.97	26142
824.11	25841
824.25	25966
824.389	26058
824.529	25993
824.669	26008
824.809	26012
824.949	26111
825.089	26077
825.228	26062
825.368	25849
825.508	25928
825.648	25814
825.787	25811
825.927	25887
826.067	25856
826.206	25894
826.346	25936
826.485	25978
826.625	25807
826.765	25932
826.904	25951
827.044	25575
827.183	25613
827.323	25422
827.462	25571
827.601	25639
827.741	25514
827.88	25712
828.02	25460
828.159	25567
828.298	25575
828.437	25658
828.577	25529
828.716	25639
828.855	25495
828.994	25320
829.134	25240
829.273	25320
829.412	25236
829.551	25251
829.69	25080
829.829	25369
829.968	25392
830.107	25202
830.246	25365
830.385	25232
830.524	25088
830.663	25065
830.802	25072
830.941	24939
831.08	24856
831.219	24905
831.357	24844
831.496	25095
831.635	24878
831.774	24711
831.913	24738
832.051	24700
832.19	24639
832.329	24715
832.467	24513
832.606	24513
832.744	24471
832.883	24505
833.022	24441
833.16	24597
833.299	24544
833.437	24589
833.576	24616
833.714	24563
833.852	24707
833.991	24749
834.129	24589
834.267	24627
834.406	24517
834.544	24631
834.682	24540
834.821	24475
834.959	24700
835.097	24532
835.235	24673
835.373	24620
835.511	24559
835.65	24513
835.788	24460
835.926	24342
836.064	24273
836.202	24232
836.34	24437
836.478	24547
836.615	24441
836.753	24395
836.891	24528
837.029	24391
837.167	24380
837.305	24346
837.443	24216
837.58	24338
837.718	24243
837.856	24353
837.993	24292
838.131	24216
838.269	24117
838.406	24125
838.544	24068
838.681	23931
838.819	23832
838.956	23805
839.094	23722
839.231	23672
839.369	23878
839.506	24045
839.643	23870
839.781	23813
839.918	23653
840.055	23733
840.193	23718
840.33	23748
840.467	23634
840.604	23790
840.742	23912
840.879	23539
841.016	23558
841.153	23634
841.29	23649
841.427	23585
841.564	23668
841.701	23726
841.838	23630
841.975	23642
842.112	23634
842.249	23505
842.385	23383
842.522	23581
842.659	23376
842.796	23406
842.933	23531
843.069	23387
843.206	23398
843.343	23402
843.479	23417
843.616	23528
843.752	23174
843.889	23178
844.025	23292
844.162	23102
844.298	23353
844.435	23242
844.571	23159
844.708	23307
844.844	23315
844.98	23368
845.117	23356
845.253	23121
845.389	23079
845.525	23048
845.661	23102
845.798	22812
845.934	23003
846.07	23006
846.206	22847
846.342	23025
846.478	22946
846.614	22736
846.75	22801
846.886	22637
847.022	22744
847.158	22672
847.294	22656
847.429	22691
847.565	22603
847.701	22843
847.837	22409
847.972	22352
848.108	22508
848.244	22367
848.379	22207
848.515	22291
848.65	22246
848.786	22234
848.921	22230
849.057	22284
849.192	22348
849.328	22280
849.463	22367
849.598	22295
849.734	22059
849.869	22112
850.004	21960
850.14	22188
850.275	22051
850.41	21949
850.545	22006
850.68	21937
850.815	22063
850.95	21991
851.085	22105
851.22	22173
851.355	21983
851.49	21903
851.625	22017
851.76	21987
851.895	21804
852.03	21835
852.165	22006
852.299	22006
852.434	22006
852.569	22036
852.703	22036
852.838	22063
852.973	22135
853.107	22059
853.242	21991
853.376	21857
853.511	21739
853.645	21759
853.78	21953
853.914	21899
854.048	21648
854.183	21812
854.317	21907
854.451	22101
854.585	21819
854.72	21797
854.854	21823
854.988	21800
855.122	21709
855.256	21663
855.39	21732
855.524	21873
855.658	21819
855.792	21846
855.926	21793
856.06	21842
856.194	21903
856.327	21743
856.461	21770
856.595	21854
856.729	21694
856.862	21911
856.996	21816
857.13	21838
857.263	21926
857.397	21888
857.53	21774
857.664	21823
857.797	21835
857.931	21926
858.064	21842
858.197	21846
858.331	21793
858.464	21762
858.597	21675
858.731	21903
858.864	21770
858.997	21766
859.13	21865
859.263	21808
859.396	21953
859.529	21884
859.662	21770
859.795	21675
859.928	21705
860.061	21930
860.194	21956
860.327	21823
860.46	21781
860.592	21835
860.725	21907
860.858	22067
860.99	21915
861.123	21637
861.256	21816
861.388	21850
861.521	22447
861.653	21686
861.786	21633
861.918	21739
862.05	21755
862.183	21770
862.315	21781
862.447	21876
862.58	21728
862.712	21610
862.844	21542
862.976	21587
863.108	21591
863.24	21838
863.372	21507
863.504	21519
863.636	21568
863.768	21523
863.9	21519
864.032	21439
864.164	21511
864.296	21500
864.428	21629
864.559	21542
864.691	21526
864.823	21610
864.954	21507
865.086	21526
865.217	21485
865.349	21321
865.48	21412
865.612	21447
865.743	21466
865.875	21386
866.006	21405
866.137	21336
866.269	21260
866.4	21389
866.531	21367
866.662	21363
866.793	21264
866.924	21306
867.055	21420
867.186	21283
867.317	21351
867.448	21146
867.579	21241
867.71	21180
867.841	21294
867.972	21389
868.103	21298
868.233	21298
868.364	21359
868.495	21458
868.625	21405
868.756	21606
868.886	21393
869.017	21526
869.147	21637
869.278	21694
869.408	21545
869.539	21614
869.669	21705
869.799	21713
869.929	21618
870.06	21823
870.19	21873
870.32	21972
870.45	21915
870.58	21972
870.71	22078
870.84	22166
870.97	21934
871.1	22025
871.23	22109
871.36	22272
871.489	22154
871.619	22181
871.749	22253
871.879	22147
872.008	22242
872.138	22147
872.267	22234
872.397	22029
872.526	21998
872.656	21956
872.785	22036
872.915	22223
873.044	22238
873.173	22105
873.303	22169
873.432	22230
873.561	22394
873.69	22284
873.819	22154
873.948	22223
874.077	22120
874.206	22166
874.335	22238
874.464	22280
874.593	22531
874.722	22382
874.851	22413
874.979	22417
875.108	22424
875.237	22386
875.365	22318
875.494	22375
875.623	22497
875.751	22337
875.88	22398
876.008	22512
876.136	22557
876.265	22911
876.393	22949
876.521	22938
876.65	22755
876.778	22694
876.906	22687
877.034	22687
877.162	22748
877.29	22854
877.418	22710
877.546	22759
877.674	22824
877.802	22649
877.93	22729
878.058	22664
878.185	22645
878.313	22660
878.441	22672
878.568	22512
878.696	22641
878.824	22793
878.951	22839
879.079	23018
879.206	22995
879.333	22892
879.461	22850
879.588	22889
879.715	22904
879.842	23075
879.97	22786
880.097	22569
880.224	22462
880.351	22577
880.478	22577
880.605	22538
880.732	22561
880.859	22774
880.986	22645
881.112	22660
881.239	22478
881.366	22360
881.493	22226
881.619	22143
881.746	22211
881.872	22120
881.999	22074
882.125	22101
882.252	22192
882.378	22036
882.505	22173
882.631	22002
882.757	21857
882.883	21975
883.01	21812
883.136	21918
883.262	21698
883.388	21656
883.514	21857
883.64	21895
883.766	21698
883.892	21504
884.018	21682
884.143	21694
884.269	21903
884.395	21545
884.52	21511
884.646	21477
884.772	21412
884.897	21397
885.023	21416
885.148	21507
885.274	21682
885.399	21686
885.524	21450
885.65	21458
885.775	21462
885.9	21336
886.025	21538
886.15	21488
886.275	21420
886.4	21306
886.525	21469
886.65	21481
886.775	21397
886.9	21614
887.025	21526
887.149	21374
887.274	21256
887.399	21249
887.523	21176
887.648	21173
887.773	21188
887.897	21302
888.021	21310
888.146	21154
888.27	21325
888.395	21355
888.519	21275
888.643	21169
888.767	21237
888.891	21188
889.015	20971
889.139	21096
889.263	21001
889.387	21188
889.511	21184
889.635	21047
889.759	21036
889.883	21017
890.006	20880
890.13	21131
890.254	20941
890.377	21028
890.501	20796
890.624	20705
890.748	20754
890.871	20625
890.995	20568
891.118	20560
891.241	20579
891.364	20571
891.488	20708
891.611	20541
891.734	20571
891.857	20697
891.98	20602
892.103	20568
892.226	20613
892.349	20663
892.471	20442
892.594	20621
892.717	20461
892.839	20571
892.962	20454
893.085	20499
893.207	20457
893.33	20320
893.452	20465
893.575	20495
893.697	20366
893.819	20693
893.941	20583
894.064	20682
894.186	20454
894.308	20278
894.43	20579
894.552	20629
894.674	20564
894.796	20514
894.918	20450
895.04	20427
895.161	20564
895.283	20514
895.405	20396
895.526	20419
895.648	20484
895.769	20541
895.891	20518
896.012	20663
896.134	20423
896.255	20632
896.376	20454
896.498	20533
896.619	20541
896.74	20537
896.861	20518
896.982	20788
897.103	20929
897.224	20758
897.345	20629
897.466	20727
897.587	20648
897.708	20773
897.828	20674
897.949	20606
898.07	20609
898.19	20758
898.311	20701
898.431	20670
898.552	20617
898.672	20804
898.792	20678
898.913	20663
899.033	20442
899.153	20552
899.273	20465
899.393	20366
899.513	20545
899.633	20389
899.753	20355
899.873	20385
899.993	20438
900.113	20256
900.232	20473
900.352	20263
900.472	20259
900.591	20050
900.711	20259
900.83	20210
900.95	20263
901.069	20332
901.189	20149
901.308	19944
901.427	19811
901.546	19772
901.665	19852
901.784	19776
901.904	19643
902.023	19441
902.141	19316
902.26	19362
902.379	19365
902.498	19289
902.617	19190
902.735	19221
902.854	19266
902.973	19103
903.091	18897
903.21	18935
903.328	19008
903.446	18859
903.565	18722
903.683	18760
903.801	18593
903.919	18658
904.038	18757
904.156	18559
904.274	18669
904.392	18445
904.51	18509
904.627	18433
904.745	18551
904.863	18498
904.981	18197
905.098	18247
905.216	18201
905.334	18380
905.451	18213
905.569	18136
905.686	18216
905.803	18201
905.921	17977
906.038	18041
906.155	17908
906.272	17897
906.389	17935
906.506	17851
906.623	17805
906.74	17741
906.857	17581
906.974	17592
907.091	17741
907.208	17870
907.324	17684
907.441	17741
907.557	17551
907.674	17471
907.79	17398
907.907	17433
908.023	17391
908.139	17387
908.256	17330
908.372	17284
908.488	17398
908.604	17220
908.72	17231
908.836	17105
908.952	17132
909.068	17254
909.184	17181
909.3	17227
909.415	17151
909.531	17250
909.647	16850
909.762	16805
909.878	16839
909.993	16866
910.108	16820
910.224	16824
910.339	16774
910.454	16725
910.57	16664
910.685	16615
910.8	16915
910.915	16748
911.03	16626
911.145	16588
911.259	16466
911.374	16474
911.489	16436
911.604	16386
911.718	16162
911.833	16268
911.947	16044
912.062	15983
912.176	16169
912.291	16185
912.405	16207
912.519	16322
912.633	16360
912.748	16200
912.862	16261
912.976	16036
913.09	15816
913.204	15968
913.318	16006
913.431	16162
913.545	15953
913.659	16150
913.772	15926
913.886	15907
914	15694
914.113	15857
914.226	15934
914.34	15850
914.453	15709
914.566	15838
914.68	15720
914.793	15641
914.906	15515
915.019	15405
915.132	15382
915.245	15408
915.358	15408
915.47	15378
915.583	15389
915.696	15462
915.809	15504
915.921	15500
916.034	15317
916.146	15294
916.259	15268
916.371	15389
916.483	15283
916.595	15176
916.708	15203
916.82	15119
916.932	15119
917.044	15100
917.156	15131
917.268	15081
917.38	15043
917.491	14975
917.603	14986
917.715	15135
917.826	15058
917.938	14975
918.049	14910
918.161	14967
918.272	15131
918.384	15108
918.495	14963
918.606	14868
918.717	14693
918.828	14701
918.939	14754
919.05	14697
919.161	14826
919.272	14541
919.383	14571
919.494	14845
919.604	15043
919.715	14815
919.826	14590
919.936	14773
920.047	14853
920.157	14769
920.267	14952
920.378	14765
920.488	14678
920.598	14937
920.708	15024
920.818	14830
920.928	14933
921.038	15013
921.148	14960
921.258	14708
921.368	14659
921.477	14530
921.587	14442
921.697	14358
921.806	14552
921.916	14328
922.025	14103
922.134	14187
922.244	14073
922.353	14130
922.462	13959
922.571	14020
922.68	13799
922.789	13772
922.898	13746
923.007	13666
923.116	13807
923.224	13795
923.333	13715
923.442	13594
923.55	13525
923.659	13670
923.767	13563
923.876	13499
923.984	13601
924.092	13529
924.201	13537
924.309	13457
924.417	13476
924.525	13426
924.633	13350
924.741	14298
924.849	13206
924.956	13331
925.064	13171
925.172	13114
925.279	13160
925.387	13122
925.494	13126
925.602	13236
925.709	13122
925.816	13107
925.924	13156
926.031	13149
926.138	13076
926.245	13088
926.352	12966
926.459	13164
926.566	13179
926.673	13019
926.779	12932
926.886	12852
926.993	12802
927.099	12749
927.206	12753
927.312	12639
927.419	12749
927.525	12673
927.631	12772
927.737	12684
927.843	12574
927.95	12388
928.056	12536
928.162	12547
928.267	12585
928.373	13232
928.479	12547
928.585	12350
928.69	12407
928.796	12521
928.901	12338
929.007	12178
929.112	12304
929.218	12277
929.323	12296
929.428	12239
929.533	12357
929.638	12197
929.743	12224
929.848	12209
929.953	12171
930.058	12087
930.163	11912
930.267	12007
930.372	12064
930.477	11927
930.581	12163
930.685	11950
930.79	11805
930.894	11824
930.998	11828
931.103	11901
931.207	11554
931.311	11512
931.415	11436
931.519	11265
931.623	11113
