Data from test_V78500241_684.txt Node
Date: Fri Mar 25 15:14:37 CST 2022
User: usil
Spectrometer: V785-0024
Trigger mode: 0
Integration Time (sec): 4.000000E-1
Scans to average: 1
Nonlinearity correction enabled: false
Boxcar width: 0
Storing dark spectrum: false
XAxis mode: Wavelengths
Number of Pixels in Spectrum: 1024
>>>>>Begin Spectral Data<<<<<
801.071	27972
801.214	27979
801.356	27861
801.499	27747
801.641	27713
801.783	27751
801.926	27614
802.068	27557
802.211	27614
802.353	27500
802.496	27370
802.638	27382
802.78	27336
802.923	27260
803.065	27329
803.208	27222
803.35	27237
803.492	27401
803.635	27496
803.777	27549
803.919	27511
804.061	27644
804.204	27530
804.346	27610
804.488	27492
804.63	27583
804.773	27389
804.915	27587
805.057	27606
805.199	27435
805.341	27675
805.483	27610
805.626	27671
805.768	27473
805.91	27500
806.052	27629
806.194	27629
806.336	27850
806.478	27759
806.62	27603
806.762	27728
806.904	27960
807.046	28204
807.188	28067
807.33	28032
807.472	28169
807.614	27937
807.756	28082
807.898	27911
808.04	27949
808.182	27930
808.324	28059
808.465	27949
808.607	28238
808.749	28143
808.891	28348
809.033	28432
809.174	28413
809.316	28306
809.458	28322
809.6	28265
809.741	28470
809.883	28462
810.025	28481
810.166	28512
810.308	28618
810.45	28462
810.591	28481
810.733	28401
810.875	28367
811.016	28063
811.158	28154
811.299	28257
811.441	28516
811.582	28371
811.724	28219
811.865	28169
812.007	28333
812.148	28280
812.29	28356
812.431	28523
812.573	28694
812.714	28793
812.855	28786
812.997	28991
813.138	29159
813.279	28904
813.421	28790
813.562	28812
813.703	28694
813.845	28519
813.986	28242
814.127	28200
814.268	28082
814.41	27953
814.551	28029
814.692	28082
814.833	28036
814.974	28032
815.115	27960
815.256	27945
815.397	28021
815.539	27983
815.68	27968
815.821	27736
815.962	27892
816.103	27861
816.244	27701
816.385	27625
816.526	27694
816.666	27507
816.807	27237
816.948	27397
817.089	27469
817.23	27294
817.371	27310
817.512	27195
817.653	27355
817.793	27355
817.934	27233
818.075	27355
818.216	27367
818.356	27268
818.497	27233
818.638	27020
818.778	27047
818.919	27017
819.06	27146
819.2	27283
819.341	27264
819.481	27340
819.622	27344
819.762	27701
819.903	27606
820.043	27610
820.184	27447
820.324	27283
820.465	27561
820.605	27477
820.746	27408
820.886	27336
821.026	27443
821.167	27355
821.307	27344
821.447	27268
821.588	27131
821.728	27058
821.868	26899
822.008	26826
822.149	26697
822.289	26640
822.429	26613
822.569	26530
822.709	26271
822.849	26298
822.99	26290
823.13	26377
823.27	26157
823.41	26088
823.55	26035
823.69	26130
823.83	26248
823.97	26081
824.11	25925
824.25	25811
824.389	26096
824.529	25970
824.669	25932
824.809	26031
824.949	25940
825.089	25944
825.228	26039
825.368	25689
825.508	25727
825.648	25822
825.787	25913
825.927	25849
826.067	25727
826.206	25712
826.346	25784
826.485	25822
826.625	25776
826.765	25928
826.904	25712
827.044	25521
827.183	25575
827.323	25392
827.462	25651
827.601	25590
827.741	25548
827.88	25658
828.02	25381
828.159	25479
828.298	25647
828.437	25575
828.577	25605
828.716	25525
828.855	25407
828.994	25327
829.134	25388
829.273	25225
829.412	25293
829.551	25240
829.69	25190
829.829	25335
829.968	25266
830.107	25228
830.246	25263
830.385	25213
830.524	25236
830.663	25031
830.802	24996
830.941	25004
831.08	24741
831.219	25027
831.357	24951
831.496	25171
831.635	24795
831.774	24749
831.913	24684
832.051	24677
832.19	24597
832.329	24688
832.467	24486
832.606	24540
832.744	24426
832.883	24540
833.022	24437
833.16	24433
833.299	24604
833.437	24616
833.576	24741
833.714	24608
833.852	24612
833.991	24532
834.129	24623
834.267	24711
834.406	24570
834.544	24589
834.682	24642
834.821	24544
834.959	24681
835.097	24502
835.235	24555
835.373	24525
835.511	24536
835.65	24380
835.788	24418
835.926	24311
836.064	24136
836.202	24201
836.34	24308
836.478	24327
836.615	24369
836.753	24346
836.891	24467
837.029	24464
837.167	24372
837.305	24395
837.443	24357
837.58	24289
837.718	24327
837.856	24228
837.993	24197
838.131	24254
838.269	24072
838.406	24216
838.544	23973
838.681	23942
838.819	23786
838.956	23843
839.094	23691
839.231	23733
839.369	23851
839.506	24152
839.643	23874
839.781	23710
839.918	23714
840.055	23737
840.193	23619
840.33	23703
840.467	23600
840.604	23745
840.742	23821
840.879	23368
841.016	23505
841.153	23482
841.29	23710
841.427	23642
841.564	23699
841.701	23543
841.838	23608
841.975	23459
842.112	23505
842.249	23288
842.385	23376
842.522	23653
842.659	23463
842.796	23376
842.933	23360
843.069	23174
843.206	23330
843.343	23410
843.479	23421
843.616	23307
843.752	23147
843.889	23098
844.025	23280
844.162	22987
844.298	23303
844.435	23166
844.571	23109
844.708	23060
844.844	23265
844.98	23189
845.117	23284
845.253	23079
845.389	23025
845.525	23102
845.661	22961
845.798	22889
845.934	22949
846.07	22919
846.206	22790
846.342	22900
846.478	22900
846.614	22630
846.75	22546
846.886	22500
847.022	22733
847.158	22466
847.294	22538
847.429	22565
847.565	22481
847.701	22721
847.837	22386
847.972	22360
848.108	22417
848.244	22474
848.379	22265
848.515	22253
848.65	22211
848.786	22272
848.921	22131
849.057	22295
849.192	22261
849.328	22223
849.463	22299
849.598	22181
849.734	22162
849.869	21991
850.004	21953
850.14	21949
850.275	21869
850.41	21934
850.545	22044
850.68	21892
850.815	21899
850.95	22025
851.085	22177
851.22	22036
851.355	21937
851.49	21911
851.625	21895
851.76	21926
851.895	21724
852.03	21880
852.165	21865
852.299	21953
852.434	21941
852.569	22013
852.703	21930
852.838	22044
852.973	22063
853.107	22082
853.242	21888
853.376	21705
853.511	21705
853.645	21755
853.78	21934
853.914	21766
854.048	21751
854.183	21709
854.317	21907
854.451	21937
854.585	21918
854.72	21705
854.854	21816
854.988	21717
855.122	21854
855.256	21656
855.39	21736
855.524	21743
855.658	21778
855.792	21888
855.926	21679
856.06	21785
856.194	21880
856.327	21709
856.461	21690
856.595	21713
856.729	21759
856.862	21888
856.996	21854
857.13	21778
857.263	21865
857.397	21873
857.53	21797
857.664	21842
857.797	21911
857.931	21831
858.064	21686
858.197	21949
858.331	21720
858.464	21641
858.597	21622
858.731	21675
858.864	21835
858.997	21644
859.13	21819
859.263	21728
859.396	21736
859.529	21835
859.662	21671
859.795	21686
859.928	21778
860.061	21949
860.194	21949
860.327	21827
860.46	21732
860.592	21865
860.725	21888
860.858	21888
860.99	21800
861.123	21724
861.256	21835
861.388	21812
861.521	22691
861.653	21728
861.786	21538
861.918	21507
862.05	21553
862.183	21656
862.315	21766
862.447	21591
862.58	21679
862.712	21519
862.844	21568
862.976	21587
863.108	21515
863.24	21937
863.372	21355
863.504	21382
863.636	21428
863.768	21511
863.9	21477
864.032	21386
864.164	21450
864.296	21473
864.428	21561
864.559	21549
864.691	21507
864.823	21625
864.954	21504
865.086	21481
865.217	21424
865.349	21260
865.48	21374
865.612	21332
865.743	21568
865.875	21389
866.006	21294
866.137	21424
866.269	21370
866.4	21249
866.531	21279
866.662	21298
866.793	21192
866.924	21332
867.055	21378
867.186	21306
867.317	21344
867.448	21169
867.579	21222
867.71	21260
867.841	21157
867.972	21279
868.103	21199
868.233	21329
868.364	21306
868.495	21340
868.625	21431
868.756	21561
868.886	21447
869.017	21431
869.147	21599
869.278	21610
869.408	21511
869.539	21583
869.669	21644
869.799	21568
869.929	21648
870.06	21690
870.19	21701
870.32	21823
870.45	21831
870.58	21850
870.71	22010
870.84	22021
870.97	21934
871.1	21895
871.23	22090
871.36	22143
871.489	22013
871.619	22055
871.749	22158
871.879	22135
872.008	22131
872.138	22105
872.267	22070
872.397	21975
872.526	21835
872.656	22048
872.785	21926
872.915	22048
873.044	22246
873.173	22124
873.303	22013
873.432	22268
873.561	22173
873.69	22169
873.819	22207
873.948	22246
874.077	22200
874.206	22082
874.335	22101
874.464	22204
874.593	22344
874.722	22318
874.851	22367
874.979	22478
875.108	22405
875.237	22299
875.365	22192
875.494	22341
875.623	22424
875.751	22360
875.88	22367
876.008	22360
876.136	22489
876.265	22725
876.393	22740
876.521	22862
876.65	22824
876.778	22797
876.906	22706
877.034	22649
877.162	22725
877.29	22748
877.418	22713
877.546	22809
877.674	22763
877.802	22660
877.93	22793
878.058	22725
878.185	22504
878.313	22607
878.441	22805
878.568	22527
878.696	22649
878.824	22710
878.951	22828
879.079	22866
879.206	22980
879.333	22805
879.461	22736
879.588	22835
879.715	22801
879.842	23052
879.97	22843
880.097	22675
880.224	22535
880.351	22580
880.478	22584
880.605	22523
880.732	22599
880.859	22733
880.986	22493
881.112	22550
881.239	22417
881.366	22234
881.493	22253
881.619	22086
881.746	22040
881.872	22154
881.999	22074
882.125	21975
882.252	22010
882.378	22036
882.505	22246
882.631	21857
882.757	21835
882.883	21846
883.01	21755
883.136	21747
883.262	21656
883.388	21660
883.514	21880
883.64	21842
883.766	21717
883.892	21549
884.018	21652
884.143	21705
884.269	21838
884.395	21329
884.52	21424
884.646	21401
884.772	21344
884.897	21283
885.023	21408
885.148	21458
885.274	21614
885.399	21530
885.524	21386
885.65	21439
885.775	21462
885.9	21519
886.025	21469
886.15	21523
886.275	21329
886.4	21291
886.525	21367
886.65	21359
886.775	21336
886.9	21580
887.025	21549
887.149	21374
887.274	21199
887.399	21233
887.523	21237
887.648	21077
887.773	21173
887.897	21348
888.021	21157
888.146	21100
888.27	21230
888.395	21256
888.519	21195
888.643	21142
888.767	21256
888.891	21138
889.015	21017
889.139	20990
889.263	20811
889.387	21039
889.511	21207
889.635	21108
889.759	21051
889.883	20975
890.006	21089
890.13	21024
890.254	20883
890.377	20933
890.501	20800
890.624	20606
890.748	20716
890.871	20606
890.995	20609
891.118	20571
891.241	20590
891.364	20564
891.488	20625
891.611	20602
891.734	20579
891.857	20594
891.98	20434
892.103	20530
892.226	20469
892.349	20518
892.471	20313
892.594	20415
892.717	20465
892.839	20446
892.962	20530
893.085	20469
893.207	20469
893.33	20252
893.452	20396
893.575	20476
893.697	20457
893.819	20564
893.941	20526
894.064	20492
894.186	20480
894.308	20313
894.43	20507
894.552	20583
894.674	20450
894.796	20347
894.918	20404
895.04	20389
895.161	20556
895.283	20492
895.405	20355
895.526	20404
895.648	20313
895.769	20298
895.891	20446
896.012	20541
896.134	20370
896.255	20427
896.376	20473
896.498	20400
896.619	20446
896.74	20377
896.861	20427
896.982	20807
897.103	20861
897.224	20746
897.345	20651
897.466	20579
897.587	20640
897.708	20705
897.828	20583
897.949	20712
898.07	20484
898.19	20617
898.311	20674
898.431	20632
898.552	20777
898.672	20617
898.792	20655
898.913	20663
899.033	20427
899.153	20488
899.273	20290
899.393	20499
899.513	20347
899.633	20507
899.753	20358
899.873	20351
899.993	20332
900.113	20408
900.232	20404
900.352	20267
900.472	20248
900.591	20176
900.711	20183
900.83	20081
900.95	20324
901.069	20191
901.189	20043
901.308	19753
901.427	19776
901.546	19750
901.665	19906
901.784	19814
901.904	19552
902.023	19521
902.141	19289
902.26	19278
902.379	19388
902.498	19308
902.617	19133
902.735	19187
902.854	19202
902.973	19148
903.091	19042
903.21	19023
903.328	18840
903.446	18878
903.565	18760
903.683	18589
903.801	18589
903.919	18650
904.038	18582
904.156	18547
904.274	18483
904.392	18574
904.51	18494
904.627	18521
904.745	18521
904.863	18551
904.981	18330
905.098	18216
905.216	18110
905.334	18273
905.451	18228
905.569	18026
905.686	18254
905.803	18171
905.921	17992
906.038	17954
906.155	18030
906.272	17889
906.389	17885
906.506	17710
906.623	17642
906.74	17760
906.857	17627
906.974	17581
907.091	17828
907.208	17828
907.324	17699
907.441	17604
907.557	17326
907.674	17376
907.79	17383
907.907	17402
908.023	17433
908.139	17486
908.256	17334
908.372	17353
908.488	17296
908.604	17109
908.72	17041
908.836	17132
908.952	17022
909.068	17204
909.184	17208
909.3	17094
909.415	17128
909.531	17189
909.647	16854
909.762	16835
909.878	16797
909.993	16927
910.108	16759
910.224	16664
910.339	16850
910.454	16694
910.57	16687
910.685	16603
910.8	16847
910.915	16812
911.03	16653
911.145	16535
911.259	16409
911.374	16417
911.489	16360
911.604	16337
911.718	16135
911.833	16173
911.947	16097
912.062	15994
912.176	16162
912.291	16188
912.405	16166
912.519	16303
912.633	16306
912.748	16150
912.862	16040
912.976	15945
913.09	15911
913.204	15941
913.318	16067
913.431	16086
913.545	15987
913.659	16029
913.772	15880
913.886	15816
914	15797
914.113	15888
914.226	15884
914.34	15835
914.453	15671
914.566	15713
914.68	15648
914.793	15561
914.906	15481
915.019	15302
915.132	15317
915.245	15275
915.358	15416
915.47	15378
915.583	15397
915.696	15348
915.809	15538
915.921	15549
916.034	15294
916.146	15218
916.259	15222
916.371	15230
916.483	15325
916.595	15211
916.708	15237
916.82	15249
916.932	15131
917.044	15260
917.156	15260
917.268	14948
917.38	15017
917.491	14929
917.603	14963
917.715	15043
917.826	15146
917.938	14902
918.049	14895
918.161	14937
918.272	15009
918.384	14990
918.495	14921
918.606	14902
918.717	14693
918.828	14693
918.939	14796
919.05	14648
919.161	14720
919.272	14610
919.383	14465
919.494	14678
919.604	14960
919.715	14857
919.826	14674
919.936	14727
920.047	14804
920.157	14785
920.267	14937
920.378	14693
920.488	14617
920.598	14937
920.708	15017
920.818	14826
920.928	14880
921.038	14944
921.148	14967
921.258	14663
921.368	14632
921.477	14465
921.587	14476
921.697	14278
921.806	14488
921.916	14286
922.025	14164
922.134	14111
922.244	14119
922.353	14096
922.462	13852
922.571	13852
922.68	13757
922.789	13738
922.898	13727
923.007	13746
923.116	13708
923.224	13658
923.333	13628
923.442	13590
923.55	13510
923.659	13616
923.767	13597
923.876	13491
923.984	13563
924.092	13483
924.201	13491
924.309	13491
924.417	13552
924.525	13434
924.633	13403
924.741	14164
924.849	13221
924.956	13327
925.064	13274
925.172	13149
925.279	13126
925.387	13107
925.494	13095
925.602	13137
925.709	13240
925.816	13061
925.924	13023
926.031	13141
926.138	13019
926.245	13141
926.352	13034
926.459	13072
926.566	13129
926.673	12935
926.779	12886
926.886	12783
926.993	12817
927.099	12589
927.206	12688
927.312	12585
927.419	12779
927.525	12715
927.631	12814
927.737	12631
927.843	12582
927.95	12452
928.056	12555
928.162	12536
928.267	12589
928.373	13202
928.479	12654
928.585	12315
928.69	12452
928.796	12509
928.901	12395
929.007	12224
929.112	12308
929.218	12395
929.323	12201
929.428	12216
929.533	12350
929.638	12152
929.743	12171
929.848	12201
929.953	12178
930.058	12022
930.163	11901
930.267	11901
930.372	12045
930.477	11946
930.581	12152
930.685	11965
930.79	11783
930.894	11794
930.998	11851
931.103	11912
931.207	11581
931.311	11459
931.415	11425
931.519	11212
931.623	11189
