Data from test_V78500241_2155.txt Node
Date: Fri Mar 25 15:24:51 CST 2022
User: usil
Spectrometer: V785-0024
Trigger mode: 0
Integration Time (sec): 4.000000E-1
Scans to average: 1
Nonlinearity correction enabled: false
Boxcar width: 0
Storing dark spectrum: false
XAxis mode: Wavelengths
Number of Pixels in Spectrum: 1024
>>>>>Begin Spectral Data<<<<<
801.071	27698
801.214	27603
801.356	27469
801.499	27291
801.641	27135
801.783	27218
801.926	27298
802.068	27230
802.211	27165
802.353	27291
802.496	26948
802.638	26940
802.78	26899
802.923	26788
803.065	26796
803.208	26819
803.35	26785
803.492	27028
803.635	27077
803.777	26929
803.919	27112
804.061	27355
804.204	27195
804.346	27252
804.488	27032
804.63	27146
804.773	27028
804.915	27131
805.057	27211
805.199	27123
805.341	27207
805.483	27359
805.626	27252
805.768	27165
805.91	27222
806.052	27313
806.194	27138
806.336	27294
806.478	27176
806.62	27100
806.762	27340
806.904	27412
807.046	27553
807.188	27587
807.33	27884
807.472	27675
807.614	27447
807.756	27656
807.898	27530
808.04	27408
808.182	27351
808.324	27458
808.465	27427
808.607	27686
808.749	27884
808.891	28044
809.033	27926
809.174	27816
809.316	27831
809.458	27880
809.6	27747
809.741	28021
809.883	27983
810.025	28135
810.166	28192
810.308	28249
810.45	28147
810.591	27975
810.733	27865
810.875	27854
811.016	27751
811.158	27599
811.299	27835
811.441	27880
811.582	28090
811.724	27831
811.865	27694
812.007	27766
812.148	27785
812.29	27778
812.431	27979
812.573	28169
812.714	28299
812.855	28360
812.997	28386
813.138	28577
813.279	28432
813.421	28363
813.562	28219
813.703	28253
813.845	28036
813.986	27816
814.127	27637
814.268	27549
814.41	27530
814.551	27557
814.692	27599
814.833	27507
814.974	27523
815.115	27515
815.256	27485
815.397	27378
815.539	27405
815.68	27310
815.821	27279
815.962	27252
816.103	27325
816.244	27116
816.385	27123
816.526	26963
816.666	26933
816.807	26811
816.948	26788
817.089	27036
817.23	26815
817.371	26845
817.512	26739
817.653	26693
817.793	26636
817.934	26796
818.075	26701
818.216	26853
818.356	26697
818.497	26697
818.638	26556
818.778	26602
818.919	26625
819.06	26670
819.2	26697
819.341	26804
819.481	26724
819.622	26940
819.762	27100
819.903	26940
820.043	26982
820.184	26845
820.324	26857
820.465	26960
820.605	26914
820.746	26880
820.886	26727
821.026	26906
821.167	26686
821.307	26838
821.447	26785
821.588	26727
821.728	26583
821.868	26442
822.008	26233
822.149	26259
822.289	26267
822.429	26046
822.569	25989
822.709	25875
822.849	25811
822.99	25689
823.13	25723
823.27	25556
823.41	25586
823.55	25445
823.69	25567
823.83	25609
823.97	25556
824.11	25308
824.25	25320
824.389	25324
824.529	25365
824.669	25495
824.809	25472
824.949	25472
825.089	25472
825.228	25388
825.368	25270
825.508	25164
825.648	25110
825.787	25316
825.927	25312
826.067	25282
826.206	25202
826.346	25285
826.485	25221
826.625	25247
826.765	25392
826.904	25259
827.044	25065
827.183	25084
827.323	24973
827.462	25080
827.601	25110
827.741	24943
827.88	24985
828.02	24863
828.159	25008
828.298	24837
828.437	24981
828.577	24901
828.716	24958
828.855	24840
828.994	24684
829.134	24791
829.273	24692
829.412	24608
829.551	24692
829.69	24715
829.829	24700
829.968	24772
830.107	24654
830.246	24616
830.385	24509
830.524	24566
830.663	24525
830.802	24346
830.941	24197
831.08	24361
831.219	24292
831.357	24308
831.496	24471
831.635	24247
831.774	24087
831.913	24239
832.051	24064
832.19	23958
832.329	23897
832.467	23939
832.606	23927
832.744	24034
832.883	23939
833.022	23901
833.16	23965
833.299	23893
833.437	24076
833.576	24022
833.714	23942
833.852	24057
833.991	24053
834.129	24117
834.267	23992
834.406	23885
834.544	24049
834.682	24022
834.821	23927
834.959	24083
835.097	23809
835.235	23965
835.373	24079
835.511	23935
835.65	23786
835.788	23828
835.926	23832
836.064	23585
836.202	23642
836.34	23790
836.478	23920
836.615	23847
836.753	23745
836.891	23923
837.029	23843
837.167	23733
837.305	23722
837.443	23710
837.58	23741
837.718	23752
837.856	23547
837.993	23649
838.131	23589
838.269	23497
838.406	23482
838.544	23421
838.681	23303
838.819	23212
838.956	23239
839.094	23178
839.231	23128
839.369	23334
839.506	23463
839.643	23368
839.781	23242
839.918	23086
840.055	23159
840.193	23140
840.33	23033
840.467	23075
840.604	23079
840.742	23269
840.879	22854
841.016	22885
841.153	22839
841.29	23090
841.427	22991
841.564	23025
841.701	23098
841.838	23029
841.975	22972
842.112	22843
842.249	22873
842.385	22679
842.522	22965
842.659	22908
842.796	22778
842.933	22839
843.069	22679
843.206	22645
843.343	22816
843.479	22717
843.616	22755
843.752	22550
843.889	22493
844.025	22664
844.162	22516
844.298	22542
844.435	22611
844.571	22474
844.708	22618
844.844	22702
844.98	22694
845.117	22615
845.253	22542
845.389	22481
845.525	22432
845.661	22409
845.798	22367
845.934	22348
846.07	22234
846.206	22318
846.342	22363
846.478	22230
846.614	22109
846.75	22006
846.886	21979
847.022	22185
847.158	22150
847.294	22120
847.429	22044
847.565	21983
847.701	22215
847.837	21743
847.972	21819
848.108	21987
848.244	21876
848.379	21690
848.515	21660
848.65	21614
848.786	21606
848.921	21568
849.057	21667
849.192	21762
849.328	21679
849.463	21587
849.598	21599
849.734	21485
849.869	21492
850.004	21340
850.14	21359
850.275	21481
850.41	21256
850.545	21386
850.68	21272
850.815	21386
850.95	21424
851.085	21583
851.22	21568
851.355	21363
851.49	21325
851.625	21268
851.76	21412
851.895	21275
852.03	21165
852.165	21340
852.299	21447
852.434	21443
852.569	21336
852.703	21382
852.838	21424
852.973	21545
853.107	21443
853.242	21363
853.376	21192
853.511	21104
853.645	21264
853.78	21317
853.914	21237
854.048	21123
854.183	21294
854.317	21264
854.451	21332
854.585	21173
854.72	21268
854.854	21249
854.988	21157
855.122	21294
855.256	21093
855.39	21116
855.524	21203
855.658	21252
855.792	21241
855.926	21340
856.06	21199
856.194	21218
856.327	21150
856.461	21077
856.595	21116
856.729	21150
856.862	21382
856.996	21180
857.13	21306
857.263	21462
857.397	21237
857.53	21249
857.664	21237
857.797	21249
857.931	21279
858.064	21268
858.197	21321
858.331	21313
858.464	21283
858.597	21150
858.731	21123
858.864	21112
858.997	21192
859.13	21260
859.263	21180
859.396	21336
859.529	21157
859.662	21070
859.795	21157
859.928	21150
860.061	21401
860.194	21424
860.327	21173
860.46	21226
860.592	21332
860.725	21294
860.858	21412
860.99	21245
861.123	21043
861.256	21131
861.388	21241
861.521	21907
861.653	21085
861.786	21028
861.918	20960
862.05	21154
862.183	21093
862.315	21176
862.447	21203
862.58	20998
862.712	20933
862.844	20864
862.976	20960
863.108	21039
863.24	21397
863.372	20788
863.504	20811
863.636	20880
863.768	20918
863.9	20861
864.032	20769
864.164	20857
864.296	20990
864.428	21024
864.559	20975
864.691	21039
864.823	20960
864.954	20899
865.086	20963
865.217	20731
865.349	20773
865.48	20727
865.612	20773
865.743	20967
865.875	20845
866.006	20667
866.137	20899
866.269	20788
866.4	20823
866.531	20701
866.662	20746
866.793	20773
866.924	20769
867.055	20811
867.186	20773
867.317	20705
867.448	20727
867.579	20625
867.71	20621
867.841	20648
867.972	20880
868.103	20705
868.233	20777
868.364	20750
868.495	20811
868.625	20956
868.756	21112
868.886	20960
869.017	20948
869.147	21089
869.278	21093
869.408	21058
869.539	20895
869.669	21058
869.799	20979
869.929	21131
870.06	21108
870.19	21226
870.32	21329
870.45	21416
870.58	21306
870.71	21591
870.84	21511
870.97	21412
871.1	21374
871.23	21504
871.36	21599
871.489	21382
871.619	21564
871.749	21698
871.879	21587
872.008	21690
872.138	21610
872.267	21538
872.397	21458
872.526	21397
872.656	21424
872.785	21466
872.915	21641
873.044	21701
873.173	21534
873.303	21614
873.432	21797
873.561	21705
873.69	21625
873.819	21576
873.948	21625
874.077	21614
874.206	21526
874.335	21663
874.464	21549
874.593	21804
874.722	21778
874.851	21873
874.979	21861
875.108	21816
875.237	21838
875.365	21705
875.494	21812
875.623	21918
875.751	21804
875.88	21816
876.008	21991
876.136	21994
876.265	22230
876.393	22291
876.521	22246
876.65	22303
876.778	22295
876.906	22074
877.034	22101
877.162	22192
877.29	22135
877.418	22185
877.546	22169
877.674	22185
877.802	22150
877.93	22234
878.058	22101
878.185	21968
878.313	22188
878.441	22257
878.568	21934
878.696	22010
878.824	22101
878.951	22284
879.079	22329
879.206	22379
879.333	22219
879.461	22226
879.588	22265
879.715	22344
879.842	22443
879.97	22211
880.097	22017
880.224	21953
880.351	22048
880.478	21880
880.605	21922
880.732	21934
880.859	22101
880.986	22040
881.112	22059
881.239	21823
881.366	21774
881.493	21629
881.619	21568
881.746	21648
881.872	21595
881.999	21591
882.125	21473
882.252	21633
882.378	21564
882.505	21778
882.631	21397
882.757	21241
882.883	21329
883.01	21195
883.136	21256
883.262	21100
883.388	21184
883.514	21256
883.64	21256
883.766	21157
883.892	21043
884.018	21058
884.143	21241
884.269	21230
884.395	21058
884.52	20849
884.646	20971
884.772	20792
884.897	20838
885.023	21001
885.148	21005
885.274	21104
885.399	21051
885.524	20857
885.65	20895
885.775	20857
885.9	20887
886.025	20971
886.15	20902
886.275	20872
886.4	20804
886.525	20868
886.65	20937
886.775	20807
886.9	20944
887.025	21077
887.149	20807
887.274	20667
887.399	20655
887.523	20712
887.648	20617
887.773	20602
887.897	20716
888.021	20785
888.146	20594
888.27	20834
888.395	20724
888.519	20670
888.643	20686
888.767	20670
888.891	20590
889.015	20537
889.139	20533
889.263	20442
889.387	20606
889.511	20571
889.635	20613
889.759	20488
889.883	20381
890.006	20457
890.13	20583
890.254	20351
890.377	20282
890.501	20259
890.624	20092
890.748	20256
890.871	20130
890.995	19925
891.118	19974
891.241	20084
891.364	20031
891.488	20176
891.611	20103
891.734	20054
891.857	20145
891.98	20092
892.103	20138
892.226	20043
892.349	20111
892.471	19902
892.594	19913
892.717	20115
892.839	19932
892.962	20005
893.085	20168
893.207	19940
893.33	19959
893.452	20008
893.575	19986
893.697	19959
893.819	20168
893.941	20259
894.064	20164
894.186	19902
894.308	19860
894.43	20168
894.552	20187
894.674	20130
894.796	19936
894.918	19989
895.04	19849
895.161	20058
895.283	19993
895.405	19989
895.526	19970
895.648	20062
895.769	19993
895.891	19974
896.012	20176
896.134	20039
896.255	19894
896.376	20081
896.498	19951
896.619	20024
896.74	19955
896.861	20069
896.982	20385
897.103	20457
897.224	20237
897.345	20263
897.466	20134
897.587	20218
897.708	20370
897.828	20237
897.949	20130
898.07	19944
898.19	20180
898.311	20320
898.431	20206
898.552	20278
898.672	20263
898.792	20252
898.913	20313
899.033	20172
899.153	19887
899.273	20005
899.393	20031
899.513	20020
899.633	20084
899.753	20005
899.873	19909
899.993	20062
900.113	19917
900.232	19932
900.352	19944
900.472	19734
900.591	19837
900.711	19708
900.83	19750
900.95	19932
901.069	19841
901.189	19616
901.308	19411
901.427	19381
901.546	19308
901.665	19358
901.784	19232
901.904	19232
902.023	19198
902.141	18890
902.26	18947
902.379	19004
902.498	18897
902.617	18768
902.735	18916
902.854	18795
902.973	18791
903.091	18486
903.21	18460
903.328	18563
903.446	18502
903.565	18384
903.683	18372
903.801	18213
903.919	18235
904.038	18407
904.156	18068
904.274	18167
904.392	18019
904.51	17969
904.627	18121
904.745	18197
904.863	18178
904.981	17908
905.098	17748
905.216	17840
905.334	17840
905.451	17779
905.569	17707
905.686	17821
905.803	17741
905.921	17608
906.038	17718
906.155	17535
906.272	17372
906.389	17524
906.506	17353
906.623	17337
906.74	17330
906.857	17227
906.974	17337
907.091	17402
907.208	17429
907.324	17364
907.441	17242
907.557	17048
907.674	17094
907.79	17022
907.907	16999
908.023	17117
908.139	16968
908.256	16991
908.372	16862
908.488	16881
908.604	16866
908.72	16713
908.836	16911
908.952	16668
909.068	16824
909.184	16889
909.3	16717
909.415	16748
909.531	16733
909.647	16561
909.762	16436
909.878	16440
909.993	16478
910.108	16405
910.224	16379
910.339	16402
910.454	16299
910.57	16344
910.685	16242
910.8	16455
910.915	16440
911.03	16291
911.145	16105
911.259	15949
911.374	16017
911.489	15945
911.604	15960
911.718	15793
911.833	15762
911.947	15679
912.062	15584
912.176	15808
912.291	15656
912.405	15747
912.519	15937
912.633	15998
912.748	15926
912.862	15774
912.976	15660
913.09	15549
913.204	15545
913.318	15523
913.431	15713
913.545	15770
913.659	15667
913.772	15526
913.886	15439
914	15351
914.113	15500
914.226	15519
914.34	15492
914.453	15310
914.566	15477
914.68	15207
914.793	15199
914.906	15154
915.019	15081
915.132	15028
915.245	15005
915.358	15017
915.47	15100
915.583	14933
915.696	15039
915.809	15146
915.921	15218
916.034	14933
916.146	14941
916.259	14982
916.371	14990
916.483	14842
916.595	14864
916.708	14914
916.82	14830
916.932	14842
917.044	14868
917.156	14697
917.268	14625
917.38	14697
917.491	14590
917.603	14705
917.715	14785
917.826	14788
917.938	14590
918.049	14480
918.161	14621
918.272	14864
918.384	14762
918.495	14610
918.606	14469
918.717	14305
918.828	14541
918.939	14526
919.05	14336
919.161	14362
919.272	14084
919.383	14328
919.494	14461
919.604	14613
919.715	14419
919.826	14332
919.936	14415
920.047	14427
920.157	14495
920.267	14564
920.378	14400
920.488	14313
920.598	14507
920.708	14765
920.818	14590
920.928	14461
921.038	14705
921.148	14606
921.258	14339
921.368	14259
921.477	14172
921.587	14111
921.697	14005
921.806	14187
921.916	13993
922.025	13833
922.134	13860
922.244	13685
922.353	13753
922.462	13727
922.571	13571
922.68	13373
922.789	13422
922.898	13441
923.007	13297
923.116	13449
923.224	13430
923.333	13354
923.442	13270
923.55	13259
923.659	13274
923.767	13369
923.876	13232
923.984	13339
924.092	13126
924.201	13316
924.309	13156
924.417	13099
924.525	13042
924.633	13122
924.741	13909
924.849	12958
924.956	13004
925.064	12848
925.172	12741
925.279	12814
925.387	12852
925.494	12856
925.602	12871
925.709	12939
925.816	12795
925.924	12821
926.031	12875
926.138	12829
926.245	12878
926.352	12696
926.459	12897
926.566	12829
926.673	12760
926.779	12593
926.886	12627
926.993	12517
927.099	12441
927.206	12407
927.312	12323
927.419	12483
927.525	12353
927.631	12410
927.737	12304
927.843	12292
927.95	12205
928.056	12216
928.162	12254
928.267	12319
928.373	12939
928.479	12323
928.585	12068
928.69	12148
928.796	12220
928.901	12079
929.007	11984
929.112	12129
929.218	12076
929.323	11980
929.428	11931
929.533	12102
929.638	11988
929.743	11866
929.848	12011
929.953	11923
930.058	11874
930.163	11646
930.267	11729
930.372	11786
930.477	11630
930.581	11836
930.685	11672
930.79	11585
930.894	11528
930.998	11592
931.103	11676
931.207	11395
931.311	11242
931.415	11075
931.519	10919
931.623	10911
