Data from test_V78500241_1915.txt Node
Date: Fri Mar 25 15:23:11 CST 2022
User: usil
Spectrometer: V785-0024
Trigger mode: 0
Integration Time (sec): 4.000000E-1
Scans to average: 1
Nonlinearity correction enabled: false
Boxcar width: 0
Storing dark spectrum: false
XAxis mode: Wavelengths
Number of Pixels in Spectrum: 1024
>>>>>Begin Spectral Data<<<<<
801.071	27557
801.214	27424
801.356	27230
801.499	27249
801.641	27157
801.783	27039
801.926	27150
802.068	27146
802.211	27001
802.353	26933
802.496	26781
802.638	26762
802.78	26693
802.923	26800
803.065	26674
803.208	26796
803.35	26712
803.492	26857
803.635	26883
803.777	26944
803.919	27062
804.061	27180
804.204	27009
804.346	26830
804.488	26834
804.63	26906
804.773	26792
804.915	26982
805.057	27203
805.199	26857
805.341	27028
805.483	27203
805.626	27093
805.768	26887
805.91	27024
806.052	27074
806.194	27138
806.336	27176
806.478	27043
806.62	27093
806.762	27214
806.904	27348
807.046	27576
807.188	27427
807.33	27450
807.472	27622
807.614	27576
807.756	27420
807.898	27279
808.04	27211
808.182	27348
808.324	27302
808.465	27252
808.607	27663
808.749	27694
808.891	27838
809.033	27732
809.174	27838
809.316	27667
809.458	27675
809.6	27747
809.741	27705
809.883	27850
810.025	27850
810.166	27930
810.308	27907
810.45	27918
810.591	27869
810.733	27679
810.875	27618
811.016	27564
811.158	27622
811.299	27690
811.441	27846
811.582	27751
811.724	27580
811.865	27656
812.007	27564
812.148	27545
812.29	27663
812.431	27812
812.573	27930
812.714	27934
812.855	28280
812.997	28234
813.138	28409
813.279	28287
813.421	28204
813.562	28055
813.703	27998
813.845	28086
813.986	27713
814.127	27443
814.268	27355
814.41	27507
814.551	27325
814.692	27412
814.833	27332
814.974	27367
815.115	27199
815.256	27367
815.397	27176
815.539	27230
815.68	27119
815.821	27024
815.962	27070
816.103	27051
816.244	26948
816.385	26899
816.526	26800
816.666	26788
816.807	26590
816.948	26655
817.089	26632
817.23	26686
817.371	26549
817.512	26651
817.653	26758
817.793	26594
817.934	26648
818.075	26697
818.216	26705
818.356	26492
818.497	26473
818.638	26336
818.778	26317
818.919	26473
819.06	26480
819.2	26560
819.341	26575
819.481	26648
819.622	26815
819.762	27013
819.903	26788
820.043	26921
820.184	26686
820.324	26708
820.465	26800
820.605	26819
820.746	26602
820.886	26587
821.026	26674
821.167	26655
821.307	26785
821.447	26716
821.588	26541
821.728	26412
821.868	26199
822.008	26073
822.149	26088
822.289	26024
822.429	25925
822.569	25860
822.709	25822
822.849	25639
822.99	25712
823.13	25639
823.27	25495
823.41	25495
823.55	25419
823.69	25483
823.83	25460
823.97	25240
824.11	25255
824.25	25304
824.389	25225
824.529	25502
824.669	25251
824.809	25483
824.949	25339
825.089	25343
825.228	25110
825.368	25099
825.508	25012
825.648	25137
825.787	25168
825.927	25259
826.067	25168
826.206	25171
826.346	25206
826.485	25209
826.625	25103
826.765	25183
826.904	25145
827.044	25000
827.183	24886
827.323	24825
827.462	24932
827.601	24844
827.741	24753
827.88	24783
828.02	24745
828.159	24722
828.298	24787
828.437	24867
828.577	24719
828.716	24916
828.855	24783
828.994	24589
829.134	24604
829.273	24597
829.412	24334
829.551	24483
829.69	24665
829.829	24513
829.968	24593
830.107	24502
830.246	24551
830.385	24380
830.524	24410
830.663	24327
830.802	24243
830.941	24205
831.08	24064
831.219	24216
831.357	24171
831.496	24285
831.635	24144
831.774	24117
831.913	24152
832.051	23999
832.19	23901
832.329	23988
832.467	23882
832.606	23843
832.744	23809
832.883	23813
833.022	23889
833.16	23775
833.299	23783
833.437	23821
833.576	23908
833.714	23939
833.852	24064
833.991	24011
834.129	24068
834.267	23946
834.406	23931
834.544	23916
834.682	23901
834.821	23813
834.959	24060
835.097	23832
835.235	23836
835.373	23958
835.511	23874
835.65	23741
835.788	23745
835.926	23600
836.064	23596
836.202	23596
836.34	23726
836.478	23790
836.615	23764
836.753	23714
836.891	23707
837.029	23756
837.167	23707
837.305	23627
837.443	23676
837.58	23554
837.718	23703
837.856	23634
837.993	23436
838.131	23566
838.269	23467
838.406	23535
838.544	23444
838.681	23315
838.819	23296
838.956	23056
839.094	23079
839.231	23109
839.369	23193
839.506	23398
839.643	23299
839.781	23128
839.918	22938
840.055	23048
840.193	23067
840.33	23003
840.467	22938
840.604	22965
840.742	23178
840.879	22946
841.016	22877
841.153	22919
841.29	22991
841.427	22957
841.564	23029
841.701	22999
841.838	22961
841.975	22801
842.112	22885
842.249	22733
842.385	22797
842.522	22889
842.659	22706
842.796	22687
842.933	22729
843.069	22706
843.206	22687
843.343	22850
843.479	22774
843.616	22763
843.752	22481
843.889	22535
844.025	22660
844.162	22500
844.298	22569
844.435	22489
844.571	22478
844.708	22504
844.844	22664
844.98	22710
845.117	22516
845.253	22394
845.389	22367
845.525	22436
845.661	22432
845.798	22215
845.934	22268
846.07	22257
846.206	22367
846.342	22432
846.478	22337
846.614	22101
846.75	22097
846.886	21911
847.022	22013
847.158	22036
847.294	21937
847.429	22029
847.565	21968
847.701	22207
847.837	21770
847.972	21701
848.108	21778
848.244	21785
848.379	21614
848.515	21568
848.65	21511
848.786	21648
848.921	21622
849.057	21755
849.192	21568
849.328	21538
849.463	21705
849.598	21530
849.734	21511
849.869	21397
850.004	21428
850.14	21424
850.275	21370
850.41	21199
850.545	21260
850.68	21264
850.815	21466
850.95	21329
851.085	21439
851.22	21431
851.355	21340
851.49	21275
851.625	21298
851.76	21386
851.895	21207
852.03	21359
852.165	21386
852.299	21374
852.434	21374
852.569	21416
852.703	21397
852.838	21447
852.973	21675
853.107	21496
853.242	21291
853.376	21241
853.511	21070
853.645	21104
853.78	21336
853.914	21173
854.048	21112
854.183	21077
854.317	21279
854.451	21367
854.585	21230
854.72	21157
854.854	21355
854.988	21100
855.122	21157
855.256	21051
855.39	21146
855.524	21203
855.658	21157
855.792	21173
855.926	21169
856.06	21245
856.194	21283
856.327	21218
856.461	21093
856.595	21055
856.729	21180
856.862	21260
856.996	21218
857.13	21199
857.263	21180
857.397	21283
857.53	21127
857.664	21249
857.797	21203
857.931	21279
858.064	21184
858.197	21302
858.331	21081
858.464	21093
858.597	21047
858.731	21093
858.864	21077
858.997	21176
859.13	21165
859.263	21116
859.396	21291
859.529	21199
859.662	21176
859.795	21146
859.928	21138
860.061	21336
860.194	21336
860.327	21214
860.46	21176
860.592	21218
860.725	21401
860.858	21336
860.99	21237
861.123	21051
861.256	21085
861.388	21226
861.521	21854
861.653	21081
861.786	20933
861.918	20895
862.05	21005
862.183	21157
862.315	21176
862.447	21089
862.58	21039
862.712	20971
862.844	20944
862.976	21001
863.108	20891
863.24	21169
863.372	20773
863.504	20883
863.636	20788
863.768	20918
863.9	20868
864.032	20834
864.164	20876
864.296	20876
864.428	21024
864.559	20857
864.691	20986
864.823	20929
864.954	20906
865.086	20815
865.217	20754
865.349	20773
865.48	20807
865.612	20823
865.743	20971
865.875	20773
866.006	20838
866.137	20857
866.269	20826
866.4	20819
866.531	20773
866.662	20773
866.793	20663
866.924	20716
867.055	20785
867.186	20716
867.317	20697
867.448	20667
867.579	20583
867.71	20769
867.841	20648
867.972	20644
868.103	20724
868.233	20659
868.364	20701
868.495	20769
868.625	20891
868.756	21051
868.886	20902
869.017	20956
869.147	20925
869.278	21077
869.408	20986
869.539	20944
869.669	20914
869.799	21058
869.929	21100
870.06	21123
870.19	21199
870.32	21260
870.45	21195
870.58	21279
870.71	21530
870.84	21401
870.97	21268
871.1	21344
871.23	21545
871.36	21530
871.489	21450
871.619	21435
871.749	21507
871.879	21500
872.008	21603
872.138	21485
872.267	21568
872.397	21359
872.526	21469
872.656	21374
872.785	21340
872.915	21614
873.044	21644
873.173	21606
873.303	21603
873.432	21633
873.561	21606
873.69	21682
873.819	21504
873.948	21599
874.077	21523
874.206	21561
874.335	21534
874.464	21785
874.593	21892
874.722	21838
874.851	21880
874.979	21899
875.108	21812
875.237	21842
875.365	21797
875.494	21751
875.623	21937
875.751	21884
875.88	21903
876.008	21926
876.136	21979
876.265	22185
876.393	22356
876.521	22299
876.65	22204
876.778	22211
876.906	22090
877.034	22211
877.162	22204
877.29	21888
877.418	22215
877.546	22051
877.674	22109
877.802	22139
877.93	22101
878.058	22048
878.185	22070
878.313	22105
878.441	22272
878.568	21915
878.696	22112
878.824	22226
878.951	22272
879.079	22268
879.206	22474
879.333	22333
879.461	22226
879.588	22299
879.715	22375
879.842	22337
879.97	22211
880.097	22017
880.224	21960
880.351	22017
880.478	22082
880.605	22002
880.732	21876
880.859	22234
880.986	21899
881.112	21850
881.239	21861
881.366	21671
881.493	21743
881.619	21496
881.746	21698
881.872	21473
881.999	21462
882.125	21386
882.252	21496
882.378	21538
882.505	21660
882.631	21515
882.757	21165
882.883	21355
883.01	21351
883.136	21222
883.262	21047
883.388	21058
883.514	21283
883.64	21237
883.766	21127
883.892	20956
884.018	21051
884.143	21214
884.269	21298
884.395	20982
884.52	20941
884.646	20880
884.772	20788
884.897	20804
885.023	20823
885.148	21009
885.274	20982
885.399	20941
885.524	20773
885.65	20975
885.775	20876
885.9	20921
886.025	21051
886.15	20937
886.275	20800
886.4	20743
886.525	20800
886.65	20834
886.775	20845
886.9	21009
887.025	21043
887.149	20883
887.274	20686
887.399	20648
887.523	20727
887.648	20644
887.773	20545
887.897	20724
888.021	20678
888.146	20632
888.27	20777
888.395	20830
888.519	20655
888.643	20632
888.767	20648
888.891	20625
889.015	20324
889.139	20526
889.263	20503
889.387	20571
889.511	20777
889.635	20583
889.759	20503
889.883	20442
890.006	20488
890.13	20564
890.254	20370
890.377	20404
890.501	20298
890.624	20225
890.748	20256
890.871	20199
890.995	20027
891.118	19906
891.241	20126
891.364	20039
891.488	20103
891.611	19993
891.734	20126
891.857	20115
891.98	20001
892.103	20024
892.226	20043
892.349	19974
892.471	19814
892.594	19860
892.717	19894
892.839	19959
892.962	19967
893.085	20077
893.207	19871
893.33	19731
893.452	19788
893.575	19909
893.697	19959
893.819	20111
893.941	20176
894.064	20096
894.186	19852
894.308	19818
894.43	20050
894.552	20069
894.674	20107
894.796	19833
894.918	19944
895.04	19875
895.161	19978
895.283	19921
895.405	19845
895.526	19963
895.648	19860
895.769	20024
895.891	19936
896.012	20031
896.134	19993
896.255	19871
896.376	19894
896.498	20008
896.619	19902
896.74	19959
896.861	20024
896.982	20305
897.103	20271
897.224	20294
897.345	20176
897.466	20122
897.587	20256
897.708	20138
897.828	20168
897.949	20046
898.07	19944
898.19	20050
898.311	20195
898.431	20134
898.552	20233
898.672	20233
898.792	20237
898.913	20172
899.033	19963
899.153	19967
899.273	19894
899.393	20012
899.513	20035
899.633	19955
899.753	19845
899.873	19871
899.993	19970
900.113	19677
900.232	19894
900.352	19791
900.472	19746
900.591	19807
900.711	19830
900.83	19628
900.95	19655
901.069	19814
901.189	19533
901.308	19365
901.427	19179
901.546	19289
901.665	19266
901.784	19316
901.904	19160
902.023	19015
902.141	18886
902.26	18932
902.379	18802
902.498	18833
902.617	18741
902.735	18802
902.854	18768
902.973	18760
903.091	18357
903.21	18460
903.328	18528
903.446	18296
903.565	18197
903.683	18266
903.801	18076
903.919	18357
904.038	18205
904.156	18038
904.274	18091
904.392	18007
904.51	18015
904.627	18041
904.745	17954
904.863	18076
904.981	17916
905.098	17733
905.216	17729
905.334	17817
905.451	17729
905.569	17748
905.686	17680
905.803	17729
905.921	17440
906.038	17634
906.155	17524
906.272	17520
906.389	17410
906.506	17265
906.623	17307
906.74	17189
906.857	17208
906.974	17174
907.091	17277
907.208	17387
907.324	17174
907.441	17197
907.557	16946
907.674	17010
907.79	16908
907.907	16949
908.023	16987
908.139	16934
908.256	16984
908.372	16866
908.488	16824
908.604	16691
908.72	16729
908.836	16831
908.952	16653
909.068	16618
909.184	16763
909.3	16603
909.415	16717
909.531	16573
909.647	16394
909.762	16382
909.878	16371
909.993	16394
910.108	16466
910.224	16299
910.339	16386
910.454	16287
910.57	16253
910.685	16173
910.8	16318
910.915	16375
911.03	16162
911.145	15975
911.259	15915
911.374	15926
911.489	15937
911.604	15869
911.718	15701
911.833	15766
911.947	15641
912.062	15526
912.176	15656
912.291	15663
912.405	15709
912.519	15823
912.633	15857
912.748	15762
912.862	15648
912.976	15584
913.09	15412
913.204	15549
913.318	15603
913.431	15618
913.545	15553
913.659	15622
913.772	15523
913.886	15405
914	15329
914.113	15405
914.226	15477
914.34	15447
914.453	15222
914.566	15408
914.68	15310
914.793	15135
914.906	15036
915.019	15093
915.132	14944
915.245	14975
915.358	14902
915.47	15001
915.583	14960
915.696	15070
915.809	14982
915.921	15116
916.034	14960
916.146	14918
916.259	14937
916.371	14902
916.483	14906
916.595	14804
916.708	14811
916.82	14777
916.932	14765
917.044	14716
917.156	14689
917.268	14693
917.38	14731
917.491	14651
917.603	14625
917.715	14796
917.826	14712
917.938	14461
918.049	14427
918.161	14636
918.272	14659
918.384	14610
918.495	14583
918.606	14412
918.717	14469
918.828	14389
918.939	14476
919.05	14355
919.161	14374
919.272	14229
919.383	14267
919.494	14431
919.604	14651
919.715	14400
919.826	14206
919.936	14347
920.047	14415
920.157	14454
920.267	14602
920.378	14492
920.488	14324
920.598	14579
920.708	14587
920.818	14514
920.928	14560
921.038	14689
921.148	14659
921.258	14294
921.368	14259
921.477	14119
921.587	14046
921.697	14081
921.806	14088
921.916	13997
922.025	13887
922.134	13803
922.244	13689
922.353	13902
922.462	13655
922.571	13559
922.68	13438
922.789	13468
922.898	13384
923.007	13362
923.116	13441
923.224	13400
923.333	13331
923.442	13282
923.55	13312
923.659	13263
923.767	13324
923.876	13251
923.984	13282
924.092	13145
924.201	13152
924.309	13228
924.417	13187
924.525	13023
924.633	13099
924.741	13986
924.849	12913
924.956	13050
925.064	12905
925.172	12741
925.279	12821
925.387	12878
925.494	12890
925.602	12985
925.709	12894
925.816	12768
925.924	12829
926.031	12894
926.138	12776
926.245	12856
926.352	12707
926.459	12768
926.566	12913
926.673	12772
926.779	12642
926.886	12521
926.993	12403
927.099	12441
927.206	12311
927.312	12346
927.419	12437
927.525	12403
927.631	12426
927.737	12296
927.843	12232
927.95	12163
928.056	12235
928.162	12178
928.267	12353
928.373	12741
928.479	12235
928.585	12019
928.69	12209
928.796	12182
928.901	12125
929.007	11935
929.112	12148
929.218	12034
929.323	11927
929.428	11958
929.533	11988
929.638	11961
929.743	11916
929.848	11965
929.953	11847
930.058	11794
930.163	11615
930.267	11695
930.372	11813
930.477	11619
930.581	11828
930.685	11745
930.79	11490
930.894	11566
930.998	11520
931.103	11688
931.207	11334
931.311	11296
931.415	11193
931.519	10953
931.623	10972
