Data from test_V78500241_764.txt Node
Date: Fri Mar 25 15:15:10 CST 2022
User: usil
Spectrometer: V785-0024
Trigger mode: 0
Integration Time (sec): 4.000000E-1
Scans to average: 1
Nonlinearity correction enabled: false
Boxcar width: 0
Storing dark spectrum: false
XAxis mode: Wavelengths
Number of Pixels in Spectrum: 1024
>>>>>Begin Spectral Data<<<<<
801.071	28029
801.214	27800
801.356	27625
801.499	27720
801.641	27534
801.783	27435
801.926	27504
802.068	27557
802.211	27332
802.353	27435
802.496	27176
802.638	27363
802.78	27123
802.923	27169
803.065	27131
803.208	27096
803.35	27058
803.492	27408
803.635	27427
803.777	27252
803.919	27359
804.061	27568
804.204	27291
804.346	27302
804.488	27188
804.63	27340
804.773	27317
804.915	27336
805.057	27507
805.199	27291
805.341	27469
805.483	27473
805.626	27511
805.768	27279
805.91	27424
806.052	27523
806.194	27302
806.336	27637
806.478	27485
806.62	27603
806.762	27576
806.904	27816
807.046	28051
807.188	27945
807.33	27892
807.472	27911
807.614	27831
807.756	27861
807.898	27846
808.04	27675
808.182	27759
808.324	27701
808.465	27736
808.607	28029
808.749	28010
808.891	28196
809.033	28261
809.174	28128
809.316	28082
809.458	28181
809.6	28249
809.741	28211
809.883	28341
810.025	28481
810.166	28371
810.308	28394
810.45	28455
810.591	28398
810.733	28139
810.875	28078
811.016	28002
811.158	27972
811.299	28356
811.441	28238
811.582	28230
811.724	28090
811.865	28116
812.007	28166
812.148	28150
812.29	28169
812.431	28234
812.573	28535
812.714	28535
812.855	28725
812.997	28786
813.138	28888
813.279	28835
813.421	28850
813.562	28736
813.703	28519
813.845	28329
813.986	28181
814.127	27930
814.268	27857
814.41	27914
814.551	27869
814.692	27846
814.833	27922
814.974	27747
815.115	27911
815.256	27739
815.397	27728
815.539	27671
815.68	27603
815.821	27572
815.962	27709
816.103	27511
816.244	27439
816.385	27481
816.526	27389
816.666	27207
816.807	27230
816.948	27283
817.089	27370
817.23	27222
817.371	27180
817.512	27100
817.653	27123
817.793	27074
817.934	27093
818.075	27233
818.216	27169
818.356	27104
818.497	27036
818.638	26944
818.778	26933
818.919	26948
819.06	27020
819.2	27081
819.341	27203
819.481	27138
819.622	27237
819.762	27500
819.903	27412
820.043	27405
820.184	27218
820.324	27336
820.465	27260
820.605	27313
820.746	27222
820.886	27138
821.026	27294
821.167	27199
821.307	27260
821.447	27218
821.588	27104
821.728	26899
821.868	26861
822.008	26727
822.149	26609
822.289	26533
822.429	26225
822.569	26278
822.709	26248
822.849	26145
822.99	26107
823.13	26081
823.27	26046
823.41	25894
823.55	25879
823.69	25940
823.83	25974
823.97	25883
824.11	25784
824.25	25677
824.389	25708
824.529	25765
824.669	25734
824.809	25966
824.949	25883
825.089	25909
825.228	25841
825.368	25620
825.508	25784
825.648	25643
825.787	25605
825.927	25635
826.067	25521
826.206	25632
826.346	25681
826.485	25556
826.625	25499
826.765	25658
826.904	25590
827.044	25411
827.183	25278
827.323	25324
827.462	25362
827.601	25346
827.741	25373
827.88	25358
828.02	25350
828.159	25297
828.298	25263
828.437	25396
828.577	25263
828.716	25327
828.855	25327
828.994	25118
829.134	25118
829.273	25194
829.412	24992
829.551	25072
829.69	25053
829.829	24996
829.968	25198
830.107	25080
830.246	24920
830.385	24992
830.524	25072
830.663	24810
830.802	24654
830.941	24566
831.08	24681
831.219	24772
831.357	24654
831.496	24878
831.635	24555
831.774	24608
831.913	24483
832.051	24464
832.19	24372
832.329	24418
832.467	24353
832.606	24380
832.744	24270
832.883	24384
833.022	24304
833.16	24247
833.299	24445
833.437	24273
833.576	24475
833.714	24323
833.852	24490
833.991	24540
834.129	24509
834.267	24513
834.406	24365
834.544	24528
834.682	24372
834.821	24505
834.959	24483
835.097	24376
835.235	24304
835.373	24308
835.511	24262
835.65	24277
835.788	24174
835.926	24194
836.064	24083
836.202	24076
836.34	24251
836.478	24251
836.615	24140
836.753	24201
836.891	24391
837.029	24315
837.167	24247
837.305	24053
837.443	24197
837.58	24041
837.718	24148
837.856	24083
837.993	24060
838.131	23920
838.269	23935
838.406	24003
838.544	23840
838.681	23585
838.819	23707
838.956	23520
839.094	23585
839.231	23615
839.369	23687
839.506	23946
839.643	23817
839.781	23471
839.918	23467
840.055	23467
840.193	23516
840.33	23459
840.467	23395
840.604	23474
840.742	23767
840.879	23288
841.016	23296
841.153	23277
841.29	23554
841.427	23421
841.564	23516
841.701	23478
841.838	23387
841.975	23414
842.112	23220
842.249	23216
842.385	23200
842.522	23387
842.659	23280
842.796	23181
842.933	23200
843.069	23010
843.206	23208
843.343	23166
843.479	23143
843.616	23094
843.752	23056
843.889	22980
844.025	23132
844.162	22915
844.298	22949
844.435	22984
844.571	22908
844.708	23010
844.844	23204
844.98	23067
845.117	23094
845.253	23052
845.389	22831
845.525	22820
845.661	22786
845.798	22710
845.934	22812
846.07	22778
846.206	22664
846.342	22839
846.478	22729
846.614	22409
846.75	22402
846.886	22363
847.022	22565
847.158	22424
847.294	22516
847.429	22424
847.565	22371
847.701	22713
847.837	22093
847.972	22128
848.108	22261
848.244	22265
848.379	22051
848.515	22105
848.65	22063
848.786	22017
848.921	22070
849.057	22048
849.192	22093
849.328	22093
849.463	22013
849.598	21979
849.734	21983
849.869	21857
850.004	21876
850.14	21835
850.275	21759
850.41	21644
850.545	21652
850.68	21648
850.815	21800
850.95	21701
851.085	21956
851.22	21941
851.355	21759
851.49	21854
851.625	21766
851.76	21736
851.895	21709
852.03	21690
852.165	21861
852.299	21827
852.434	21816
852.569	21819
852.703	21892
852.838	21724
852.973	21937
853.107	21926
853.242	21743
853.376	21606
853.511	21473
853.645	21439
853.78	21759
853.914	21606
854.048	21519
854.183	21542
854.317	21675
854.451	21812
854.585	21568
854.72	21507
854.854	21736
854.988	21595
855.122	21633
855.256	21374
855.39	21595
855.524	21591
855.658	21576
855.792	21583
855.926	21564
856.06	21633
856.194	21701
856.327	21488
856.461	21515
856.595	21507
856.729	21614
856.862	21694
856.996	21496
857.13	21652
857.263	21663
857.397	21717
857.53	21633
857.664	21614
857.797	21572
857.931	21728
858.064	21610
858.197	21732
858.331	21637
858.464	21599
858.597	21519
858.731	21553
858.864	21500
858.997	21507
859.13	21648
859.263	21542
859.396	21542
859.529	21557
859.662	21587
859.795	21359
859.928	21511
860.061	21728
860.194	21698
860.327	21641
860.46	21610
860.592	21739
860.725	21747
860.858	21713
860.99	21705
861.123	21477
861.256	21412
861.388	21633
861.521	22215
861.653	21466
861.786	21469
861.918	21405
862.05	21515
862.183	21523
862.315	21523
862.447	21629
862.58	21435
862.712	21291
862.844	21283
862.976	21431
863.108	21321
863.24	21667
863.372	21230
863.504	21355
863.636	21291
863.768	21272
863.9	21355
864.032	21294
864.164	21256
864.296	21329
864.428	21325
864.559	21351
864.691	21363
864.823	21302
864.954	21237
865.086	21173
865.217	21230
865.349	21150
865.48	21157
865.612	21176
865.743	21256
865.875	21237
866.006	21127
866.137	21207
866.269	21157
866.4	21184
866.531	21180
866.662	21104
866.793	21116
866.924	21074
867.055	21055
867.186	21089
867.317	21131
867.448	20971
867.579	21165
867.71	21096
867.841	21058
867.972	21043
868.103	21009
868.233	21123
868.364	21135
868.495	21279
868.625	21313
868.756	21462
868.886	21260
869.017	21428
869.147	21408
869.278	21443
869.408	21351
869.539	21443
869.669	21450
869.799	21344
869.929	21435
870.06	21382
870.19	21667
870.32	21644
870.45	21610
870.58	21736
870.71	21949
870.84	21808
870.97	21838
871.1	21770
871.23	22029
871.36	21899
871.489	21915
871.619	21785
871.749	21934
871.879	22048
872.008	21892
872.138	21972
872.267	22021
872.397	21804
872.526	21793
872.656	21778
872.785	21679
872.915	21926
873.044	22006
873.173	22010
873.303	22002
873.432	21945
873.561	21865
873.69	21945
873.819	21869
873.948	22093
874.077	22017
874.206	21899
874.335	22013
874.464	22109
874.593	22154
874.722	22147
874.851	22215
874.979	22223
875.108	22272
875.237	22006
875.365	22036
875.494	22169
875.623	22306
875.751	22204
875.88	22181
876.008	22360
876.136	22417
876.265	22641
876.393	22626
876.521	22675
876.65	22660
876.778	22588
876.906	22394
877.034	22474
877.162	22504
877.29	22322
877.418	22466
877.546	22584
877.674	22466
877.802	22611
877.93	22470
878.058	22474
878.185	22306
878.313	22455
878.441	22573
878.568	22341
878.696	22413
878.824	22618
878.951	22611
879.079	22740
879.206	22706
879.333	22812
879.461	22557
879.588	22687
879.715	22660
879.842	22797
879.97	22622
880.097	22379
880.224	22322
880.351	22428
880.478	22223
880.605	22337
880.732	22303
880.859	22675
880.986	22348
881.112	22291
881.239	22177
881.366	22135
881.493	22074
881.619	21869
881.746	21983
881.872	21857
881.999	21880
882.125	21835
882.252	21998
882.378	21797
882.505	22074
882.631	21686
882.757	21679
882.883	21629
883.01	21618
883.136	21694
883.262	21595
883.388	21496
883.514	21652
883.64	21663
883.766	21587
883.892	21416
884.018	21393
884.143	21568
884.269	21663
884.395	21317
884.52	21249
884.646	21214
884.772	21230
884.897	21138
885.023	21291
885.148	21344
885.274	21454
885.399	21344
885.524	21294
885.65	21157
885.775	21180
885.9	21222
886.025	21351
886.15	21340
886.275	21169
886.4	21081
886.525	21199
886.65	21135
886.775	21165
886.9	21294
887.025	21412
887.149	21150
887.274	21055
887.399	20982
887.523	21005
887.648	21017
887.773	20792
887.897	21085
888.021	20990
888.146	20952
888.27	21192
888.395	21036
888.519	20956
888.643	21055
888.767	21161
888.891	20906
889.015	20777
889.139	20952
889.263	20769
889.387	21024
889.511	20864
889.635	20868
889.759	20701
889.883	20693
890.006	20769
890.13	20880
890.254	20758
890.377	20667
890.501	20701
890.624	20583
890.748	20617
890.871	20431
890.995	20412
891.118	20252
891.241	20454
891.364	20457
891.488	20552
891.611	20495
891.734	20415
891.857	20514
891.98	20511
892.103	20549
892.226	20385
892.349	20339
892.471	20286
892.594	20355
892.717	20324
892.839	20286
892.962	20298
893.085	20324
893.207	20267
893.33	20271
893.452	20282
893.575	20328
893.697	20271
893.819	20381
893.941	20549
894.064	20461
894.186	20168
894.308	20221
894.43	20362
894.552	20476
894.674	20408
894.796	20191
894.918	20263
895.04	20301
895.161	20347
895.283	20419
895.405	20248
895.526	20324
895.648	20275
895.769	20240
895.891	20396
896.012	20408
896.134	20442
896.255	20339
896.376	20381
896.498	20328
896.619	20282
896.74	20336
896.861	20362
896.982	20617
897.103	20743
897.224	20606
897.345	20511
897.466	20465
897.587	20579
897.708	20682
897.828	20571
897.949	20533
898.07	20408
898.19	20469
898.311	20632
898.431	20381
898.552	20454
898.672	20541
898.792	20571
898.913	20575
899.033	20408
899.153	20343
899.273	20267
899.393	20256
899.513	20290
899.633	20237
899.753	20271
899.873	20195
899.993	20328
900.113	20206
900.232	20191
900.352	20111
900.472	20142
900.591	20012
900.711	19959
900.83	19967
900.95	20157
901.069	20122
901.189	19936
901.308	19776
901.427	19563
901.546	19761
901.665	19723
901.784	19715
901.904	19548
902.023	19438
902.141	19236
902.26	19324
902.379	19179
902.498	19240
902.617	19046
902.735	19171
902.854	19050
902.973	19038
903.091	18882
903.21	18871
903.328	18810
903.446	18661
903.565	18700
903.683	18589
903.801	18559
903.919	18677
904.038	18445
904.156	18372
904.274	18498
904.392	18357
904.51	18300
904.627	18350
904.745	18384
904.863	18483
904.981	18167
905.098	18117
905.216	18079
905.334	18232
905.451	18110
905.569	18030
905.686	18072
905.803	18060
905.921	17859
906.038	17954
906.155	18045
906.272	17729
906.389	17767
906.506	17665
906.623	17684
906.74	17509
906.857	17467
906.974	17532
907.091	17653
907.208	17703
907.324	17630
907.441	17558
907.557	17220
907.674	17299
907.79	17284
907.907	17334
908.023	17303
908.139	17311
908.256	17292
908.372	17189
908.488	17098
908.604	17155
908.72	17003
908.836	17083
908.952	17041
909.068	17006
909.184	17079
909.3	17033
909.415	17105
909.531	16949
909.647	16839
909.762	16778
909.878	16721
909.993	16748
910.108	16622
910.224	16717
910.339	16793
910.454	16717
910.57	16577
910.685	16413
910.8	16786
910.915	16679
911.03	16470
911.145	16325
911.259	16386
911.374	16272
911.489	16287
911.604	16223
911.718	16150
911.833	16131
911.947	15953
912.062	15983
912.176	16135
912.291	15960
912.405	16074
912.519	16219
912.633	16196
912.748	16067
912.862	16029
912.976	15892
913.09	15865
913.204	15804
913.318	15907
913.431	15918
913.545	15941
913.659	16010
913.772	15709
913.886	15633
914	15675
914.113	15709
914.226	15797
914.34	15694
914.453	15599
914.566	15739
914.68	15542
914.793	15530
914.906	15355
915.019	15272
915.132	15256
915.245	15233
915.358	15325
915.47	15298
915.583	15249
915.696	15279
915.809	15443
915.921	15389
916.034	15184
916.146	15199
916.259	15070
916.371	15218
916.483	15218
916.595	15089
916.708	15127
916.82	15028
916.932	14998
917.044	15020
917.156	15039
917.268	14891
917.38	15047
917.491	14861
917.603	14868
917.715	15024
917.826	14979
917.938	14823
918.049	14754
918.161	14868
918.272	14994
918.384	14994
918.495	14838
918.606	14670
918.717	14648
918.828	14769
918.939	14686
919.05	14678
919.161	14670
919.272	14526
919.383	14537
919.494	14712
919.604	14807
919.715	14693
919.826	14545
919.936	14606
920.047	14686
920.157	14708
920.267	14845
920.378	14648
920.488	14621
920.598	14845
920.708	14982
920.818	14800
920.928	14693
921.038	14906
921.148	14876
921.258	14545
921.368	14442
921.477	14358
921.587	14374
921.697	14263
921.806	14305
921.916	14221
922.025	13978
922.134	14035
922.244	13917
922.353	13913
922.462	13883
922.571	13795
922.68	13674
922.789	13647
922.898	13666
923.007	13609
923.116	13674
923.224	13677
923.333	13540
923.442	13521
923.55	13495
923.659	13613
923.767	13571
923.876	13400
923.984	13483
924.092	13335
924.201	13438
924.309	13430
924.417	13411
924.525	13392
924.633	13411
924.741	14081
924.849	13137
924.956	13225
925.064	12985
925.172	13057
925.279	13091
925.387	13019
925.494	13061
925.602	13247
925.709	13114
925.816	13027
925.924	13046
926.031	13091
926.138	13126
926.245	13031
926.352	12844
926.459	13088
926.566	13065
926.673	12901
926.779	12753
926.886	12757
926.993	12684
927.099	12616
927.206	12608
927.312	12528
927.419	12669
927.525	12566
927.631	12631
927.737	12544
927.843	12498
927.95	12350
928.056	12422
928.162	12448
928.267	12532
928.373	13103
928.479	12536
928.585	12235
928.69	12418
928.796	12407
928.901	12346
929.007	12178
929.112	12281
929.218	12323
929.323	12224
929.428	12095
929.533	12243
929.638	12102
929.743	12114
929.848	12159
929.953	12106
930.058	11965
930.163	11843
930.267	11954
930.372	11961
930.477	11779
930.581	12034
930.685	11889
930.79	11668
930.894	11866
930.998	11722
931.103	11916
931.207	11532
931.311	11455
931.415	11315
931.519	11170
931.623	11124
