Data from test_V78500241_3511.txt Node
Date: Fri Mar 25 15:34:18 CST 2022
User: usil
Spectrometer: V785-0024
Trigger mode: 0
Integration Time (sec): 4.000000E-1
Scans to average: 1
Nonlinearity correction enabled: false
Boxcar width: 0
Storing dark spectrum: false
XAxis mode: Wavelengths
Number of Pixels in Spectrum: 1024
>>>>>Begin Spectral Data<<<<<
801.071	27367
801.214	27302
801.356	27184
801.499	27009
801.641	26883
801.783	26971
801.926	26933
802.068	26804
802.211	26952
802.353	26849
802.496	26667
802.638	26648
802.78	26507
802.923	26381
803.065	26530
803.208	26412
803.35	26537
803.492	26674
803.635	26720
803.777	26571
803.919	26708
804.061	27108
804.204	26663
804.346	26621
804.488	26522
804.63	26678
804.773	26655
804.915	26674
805.057	26887
805.199	26511
805.341	26701
805.483	26944
805.626	26864
805.768	26644
805.91	26826
806.052	26845
806.194	26746
806.336	26823
806.478	26864
806.62	26765
806.762	26937
806.904	27096
807.046	27287
807.188	27302
807.33	27146
807.472	27329
807.614	27157
807.756	27154
807.898	27142
808.04	26994
808.182	26971
808.324	27017
808.465	27096
808.607	27367
808.749	27439
808.891	27332
809.033	27629
809.174	27469
809.316	27306
809.458	27378
809.6	27279
809.741	27427
809.883	27603
810.025	27507
810.166	27732
810.308	27709
810.45	27705
810.591	27656
810.733	27427
810.875	27427
811.016	27279
811.158	27374
811.299	27500
811.441	27481
811.582	27431
811.724	27408
811.865	27306
812.007	27370
812.148	27378
812.29	27447
812.431	27534
812.573	27759
812.714	27720
812.855	27865
812.997	27892
813.138	28139
813.279	28032
813.421	27998
813.562	27857
813.703	27641
813.845	27545
813.986	27287
814.127	27169
814.268	27135
814.41	27176
814.551	27036
814.692	27199
814.833	27055
814.974	26887
815.115	27108
815.256	26982
815.397	26895
815.539	26979
815.68	26838
815.821	26705
815.962	26876
816.103	26845
816.244	26575
816.385	26655
816.526	26480
816.666	26488
816.807	26301
816.948	26450
817.089	26393
817.23	26336
817.371	26328
817.512	26309
817.653	26298
817.793	26263
817.934	26412
818.075	26453
818.216	26339
818.356	26259
818.497	26385
818.638	26031
818.778	26142
818.919	26111
819.06	26119
819.2	26210
819.341	26465
819.481	26362
819.622	26431
819.762	26549
819.903	26613
820.043	26450
820.184	26412
820.324	26419
820.465	26415
820.605	26503
820.746	26400
820.886	26286
821.026	26446
821.167	26336
821.307	26537
821.447	26275
821.588	26206
821.728	26161
821.868	25951
822.008	25830
822.149	25830
822.289	25864
822.429	25525
822.569	25464
822.709	25472
822.849	25251
822.99	25308
823.13	25225
823.27	25228
823.41	25259
823.55	24985
823.69	25122
823.83	25141
823.97	25046
824.11	25023
824.25	24859
824.389	24894
824.529	24920
824.669	24924
824.809	25034
824.949	25076
825.089	24871
825.228	25057
825.368	24817
825.508	24810
825.648	24901
825.787	24821
825.927	24814
826.067	24730
826.206	24882
826.346	24867
826.485	24905
826.625	24871
826.765	24958
826.904	24848
827.044	24665
827.183	24532
827.323	24601
827.462	24551
827.601	24604
827.741	24388
827.88	24559
828.02	24365
828.159	24525
828.298	24532
828.437	24661
828.577	24464
828.716	24707
828.855	24498
828.994	24311
829.134	24277
829.273	24133
829.412	24228
829.551	24152
829.69	24239
829.829	24338
829.968	24350
830.107	24277
830.246	24228
830.385	24190
830.524	24201
830.663	24041
830.802	24030
830.941	23840
831.08	23832
831.219	23843
831.357	23939
831.496	24015
831.635	23843
831.774	23802
831.913	23684
832.051	23638
832.19	23585
832.329	23707
832.467	23551
832.606	23611
832.744	23440
832.883	23482
833.022	23512
833.16	23448
833.299	23638
833.437	23615
833.576	23566
833.714	23539
833.852	23615
833.991	23634
834.129	23733
834.267	23771
834.406	23558
834.544	23608
834.682	23619
834.821	23573
834.959	23840
835.097	23471
835.235	23642
835.373	23642
835.511	23516
835.65	23406
835.788	23379
835.926	23436
836.064	23258
836.202	23330
836.34	23429
836.478	23512
836.615	23334
836.753	23425
836.891	23448
837.029	23440
837.167	23417
837.305	23463
837.443	23353
837.58	23242
837.718	23299
837.856	23383
837.993	23280
838.131	23178
838.269	23239
838.406	23265
838.544	23181
838.681	22911
838.819	22923
838.956	22744
839.094	22797
839.231	22869
839.369	22923
839.506	23143
839.643	23117
839.781	22748
839.918	22763
840.055	22854
840.193	22805
840.33	22736
840.467	22683
840.604	22713
840.742	23064
840.879	22645
841.016	22725
841.153	22577
841.29	22900
841.427	22679
841.564	22748
841.701	22809
841.838	22672
841.975	22596
842.112	22645
842.249	22618
842.385	22508
842.522	22599
842.659	22542
842.796	22557
842.933	22451
843.069	22481
843.206	22432
843.343	22550
843.479	22474
843.616	22398
843.752	22257
843.889	22291
844.025	22390
844.162	22226
844.298	22257
844.435	22230
844.571	22215
844.708	22371
844.844	22504
844.98	22466
845.117	22303
845.253	22200
845.389	22128
845.525	22181
845.661	22147
845.798	21869
845.934	22070
846.07	22040
846.206	22097
846.342	22063
846.478	21987
846.614	21766
846.75	21698
846.886	21671
847.022	21854
847.158	21835
847.294	21850
847.429	21759
847.565	21778
847.701	21915
847.837	21473
847.972	21420
848.108	21526
848.244	21568
848.379	21386
848.515	21401
848.65	21313
848.786	21348
848.921	21245
849.057	21393
849.192	21492
849.328	21401
849.463	21294
849.598	21230
849.734	21268
849.869	21233
850.004	21188
850.14	21165
850.275	21135
850.41	21058
850.545	21058
850.68	21051
850.815	21077
850.95	21104
851.085	21169
851.22	21199
851.355	21199
851.49	21173
851.625	21020
851.76	21146
851.895	21005
852.03	21020
852.165	21081
852.299	21123
852.434	21241
852.569	20994
852.703	21108
852.838	21230
852.973	21329
853.107	21123
853.242	20956
853.376	20956
853.511	20872
853.645	20811
853.78	21093
853.914	20834
854.048	20861
854.183	20998
854.317	20952
854.451	21112
854.585	20792
854.72	21009
854.854	20994
854.988	20872
855.122	20937
855.256	20765
855.39	20804
855.524	21043
855.658	20914
855.792	20956
855.926	20967
856.06	20910
856.194	20880
856.327	20883
856.461	20769
856.595	20796
856.729	20861
856.862	20998
856.996	20967
857.13	20971
857.263	21051
857.397	20868
857.53	20857
857.664	20906
857.797	21062
857.931	21070
858.064	21131
858.197	21081
858.331	20979
858.464	20834
858.597	20804
858.731	20796
858.864	20830
858.997	20845
859.13	20960
859.263	20933
859.396	21028
859.529	20834
859.662	20853
859.795	20838
859.928	20895
860.061	20986
860.194	21070
860.327	20914
860.46	20823
860.592	21104
860.725	21108
860.858	21051
860.99	20891
861.123	20781
861.256	20857
861.388	20899
861.521	21587
861.653	20872
861.786	20746
861.918	20743
862.05	20811
862.183	20731
862.315	20826
862.447	20891
862.58	20785
862.712	20594
862.844	20533
862.976	20689
863.108	20724
863.24	20967
863.372	20606
863.504	20590
863.636	20640
863.768	20674
863.9	20530
864.032	20514
864.164	20556
864.296	20712
864.428	20785
864.559	20731
864.691	20606
864.823	20613
864.954	20575
865.086	20613
865.217	20621
865.349	20465
865.48	20495
865.612	20514
865.743	20636
865.875	20495
866.006	20461
866.137	20488
866.269	20587
866.4	20492
866.531	20503
866.662	20393
866.793	20530
866.924	20351
867.055	20552
867.186	20526
867.317	20415
867.448	20396
867.579	20465
867.71	20370
867.841	20377
867.972	20488
868.103	20480
868.233	20389
868.364	20427
868.495	20503
868.625	20590
868.756	20724
868.886	20655
869.017	20682
869.147	20701
869.278	20758
869.408	20609
869.539	20701
869.669	20762
869.799	20773
869.929	20765
870.06	20826
870.19	21074
870.32	20902
870.45	21062
870.58	21085
870.71	21138
870.84	21104
870.97	21058
871.1	21036
871.23	21256
871.36	21317
871.489	21249
871.619	21370
871.749	21245
871.879	21218
872.008	21519
872.138	21355
872.267	21344
872.397	21188
872.526	21127
872.656	21173
872.785	21036
872.915	21378
873.044	21321
873.173	21336
873.303	21477
873.432	21359
873.561	21469
873.69	21302
873.819	21302
873.948	21321
874.077	21260
874.206	21207
874.335	21397
874.464	21408
874.593	21477
874.722	21526
874.851	21637
874.979	21603
875.108	21701
875.237	21447
875.365	21511
875.494	21439
875.623	21656
875.751	21515
875.88	21633
876.008	21835
876.136	21694
876.265	22055
876.393	22124
876.521	22078
876.65	22044
876.778	21964
876.906	21793
877.034	21960
877.162	21949
877.29	21854
877.418	22032
877.546	22017
877.674	21880
877.802	22017
877.93	21880
878.058	21835
878.185	21835
878.313	21873
878.441	21949
878.568	21816
878.696	21846
878.824	21953
878.951	22078
879.079	22051
879.206	22261
879.333	22124
879.461	22017
879.588	22013
879.715	22120
879.842	22234
879.97	22032
880.097	21610
880.224	21759
880.351	21812
880.478	21869
880.605	21785
880.732	21709
880.859	21857
880.986	21827
881.112	21755
881.239	21511
881.366	21469
881.493	21405
881.619	21233
881.746	21378
881.872	21291
881.999	21313
882.125	21317
882.252	21367
882.378	21393
882.505	21485
882.631	21104
882.757	21032
882.883	21039
883.01	21066
883.136	20925
883.262	20941
883.388	21028
883.514	21077
883.64	21047
883.766	20937
883.892	20788
884.018	20845
884.143	20956
884.269	20990
884.395	20758
884.52	20697
884.646	20750
884.772	20590
884.897	20678
885.023	20682
885.148	20823
885.274	20857
885.399	20815
885.524	20648
885.65	20682
885.775	20712
885.9	20659
886.025	20720
886.15	20769
886.275	20590
886.4	20625
886.525	20606
886.65	20465
886.775	20537
886.9	20845
887.025	20861
887.149	20735
887.274	20511
887.399	20385
887.523	20514
887.648	20434
887.773	20298
887.897	20556
888.021	20533
888.146	20339
888.27	20507
888.395	20522
888.519	20469
888.643	20541
888.767	20457
888.891	20412
889.015	20271
889.139	20400
889.263	20164
889.387	20339
889.511	20438
889.635	20298
889.759	20294
889.883	20183
890.006	20286
890.13	20309
890.254	20039
890.377	20134
890.501	20142
890.624	20088
890.748	20111
890.871	19879
890.995	19890
891.118	19700
891.241	19841
891.364	19883
891.488	19902
891.611	19803
891.734	19883
891.857	19902
891.98	19734
892.103	19902
892.226	19780
892.349	19776
892.471	19559
892.594	19681
892.717	19788
892.839	19731
892.962	19742
893.085	19788
893.207	19769
893.33	19597
893.452	19651
893.575	19765
893.697	19761
893.819	19845
893.941	19940
894.064	19837
894.186	19628
894.308	19696
894.43	19845
894.552	19864
894.674	19731
894.796	19578
894.918	19898
895.04	19715
895.161	19731
895.283	19681
895.405	19719
895.526	19826
895.648	19750
895.769	19757
895.891	19852
896.012	19849
896.134	19727
896.255	19757
896.376	19708
896.498	19784
896.619	19708
896.74	19795
896.861	19864
896.982	20054
897.103	20195
897.224	20103
897.345	19959
897.466	19925
897.587	19967
897.708	20107
897.828	20111
897.949	19868
898.07	19731
898.19	19955
898.311	20039
898.431	19974
898.552	19970
898.672	19978
898.792	20046
898.913	20008
899.033	19959
899.153	19811
899.273	19704
899.393	19780
899.513	19750
899.633	19708
899.753	19719
899.873	19605
899.993	19833
900.113	19742
900.232	19727
900.352	19639
900.472	19472
900.591	19445
900.711	19601
900.83	19487
900.95	19518
901.069	19540
901.189	19369
901.308	19148
901.427	19175
901.546	19072
901.665	19114
901.784	19080
901.904	18970
902.023	18863
902.141	18639
902.26	18684
902.379	18726
902.498	18688
902.617	18574
902.735	18608
902.854	18593
902.973	18437
903.091	18228
903.21	18285
903.328	18296
903.446	18270
903.565	18053
903.683	18140
903.801	18064
903.919	18064
904.038	18049
904.156	17813
904.274	17923
904.392	17855
904.51	17729
904.627	17828
904.745	17809
904.863	17897
904.981	17764
905.098	17455
905.216	17623
905.334	17532
905.451	17638
905.569	17467
905.686	17577
905.803	17482
905.921	17258
906.038	17448
906.155	17402
906.272	17105
906.389	17155
906.506	17143
906.623	17117
906.74	17162
906.857	16927
906.974	16976
907.091	17162
907.208	17117
907.324	17045
907.441	17003
907.557	16744
907.674	16809
907.79	16759
907.907	16675
908.023	16790
908.139	16790
908.256	16744
908.372	16653
908.488	16706
908.604	16603
908.72	16440
908.836	16481
908.952	16478
909.068	16565
909.184	16637
909.3	16523
909.415	16577
909.531	16500
909.647	16261
909.762	16223
909.878	16166
909.993	16337
910.108	16200
910.224	16112
910.339	16048
910.454	16055
910.57	16105
910.685	15953
910.8	16139
910.915	16234
911.03	15998
911.145	15930
911.259	15781
911.374	15899
911.489	15808
911.604	15736
911.718	15576
911.833	15496
911.947	15500
912.062	15382
912.176	15599
912.291	15686
912.405	15576
912.519	15713
912.633	15743
912.748	15625
912.862	15515
912.976	15374
913.09	15306
913.204	15332
913.318	15454
913.431	15450
913.545	15439
913.659	15485
913.772	15336
913.886	15116
914	15188
914.113	15268
914.226	15268
914.34	15275
914.453	14986
914.566	15214
914.68	15024
914.793	15154
914.906	14838
915.019	14914
915.132	14765
915.245	14773
915.358	14807
915.47	14727
915.583	14800
915.696	14777
915.809	14998
915.921	14925
916.034	14830
916.146	14693
916.259	14739
916.371	14777
916.483	14845
916.595	14693
916.708	14644
916.82	14678
916.932	14655
917.044	14594
917.156	14590
917.268	14469
917.38	14492
917.491	14396
917.603	14469
917.715	14602
917.826	14575
917.938	14431
918.049	14438
918.161	14434
918.272	14537
918.384	14606
918.495	14355
918.606	14252
918.717	14286
918.828	14267
918.939	14278
919.05	14183
919.161	14206
919.272	14027
919.383	14142
919.494	14301
919.604	14431
919.715	14290
919.826	14134
919.936	14130
920.047	14404
920.157	14202
920.267	14412
920.378	14176
920.488	14176
920.598	14412
920.708	14545
920.818	14290
920.928	14317
921.038	14602
921.148	14442
921.258	14176
921.368	14062
921.477	13894
921.587	13894
921.697	13727
921.806	13890
921.916	13791
922.025	13700
922.134	13578
922.244	13468
922.353	13704
922.462	13529
922.571	13403
922.68	13213
922.789	13289
922.898	13324
923.007	13259
923.116	13320
923.224	13266
923.333	13225
923.442	13095
923.55	13065
923.659	13122
923.767	13263
923.876	13015
923.984	13061
924.092	12981
924.201	13019
924.309	13008
924.417	13091
924.525	12932
924.633	12954
924.741	13647
924.849	12688
924.956	12905
925.064	12738
925.172	12658
925.279	12601
925.387	12764
925.494	12696
925.602	12821
925.709	12734
925.816	12593
925.924	12544
926.031	12669
926.138	12536
926.245	12623
926.352	12467
926.459	12730
926.566	12688
926.673	12502
926.779	12361
926.886	12445
926.993	12254
927.099	12285
927.206	12270
927.312	12289
927.419	12315
927.525	12209
927.631	12216
927.737	12235
927.843	12041
927.95	12003
928.056	12068
928.162	12072
928.267	12178
928.373	12696
928.479	12175
928.585	11958
928.69	12076
928.796	12194
928.901	12007
929.007	11760
929.112	11878
929.218	11863
929.323	11870
929.428	11836
929.533	11927
929.638	11840
929.743	11733
929.848	11775
929.953	11786
930.058	11672
930.163	11497
930.267	11497
930.372	11638
930.477	11372
930.581	11783
930.685	11497
930.79	11444
930.894	11433
930.998	11372
931.103	11558
931.207	11113
931.311	11029
931.415	11025
931.519	10824
931.623	10679
