Data from test_V78500241_1773.txt Node
Date: Fri Mar 25 15:22:12 CST 2022
User: usil
Spectrometer: V785-0024
Trigger mode: 0
Integration Time (sec): 4.000000E-1
Scans to average: 1
Nonlinearity correction enabled: false
Boxcar width: 0
Storing dark spectrum: false
XAxis mode: Wavelengths
Number of Pixels in Spectrum: 1024
>>>>>Begin Spectral Data<<<<<
801.071	27998
801.214	27850
801.356	27694
801.499	27523
801.641	27606
801.783	27519
801.926	27447
802.068	27378
802.211	27283
802.353	27317
802.496	27306
802.638	27192
802.78	27138
802.923	27127
803.065	27036
803.208	27036
803.35	27188
803.492	27302
803.635	27332
803.777	27306
803.919	27298
804.061	27671
804.204	27378
804.346	27165
804.488	27393
804.63	27279
804.773	27268
804.915	27439
805.057	27511
805.199	27325
805.341	27519
805.483	27599
805.626	27530
805.768	27325
805.91	27568
806.052	27488
806.194	27348
806.336	27656
806.478	27534
806.62	27549
806.762	27576
806.904	27842
807.046	27914
807.188	27831
807.33	27846
807.472	27926
807.614	27937
807.756	27835
807.898	27800
808.04	27717
808.182	27739
808.324	27751
808.465	27903
808.607	28086
808.749	28139
808.891	28200
809.033	28162
809.174	28177
809.316	27998
809.458	28063
809.6	28268
809.741	28276
809.883	28169
810.025	28268
810.166	28352
810.308	28398
810.45	28401
810.591	28325
810.733	28200
810.875	28093
811.016	27949
811.158	27975
811.299	28105
811.441	28344
811.582	28295
811.724	28116
811.865	28032
812.007	28063
812.148	28124
812.29	28124
812.431	28181
812.573	28531
812.714	28546
812.855	28653
812.997	28740
813.138	28938
813.279	28809
813.421	28538
813.562	28637
813.703	28459
813.845	28432
813.986	28131
814.127	27934
814.268	27838
814.41	27937
814.551	27751
814.692	27838
814.833	27835
814.974	27751
815.115	27709
815.256	27633
815.397	27580
815.539	27682
815.68	27648
815.821	27488
815.962	27656
816.103	27701
816.244	27462
816.385	27405
816.526	27386
816.666	27127
816.807	26990
816.948	27100
817.089	27169
817.23	27116
817.371	27032
817.512	27203
817.653	27024
817.793	27055
817.934	27074
818.075	27157
818.216	27146
818.356	26902
818.497	26876
818.638	26697
818.778	26864
818.919	26773
819.06	26861
819.2	27013
819.341	27089
819.481	27207
819.622	27279
819.762	27344
819.903	27348
820.043	27203
820.184	27249
820.324	27214
820.465	27237
820.605	27192
820.746	27310
820.886	27146
821.026	27264
821.167	27199
821.307	27146
821.447	27176
821.588	27024
821.728	26944
821.868	26689
822.008	26495
822.149	26598
822.289	26678
822.429	26343
822.569	26244
822.709	26294
822.849	26084
822.99	26035
823.13	26096
823.27	25989
823.41	25970
823.55	25887
823.69	25932
823.83	25970
823.97	25921
824.11	25681
824.25	25674
824.389	25753
824.529	25776
824.669	25624
824.809	25875
824.949	25666
825.089	25830
825.228	25852
825.368	25723
825.508	25537
825.648	25518
825.787	25597
825.927	25803
826.067	25537
826.206	25757
826.346	25677
826.485	25624
826.625	25704
826.765	25738
826.904	25628
827.044	25441
827.183	25407
827.323	25350
827.462	25327
827.601	25400
827.741	25400
827.88	25384
828.02	25228
828.159	25365
828.298	25327
828.437	25388
828.577	25324
828.716	25316
828.855	25145
828.994	25171
829.134	24970
829.273	25103
829.412	25031
829.551	24977
829.69	25046
829.829	25088
829.968	25175
830.107	25088
830.246	25148
830.385	25057
830.524	24932
830.663	24810
830.802	24833
830.941	24631
831.08	24722
831.219	24856
831.357	24684
831.496	24924
831.635	24703
831.774	24547
831.913	24608
832.051	24365
832.19	24490
832.329	24369
832.467	24334
832.606	24380
832.744	24285
832.883	24254
833.022	24334
833.16	24292
833.299	24407
833.437	24338
833.576	24498
833.714	24445
833.852	24369
833.991	24380
834.129	24513
834.267	24570
834.406	24399
834.544	24441
834.682	24437
834.821	24445
834.959	24612
835.097	24296
835.235	24376
835.373	24384
835.511	24296
835.65	24178
835.788	24281
835.926	24174
836.064	24140
836.202	23965
836.34	24167
836.478	24289
836.615	24171
836.753	24239
836.891	24235
837.029	24311
837.167	24152
837.305	24125
837.443	24125
837.58	24102
837.718	24110
837.856	24163
837.993	23954
838.131	24041
838.269	23992
838.406	23920
838.544	23813
838.681	23817
838.819	23573
838.956	23528
839.094	23619
839.231	23585
839.369	23672
839.506	23958
839.643	23821
839.781	23562
839.918	23531
840.055	23627
840.193	23474
840.33	23486
840.467	23406
840.604	23516
840.742	23790
840.879	23288
841.016	23258
841.153	23364
841.29	23493
841.427	23448
841.564	23482
841.701	23501
841.838	23482
841.975	23337
842.112	23417
842.249	23299
842.385	23166
842.522	23452
842.659	23258
842.796	23200
842.933	23159
843.069	23223
843.206	23178
843.343	23261
843.479	23117
843.616	23292
843.752	23064
843.889	23094
844.025	23136
844.162	22995
844.298	23098
844.435	23041
844.571	22991
844.708	22949
844.844	23147
844.98	23121
845.117	23098
845.253	22991
845.389	22828
845.525	22854
845.661	22900
845.798	22721
845.934	22687
846.07	22733
846.206	22812
846.342	22748
846.478	22847
846.614	22554
846.75	22504
846.886	22489
847.022	22569
847.158	22470
847.294	22504
847.429	22485
847.565	22280
847.701	22752
847.837	22234
847.972	22234
848.108	22299
848.244	22333
848.379	22120
848.515	22093
848.65	22055
848.786	22070
848.921	21972
849.057	22055
849.192	22162
849.328	22177
849.463	22120
849.598	22002
849.734	22135
849.869	22002
850.004	21831
850.14	21789
850.275	21819
850.41	21770
850.545	21888
850.68	21793
850.815	21964
850.95	21762
851.085	21945
851.22	21937
851.355	21819
851.49	21903
851.625	21755
851.76	21869
851.895	21743
852.03	21724
852.165	21892
852.299	21876
852.434	21797
852.569	21842
852.703	21888
852.838	21797
852.973	21854
853.107	22006
853.242	21549
853.376	21511
853.511	21610
853.645	21648
853.78	21762
853.914	21671
854.048	21709
854.183	21743
854.317	21682
854.451	21770
854.585	21705
854.72	21724
854.854	21770
854.988	21587
855.122	21705
855.256	21545
855.39	21732
855.524	21686
855.658	21633
855.792	21641
855.926	21686
856.06	21743
856.194	21785
856.327	21667
856.461	21614
856.595	21496
856.729	21580
856.862	21728
856.996	21751
857.13	21755
857.263	21778
857.397	21682
857.53	21637
857.664	21534
857.797	21720
857.931	21736
858.064	21629
858.197	21785
858.331	21667
858.464	21629
858.597	21629
858.731	21587
858.864	21633
858.997	21488
859.13	21622
859.263	21667
859.396	21717
859.529	21648
859.662	21545
859.795	21603
859.928	21732
860.061	21854
860.194	21884
860.327	21701
860.46	21709
860.592	21755
860.725	21816
860.858	21732
860.99	21614
861.123	21561
861.256	21675
861.388	21637
861.521	22352
861.653	21580
861.786	21477
861.918	21599
862.05	21648
862.183	21580
862.315	21583
862.447	21637
862.58	21553
862.712	21507
862.844	21199
862.976	21504
863.108	21351
863.24	21766
863.372	21249
863.504	21298
863.636	21294
863.768	21382
863.9	21363
864.032	21325
864.164	21458
864.296	21336
864.428	21332
864.559	21405
864.691	21386
864.823	21207
864.954	21294
865.086	21313
865.217	21237
865.349	21233
865.48	21214
865.612	21344
865.743	21329
865.875	21264
866.006	21192
866.137	21180
866.269	21157
866.4	21169
866.531	21123
866.662	21188
866.793	21241
866.924	21154
867.055	21207
867.186	21233
867.317	21085
867.448	21108
867.579	21203
867.71	21104
867.841	21138
867.972	21233
868.103	21180
868.233	21085
868.364	21150
868.495	21256
868.625	21386
868.756	21466
868.886	21473
869.017	21530
869.147	21447
869.278	21572
869.408	21477
869.539	21355
869.669	21576
869.799	21496
869.929	21591
870.06	21549
870.19	21701
870.32	21652
870.45	21778
870.58	21747
870.71	21915
870.84	21994
870.97	21922
871.1	21812
871.23	22013
871.36	22082
871.489	21838
871.619	21899
871.749	22074
871.879	22017
872.008	22131
872.138	22017
872.267	21956
872.397	21797
872.526	21819
872.656	21873
872.785	21816
872.915	22002
873.044	22177
873.173	22158
873.303	22059
873.432	22067
873.561	22257
873.69	22086
873.819	22013
873.948	22147
874.077	22097
874.206	21937
874.335	21949
874.464	22105
874.593	22173
874.722	22211
874.851	22284
874.979	22306
875.108	22314
875.237	22112
875.365	22158
875.494	22181
875.623	22405
875.751	22284
875.88	22280
876.008	22363
876.136	22440
876.265	22653
876.393	22721
876.521	22622
876.65	22618
876.778	22561
876.906	22656
877.034	22668
877.162	22573
877.29	22531
877.418	22569
877.546	22607
877.674	22557
877.802	22599
877.93	22607
878.058	22508
878.185	22508
878.313	22485
878.441	22603
878.568	22459
878.696	22630
878.824	22698
878.951	22729
879.079	22786
879.206	22862
879.333	22717
879.461	22592
879.588	22679
879.715	22790
879.842	22877
879.97	22733
880.097	22436
880.224	22451
880.351	22500
880.478	22402
880.605	22428
880.732	22432
880.859	22771
880.986	22432
881.112	22337
881.239	22295
881.366	22185
881.493	22082
881.619	21953
881.746	21987
881.872	22059
881.999	22010
882.125	21964
882.252	21956
882.378	21911
882.505	22086
882.631	21789
882.757	21618
882.883	21797
883.01	21679
883.136	21739
883.262	21545
883.388	21549
883.514	21675
883.64	21652
883.766	21682
883.892	21492
884.018	21450
884.143	21679
884.269	21652
884.395	21405
884.52	21287
884.646	21359
884.772	21302
884.897	21199
885.023	21348
885.148	21473
885.274	21496
885.399	21515
885.524	21298
885.65	21340
885.775	21317
885.9	21336
886.025	21370
886.15	21294
886.275	21302
886.4	21146
886.525	21188
886.65	21176
886.775	21214
886.9	21405
887.025	21511
887.149	21332
887.274	21142
887.399	21211
887.523	21096
887.648	20986
887.773	20952
887.897	21135
888.021	21058
888.146	21074
888.27	21165
888.395	21173
888.519	21154
888.643	21043
888.767	21150
888.891	21127
889.015	20982
889.139	20910
889.263	20990
889.387	21020
889.511	21036
889.635	21096
889.759	20967
889.883	20910
890.006	20944
890.13	20975
890.254	20739
890.377	20826
890.501	20594
890.624	20613
890.748	20678
890.871	20545
890.995	20393
891.118	20332
891.241	20476
891.364	20480
891.488	20564
891.611	20473
891.734	20457
891.857	20602
891.98	20495
892.103	20400
892.226	20423
892.349	20492
892.471	20176
892.594	20320
892.717	20332
892.839	20450
892.962	20374
893.085	20423
893.207	20377
893.33	20290
893.452	20259
893.575	20336
893.697	20240
893.819	20488
893.941	20511
894.064	20530
894.186	20282
894.308	20275
894.43	20507
894.552	20514
894.674	20545
894.796	20332
894.918	20381
895.04	20324
895.161	20332
895.283	20362
895.405	20317
895.526	20400
895.648	20332
895.769	20385
895.891	20324
896.012	20408
896.134	20423
896.255	20221
896.376	20339
896.498	20370
896.619	20309
896.74	20374
896.861	20419
896.982	20598
897.103	20697
897.224	20583
897.345	20579
897.466	20499
897.587	20454
897.708	20739
897.828	20526
897.949	20404
898.07	20393
898.19	20537
898.311	20571
898.431	20514
898.552	20602
898.672	20712
898.792	20693
898.913	20549
899.033	20469
899.153	20317
899.273	20240
899.393	20202
899.513	20362
899.633	20282
899.753	20271
899.873	20180
899.993	20370
900.113	20282
900.232	20298
900.352	20275
900.472	20092
900.591	19951
900.711	20024
900.83	20084
900.95	20134
901.069	20020
901.189	20043
901.308	19727
901.427	19616
901.546	19605
901.665	19704
901.784	19674
901.904	19441
902.023	19396
902.141	19255
902.26	19202
902.379	19179
902.498	19164
902.617	19095
902.735	19255
902.854	19183
902.973	18962
903.091	18829
903.21	18837
903.328	18840
903.446	18772
903.565	18566
903.683	18677
903.801	18521
903.919	18528
904.038	18521
904.156	18479
904.274	18395
904.392	18266
904.51	18380
904.627	18357
904.745	18350
904.863	18399
904.981	18232
905.098	18041
905.216	18098
905.334	18114
905.451	18148
905.569	18114
905.686	18171
905.803	18038
905.921	17942
906.038	17885
906.155	17992
906.272	17756
906.389	17745
906.506	17554
906.623	17824
906.74	17668
906.857	17372
906.974	17410
907.091	17611
907.208	17722
907.324	17699
907.441	17509
907.557	17383
907.674	17315
907.79	17303
907.907	17315
908.023	17360
908.139	17246
908.256	17330
908.372	17311
908.488	17086
908.604	17159
908.72	17105
908.836	16987
908.952	16957
909.068	17045
909.184	17105
909.3	16995
909.415	17060
909.531	16965
909.647	16797
909.762	16706
909.878	16668
909.993	16782
910.108	16752
910.224	16691
910.339	16733
910.454	16618
910.57	16596
910.685	16481
910.8	16702
910.915	16622
911.03	16474
911.145	16386
911.259	16265
911.374	16363
911.489	16295
911.604	16162
911.718	16135
911.833	16128
911.947	15888
912.062	15918
912.176	16086
912.291	16036
912.405	16051
912.519	16230
912.633	16306
912.748	16055
912.862	16013
912.976	15915
913.09	15789
913.204	15876
913.318	15873
913.431	15945
913.545	15953
913.659	15934
913.772	15789
913.886	15736
914	15686
914.113	15819
914.226	15797
914.34	15701
914.453	15618
914.566	15652
914.68	15633
914.793	15553
914.906	15275
915.019	15252
915.132	15268
915.245	15211
915.358	15306
915.47	15275
915.583	15298
915.696	15336
915.809	15355
915.921	15397
916.034	15097
916.146	15138
916.259	15150
916.371	15214
916.483	15310
916.595	15108
916.708	15116
916.82	15146
916.932	15062
917.044	14998
917.156	15066
917.268	14906
917.38	15020
917.491	14990
917.603	14921
917.715	14948
917.826	15036
917.938	14925
918.049	14701
918.161	14906
918.272	14975
918.384	14979
918.495	14758
918.606	14693
918.717	14686
918.828	14750
918.939	14632
919.05	14594
919.161	14602
919.272	14457
919.383	14530
919.494	14743
919.604	14906
919.715	14667
919.826	14613
919.936	14587
920.047	14811
920.157	14655
920.267	14788
920.378	14697
920.488	14545
920.598	14758
920.708	14891
920.818	14686
920.928	14773
921.038	14902
921.148	14864
921.258	14568
921.368	14590
921.477	14358
921.587	14309
921.697	14240
921.806	14351
921.916	14191
922.025	14119
922.134	14073
922.244	14024
922.353	14039
922.462	13959
922.571	13795
922.68	13719
922.789	13655
922.898	13738
923.007	13605
923.116	13689
923.224	13601
923.333	13571
923.442	13449
923.55	13499
923.659	13537
923.767	13533
923.876	13502
923.984	13495
924.092	13453
924.201	13381
924.309	13369
924.417	13460
924.525	13301
924.633	13339
924.741	14031
924.849	13122
924.956	13183
925.064	13164
925.172	13034
925.279	12943
925.387	13118
925.494	13027
925.602	13164
925.709	13099
925.816	12932
925.924	13031
926.031	13065
926.138	13069
926.245	13042
926.352	12913
926.459	13012
926.566	12951
926.673	12977
926.779	12730
926.886	12863
926.993	12711
927.099	12627
927.206	12620
927.312	12669
927.419	12662
927.525	12616
927.631	12623
927.737	12506
927.843	12391
927.95	12258
928.056	12441
928.162	12441
928.267	12490
928.373	13000
928.479	12570
928.585	12292
928.69	12365
928.796	12456
928.901	12384
929.007	12197
929.112	12338
929.218	12285
929.323	12228
929.428	12190
929.533	12235
929.638	12102
929.743	12171
929.848	12144
929.953	12068
930.058	11920
930.163	11817
930.267	11851
930.372	12003
930.477	11859
930.581	12030
930.685	11935
930.79	11718
930.894	11733
930.998	11775
931.103	11874
931.207	11589
931.311	11410
931.415	11330
931.519	11147
931.623	11124
