Data from test_V78500241_2984.txt Node
Date: Fri Mar 25 15:30:38 CST 2022
User: usil
Spectrometer: V785-0024
Trigger mode: 0
Integration Time (sec): 4.000000E-1
Scans to average: 1
Nonlinearity correction enabled: false
Boxcar width: 0
Storing dark spectrum: false
XAxis mode: Wavelengths
Number of Pixels in Spectrum: 1024
>>>>>Begin Spectral Data<<<<<
801.071	27055
801.214	27100
801.356	26895
801.499	26880
801.641	26708
801.783	26606
801.926	26724
802.068	26697
802.211	26689
802.353	26617
802.496	26385
802.638	26446
802.78	26431
802.923	26218
803.065	26126
803.208	26180
803.35	26366
803.492	26377
803.635	26659
803.777	26423
803.919	26431
804.061	26815
804.204	26480
804.346	26389
804.488	26381
804.63	26476
804.773	26480
804.915	26530
805.057	26579
805.199	26556
805.341	26495
805.483	26648
805.626	26648
805.768	26583
805.91	26606
806.052	26522
806.194	26575
806.336	26727
806.478	26659
806.62	26511
806.762	26727
806.904	26948
807.046	27039
807.188	27070
807.33	27043
807.472	27066
807.614	26887
807.756	27032
807.898	26975
808.04	26876
808.182	26845
808.324	26868
808.465	26979
808.607	27089
808.749	27104
808.891	27317
809.033	27329
809.174	27279
809.316	27176
809.458	27184
809.6	27176
809.741	27233
809.883	27405
810.025	27378
810.166	27492
810.308	27538
810.45	27401
810.591	27378
810.733	27397
810.875	27169
811.016	27074
811.158	26963
811.299	27294
811.441	27504
811.582	27329
811.724	27230
811.865	27188
812.007	27214
812.148	27142
812.29	27207
812.431	27469
812.573	27477
812.714	27458
812.855	27538
812.997	27641
813.138	27907
813.279	27819
813.421	27698
813.562	27667
813.703	27553
813.845	27249
813.986	27100
814.127	26914
814.268	26804
814.41	26781
814.551	26781
814.692	26864
814.833	26796
814.974	26838
815.115	26842
815.256	26826
815.397	26750
815.539	26705
815.68	26590
815.821	26640
815.962	26632
816.103	26579
816.244	26473
816.385	26442
816.526	26415
816.666	26275
816.807	26142
816.948	26161
817.089	26149
817.23	26153
817.371	26210
817.512	25993
817.653	25947
817.793	26020
817.934	26145
818.075	26191
818.216	26035
818.356	26077
818.497	25921
818.638	25814
818.778	25803
818.919	25681
819.06	25849
819.2	26012
819.341	26081
819.481	26073
819.622	26164
819.762	26621
819.903	26347
820.043	26202
820.184	26256
820.324	26134
820.465	26233
820.605	26180
820.746	26206
820.886	26153
821.026	26138
821.167	26172
821.307	26168
821.447	26027
821.588	25944
821.728	25871
821.868	25719
822.008	25590
822.149	25510
822.289	25575
822.429	25400
822.569	25232
822.709	25358
822.849	25076
822.99	24996
823.13	24890
823.27	24905
823.41	24939
823.55	24882
823.69	24909
823.83	24798
823.97	24856
824.11	24692
824.25	24525
824.389	24616
824.529	24707
824.669	24635
824.809	24757
824.949	24749
825.089	24768
825.228	24829
825.368	24498
825.508	24494
825.648	24498
825.787	24555
825.927	24593
826.067	24627
826.206	24639
826.346	24532
826.485	24620
826.625	24528
826.765	24745
826.904	24604
827.044	24357
827.183	24289
827.323	24171
827.462	24148
827.601	24338
827.741	24216
827.88	24273
828.02	24174
828.159	24155
828.298	24228
828.437	24338
828.577	24140
828.716	24296
828.855	24144
828.994	23908
829.134	23775
829.273	23965
829.412	23916
829.551	23942
829.69	23984
829.829	23958
829.968	24003
830.107	23927
830.246	23965
830.385	23939
830.524	23954
830.663	23813
830.802	23680
830.941	23581
831.08	23547
831.219	23634
831.357	23646
831.496	23802
831.635	23589
831.774	23433
831.913	23474
832.051	23345
832.19	23330
832.329	23429
832.467	23250
832.606	23212
832.744	23151
832.883	23170
833.022	23273
833.16	23197
833.299	23178
833.437	23170
833.576	23269
833.714	23299
833.852	23383
833.991	23189
834.129	23531
834.267	23254
834.406	23277
834.544	23242
834.682	23292
834.821	23368
834.959	23444
835.097	23265
835.235	23337
835.373	23261
835.511	23193
835.65	23044
835.788	23124
835.926	23132
836.064	22877
836.202	22873
836.34	23010
836.478	23140
836.615	23041
836.753	23147
836.891	23075
837.029	23102
837.167	23094
837.305	23147
837.443	22980
837.58	22938
837.718	22991
837.856	23003
837.993	22793
838.131	22980
838.269	22839
838.406	22919
838.544	22748
838.681	22649
838.819	22687
838.956	22523
839.094	22409
839.231	22481
839.369	22615
839.506	22885
839.643	22607
839.781	22432
839.918	22356
840.055	22375
840.193	22432
840.33	22394
840.467	22265
840.604	22519
840.742	22569
840.879	22238
841.016	22261
841.153	22265
841.29	22512
841.427	22367
841.564	22455
841.701	22398
841.838	22249
841.975	22310
842.112	22337
842.249	22272
842.385	22234
842.522	22379
842.659	22211
842.796	22131
842.933	22169
843.069	22059
843.206	22147
843.343	22188
843.479	22158
843.616	22090
843.752	21857
843.889	21972
844.025	21987
844.162	21892
844.298	21892
844.435	21926
844.571	21850
844.708	21968
844.844	22063
844.98	21876
845.117	22063
845.253	21972
845.389	21800
845.525	21755
845.661	21781
845.798	21648
845.934	21694
846.07	21667
846.206	21823
846.342	21724
846.478	21504
846.614	21492
846.75	21405
846.886	21344
847.022	21370
847.158	21367
847.294	21412
847.429	21408
847.565	21340
847.701	21599
847.837	21184
847.972	21108
848.108	21256
848.244	21119
848.379	21036
848.515	20998
848.65	20998
848.786	20914
848.921	20880
849.057	21047
849.192	20899
849.328	20979
849.463	20921
849.598	20914
849.734	20895
849.869	20819
850.004	20762
850.14	20765
850.275	20743
850.41	20663
850.545	20617
850.68	20655
850.815	20712
850.95	20746
851.085	20990
851.22	20823
851.355	20800
851.49	20705
851.625	20613
851.76	20849
851.895	20667
852.03	20594
852.165	20823
852.299	20845
852.434	20777
852.569	20788
852.703	20682
852.838	20800
852.973	20807
853.107	20979
853.242	20587
853.376	20667
853.511	20438
853.645	20454
853.78	20609
853.914	20640
854.048	20621
854.183	20499
854.317	20606
854.451	20785
854.585	20648
854.72	20518
854.854	20640
854.988	20511
855.122	20629
855.256	20533
855.39	20503
855.524	20629
855.658	20629
855.792	20716
855.926	20693
856.06	20648
856.194	20590
856.327	20526
856.461	20488
856.595	20594
856.729	20457
856.862	20682
856.996	20609
857.13	20556
857.263	20720
857.397	20659
857.53	20518
857.664	20636
857.797	20686
857.931	20674
858.064	20541
858.197	20781
858.331	20511
858.464	20480
858.597	20415
858.731	20564
858.864	20648
858.997	20499
859.13	20545
859.263	20526
859.396	20800
859.529	20492
859.662	20579
859.795	20526
859.928	20644
860.061	20765
860.194	20845
860.327	20549
860.46	20537
860.592	20632
860.725	20769
860.858	20598
860.99	20648
861.123	20533
861.256	20514
861.388	20484
861.521	21192
861.653	20381
861.786	20374
861.918	20381
862.05	20377
862.183	20465
862.315	20492
862.447	20549
862.58	20415
862.712	20358
862.844	20206
862.976	20446
863.108	20305
863.24	20705
863.372	20278
863.504	20263
863.636	20237
863.768	20233
863.9	20252
864.032	20142
864.164	20301
864.296	20320
864.428	20320
864.559	20347
864.691	20305
864.823	20408
864.954	20358
865.086	20157
865.217	20164
865.349	20031
865.48	20161
865.612	20309
865.743	20092
865.875	20199
866.006	20172
866.137	20263
866.269	20248
866.4	20172
866.531	20187
866.662	20054
866.793	20126
866.924	20103
867.055	20206
867.186	20073
867.317	20073
867.448	20100
867.579	20046
867.71	20058
867.841	20024
867.972	20058
868.103	20046
868.233	20111
868.364	20214
868.495	20202
868.625	20317
868.756	20434
868.886	20313
869.017	20366
869.147	20415
869.278	20427
869.408	20347
869.539	20362
869.669	20374
869.799	20465
869.929	20476
870.06	20431
870.19	20598
870.32	20682
870.45	20708
870.58	20697
870.71	20849
870.84	20914
870.97	20800
871.1	20777
871.23	20986
871.36	21005
871.489	20823
871.619	21024
871.749	20861
871.879	21062
872.008	21058
872.138	21001
872.267	21032
872.397	20857
872.526	20731
872.656	20792
872.785	20788
872.915	21055
873.044	21081
873.173	20921
873.303	21047
873.432	21009
873.561	21077
873.69	20967
873.819	20979
873.948	20982
874.077	21043
874.206	20880
874.335	20986
874.464	21051
874.593	21245
874.722	21135
874.851	21310
874.979	21233
875.108	21256
875.237	21188
875.365	21138
875.494	21131
875.623	21252
875.751	21123
875.88	21127
876.008	21340
876.136	21283
876.265	21469
876.393	21755
876.521	21648
876.65	21629
876.778	21622
876.906	21549
877.034	21663
877.162	21720
877.29	21466
877.418	21591
877.546	21648
877.674	21488
877.802	21591
877.93	21530
878.058	21485
878.185	21507
878.313	21614
878.441	21606
878.568	21458
878.696	21526
878.824	21561
878.951	21633
879.079	21789
879.206	21892
879.333	21823
879.461	21614
879.588	21622
879.715	21793
879.842	21838
879.97	21675
880.097	21397
880.224	21431
880.351	21397
880.478	21435
880.605	21294
880.732	21477
880.859	21652
880.986	21363
881.112	21428
881.239	21405
881.366	21089
881.493	20982
881.619	21058
881.746	20979
881.872	20994
881.999	20963
882.125	20998
882.252	20975
882.378	20918
882.505	21051
882.631	20807
882.757	20670
882.883	20773
883.01	20689
883.136	20560
883.262	20530
883.388	20545
883.514	20739
883.64	20785
883.766	20731
883.892	20507
884.018	20454
884.143	20526
884.269	20697
884.395	20362
884.52	20294
884.646	20381
884.772	20347
884.897	20244
885.023	20332
885.148	20339
885.274	20507
885.399	20374
885.524	20298
885.65	20488
885.775	20423
885.9	20347
886.025	20415
886.15	20389
886.275	20225
886.4	20206
886.525	20290
886.65	20225
886.775	20259
886.9	20385
887.025	20537
887.149	20385
887.274	20271
887.399	20103
887.523	20138
887.648	19928
887.773	19997
887.897	20161
888.021	20202
888.146	20081
888.27	20244
888.395	20298
888.519	20130
888.643	20199
888.767	20107
888.891	19951
889.015	20024
889.139	19925
889.263	19894
889.387	20058
889.511	20180
889.635	20062
889.759	19944
889.883	19833
890.006	19963
890.13	20050
890.254	19860
890.377	19761
890.501	19795
890.624	19689
890.748	19693
890.871	19575
890.995	19502
891.118	19362
891.241	19655
891.364	19559
891.488	19605
891.611	19537
891.734	19548
891.857	19540
891.98	19544
892.103	19483
892.226	19453
892.349	19499
892.471	19377
892.594	19400
892.717	19407
892.839	19434
892.962	19445
893.085	19552
893.207	19377
893.33	19316
893.452	19293
893.575	19415
893.697	19445
893.819	19677
893.941	19643
894.064	19575
894.186	19491
894.308	19434
894.43	19491
894.552	19525
894.674	19514
894.796	19422
894.918	19521
895.04	19346
895.161	19521
895.283	19529
895.405	19392
895.526	19388
895.648	19335
895.769	19480
895.891	19472
896.012	19495
896.134	19540
896.255	19491
896.376	19400
896.498	19426
896.619	19411
896.74	19438
896.861	19457
896.982	19780
897.103	19913
897.224	19780
897.345	19708
897.466	19563
897.587	19643
897.708	19849
897.828	19609
897.949	19689
898.07	19460
898.19	19799
898.311	19757
898.431	19639
898.552	19765
898.672	19776
898.792	19712
898.913	19685
899.033	19575
899.153	19529
899.273	19400
899.393	19403
899.513	19575
899.633	19540
899.753	19552
899.873	19457
899.993	19499
900.113	19312
900.232	19362
900.352	19324
900.472	19308
900.591	19156
900.711	19312
900.83	19247
900.95	19354
901.069	19274
901.189	19206
901.308	18981
901.427	18802
901.546	18749
901.665	18825
901.784	18958
901.904	18700
902.023	18631
902.141	18407
902.26	18380
902.379	18323
902.498	18422
902.617	18270
902.735	18357
902.854	18300
902.973	18338
903.091	17954
903.21	18060
903.328	17961
903.446	17946
903.565	17912
903.683	17813
903.801	17764
903.919	17824
904.038	17786
904.156	17653
904.274	17703
904.392	17566
904.51	17501
904.627	17604
904.745	17642
904.863	17585
904.981	17356
905.098	17269
905.216	17235
905.334	17227
905.451	17254
905.569	17299
905.686	17303
905.803	17197
905.921	17060
906.038	17227
906.155	17010
906.272	16957
906.389	16923
906.506	16809
906.623	16767
906.74	16820
906.857	16687
906.974	16771
907.091	16980
907.208	16965
907.324	16904
907.441	16805
907.557	16481
907.674	16554
907.79	16535
907.907	16390
908.023	16588
908.139	16519
908.256	16607
908.372	16394
908.488	16504
908.604	16337
908.72	16207
908.836	16287
908.952	16204
909.068	16337
909.184	16341
909.3	16112
909.415	16272
909.531	16200
909.647	16006
909.762	15983
909.878	16010
909.993	15972
910.108	15934
910.224	15861
910.339	15964
910.454	15838
910.57	15819
910.685	15785
910.8	16017
910.915	15956
911.03	15812
911.145	15618
911.259	15603
911.374	15580
911.489	15515
911.604	15447
911.718	15355
911.833	15374
911.947	15291
912.062	15256
912.176	15378
912.291	15351
912.405	15408
912.519	15629
912.633	15515
912.748	15321
912.862	15310
912.976	15279
913.09	15131
913.204	15089
913.318	15131
913.431	15355
913.545	15116
913.659	15256
913.772	15161
913.886	15055
914	14914
914.113	15017
914.226	15047
914.34	15028
914.453	14902
914.566	15089
914.68	14880
914.793	14762
914.906	14632
915.019	14575
915.132	14564
915.245	14511
915.358	14583
915.47	14693
915.583	14518
915.696	14568
915.809	14705
915.921	14697
916.034	14541
916.146	14503
916.259	14412
916.371	14682
916.483	14469
916.595	14347
916.708	14427
916.82	14484
916.932	14309
917.044	14526
917.156	14499
917.268	14286
917.38	14275
917.491	14252
917.603	14145
917.715	14355
917.826	14286
917.938	14202
918.049	14065
918.161	14161
918.272	14389
918.384	14320
918.495	14195
918.606	13982
918.717	13951
918.828	13986
918.939	14062
919.05	13830
919.161	13982
919.272	13864
919.383	13887
919.494	13993
919.604	14275
919.715	14027
919.826	13959
919.936	13902
920.047	14035
920.157	13906
920.267	14202
920.378	13944
920.488	13955
920.598	14161
920.708	14248
920.818	14172
920.928	14157
921.038	14259
921.148	14298
921.258	13898
921.368	13913
921.477	13814
921.587	13666
921.697	13670
921.806	13708
921.916	13514
922.025	13441
922.134	13403
922.244	13293
922.353	13434
922.462	13270
922.571	13331
922.68	13053
922.789	13072
922.898	13103
923.007	13004
923.116	13031
923.224	13008
923.333	13012
923.442	12932
923.55	12894
923.659	12871
923.767	12932
923.876	12852
923.984	12897
924.092	12753
924.201	12875
924.309	12871
924.417	12852
924.525	12692
924.633	12787
924.741	13487
924.849	12456
924.956	12745
925.064	12483
925.172	12433
925.279	12426
925.387	12483
925.494	12475
925.602	12574
925.709	12601
925.816	12384
925.924	12452
926.031	12540
926.138	12395
926.245	12509
926.352	12369
926.459	12513
926.566	12578
926.673	12334
926.779	12300
926.886	12209
926.993	12121
927.099	12015
927.206	12064
927.312	12026
927.419	12064
927.525	12152
927.631	12205
927.737	11927
927.843	11969
927.95	11798
928.056	11870
928.162	11954
928.267	12022
928.373	12585
928.479	11980
928.585	11764
928.69	11950
928.796	11870
928.901	11718
929.007	11710
929.112	11767
929.218	11802
929.323	11589
929.428	11653
929.533	11767
929.638	11596
929.743	11600
929.848	11642
929.953	11611
930.058	11482
930.163	11345
930.267	11349
930.372	11543
930.477	11379
930.581	11505
930.685	11368
930.79	11341
930.894	11239
930.998	11174
931.103	11337
931.207	10923
931.311	10793
931.415	10820
931.519	10717
931.623	10634
