Data from test_V78500241_2144.txt Node
Date: Fri Mar 25 15:24:47 CST 2022
User: usil
Spectrometer: V785-0024
Trigger mode: 0
Integration Time (sec): 4.000000E-1
Scans to average: 1
Nonlinearity correction enabled: false
Boxcar width: 0
Storing dark spectrum: false
XAxis mode: Wavelengths
Number of Pixels in Spectrum: 1024
>>>>>Begin Spectral Data<<<<<
801.071	27272
801.214	27294
801.356	27024
801.499	27005
801.641	26937
801.783	26788
801.926	26842
802.068	26800
802.211	26792
802.353	26632
802.496	26530
802.638	26480
802.78	26434
802.923	26396
803.065	26248
803.208	26313
803.35	26385
803.492	26644
803.635	26682
803.777	26530
803.919	26492
804.061	26853
804.204	26720
804.346	26617
804.488	26693
804.63	26625
804.773	26518
804.915	26648
805.057	26663
805.199	26689
805.341	26769
805.483	26705
805.626	26792
805.768	26708
805.91	26762
806.052	26743
806.194	26758
806.336	26895
806.478	26743
806.62	26762
806.762	26921
806.904	27108
807.046	27260
807.188	27169
807.33	27264
807.472	27154
807.614	26998
807.756	27161
807.898	26994
808.04	27051
808.182	26944
808.324	26994
808.465	27001
808.607	27298
808.749	27302
808.891	27519
809.033	27382
809.174	27557
809.316	27306
809.458	27344
809.6	27184
809.741	27519
809.883	27462
810.025	27614
810.166	27538
810.308	27660
810.45	27504
810.591	27302
810.733	27294
810.875	27302
811.016	27180
811.158	27184
811.299	27469
811.441	27526
811.582	27466
811.724	27359
811.865	27359
812.007	27275
812.148	27382
812.29	27344
812.431	27473
812.573	27675
812.714	27747
812.855	27724
812.997	27956
813.138	28219
813.279	27968
813.421	27789
813.562	27778
813.703	27675
813.845	27462
813.986	27275
814.127	27386
814.268	27119
814.41	27013
814.551	26967
814.692	27077
814.833	26948
814.974	26990
815.115	27218
815.256	26815
815.397	26811
815.539	26921
815.68	26853
815.821	26727
815.962	26720
816.103	26754
816.244	26651
816.385	26568
816.526	26507
816.666	26324
816.807	26298
816.948	26267
817.089	26358
817.23	26328
817.371	26195
817.512	26206
817.653	26218
817.793	26172
817.934	26267
818.075	26229
818.216	26199
818.356	26233
818.497	26088
818.638	25993
818.778	26084
818.919	26062
819.06	26054
819.2	26035
819.341	26237
819.481	26240
819.622	26560
819.762	26533
819.903	26442
820.043	26499
820.184	26412
820.324	26381
820.465	26408
820.605	26324
820.746	26351
820.886	26271
821.026	26317
821.167	26301
821.307	26453
821.447	26400
821.588	26035
821.728	26195
821.868	25731
822.008	25696
822.149	25761
822.289	25731
822.429	25400
822.569	25472
822.709	25343
822.849	25133
822.99	25343
823.13	25122
823.27	24996
823.41	25038
823.55	24958
823.69	25179
823.83	25107
823.97	25099
824.11	24897
824.25	24757
824.389	24863
824.529	24920
824.669	24837
824.809	24863
824.949	24977
825.089	25027
825.228	24954
825.368	24703
825.508	24787
825.648	24795
825.787	24802
825.927	24783
826.067	24738
826.206	24623
826.346	24711
826.485	24768
826.625	24749
826.765	24810
826.904	24768
827.044	24627
827.183	24365
827.323	24380
827.462	24521
827.601	24494
827.741	24433
827.88	24418
828.02	24334
828.159	24334
828.298	24258
828.437	24384
828.577	24319
828.716	24418
828.855	24304
828.994	24034
829.134	24053
829.273	24155
829.412	24133
829.551	24057
829.69	24034
829.829	24049
829.968	24117
830.107	24163
830.246	24171
830.385	24129
830.524	24045
830.663	23950
830.802	23882
830.941	23752
831.08	23589
831.219	23809
831.357	23813
831.496	24076
831.635	23714
831.774	23649
831.913	23543
832.051	23619
832.19	23353
832.329	23596
832.467	23421
832.606	23497
832.744	23280
832.883	23379
833.022	23334
833.16	23395
833.299	23433
833.437	23467
833.576	23524
833.714	23391
833.852	23505
833.991	23482
834.129	23592
834.267	23600
834.406	23349
834.544	23505
834.682	23486
834.821	23345
834.959	23741
835.097	23417
835.235	23448
835.373	23493
835.511	23379
835.65	23280
835.788	23372
835.926	23193
836.064	23075
836.202	23178
836.34	23360
836.478	23326
836.615	23151
836.753	23246
836.891	23341
837.029	23296
837.167	23277
837.305	23265
837.443	23162
837.58	23170
837.718	23117
837.856	23162
837.993	23132
838.131	23136
838.269	23003
838.406	22866
838.544	22957
838.681	22873
838.819	22782
838.956	22561
839.094	22649
839.231	22607
839.369	22702
839.506	23098
839.643	22778
839.781	22531
839.918	22615
840.055	22599
840.193	22519
840.33	22485
840.467	22596
840.604	22527
840.742	22885
840.879	22367
841.016	22371
841.153	22493
841.29	22653
841.427	22542
841.564	22584
841.701	22596
841.838	22466
841.975	22390
842.112	22447
842.249	22329
842.385	22268
842.522	22523
842.659	22409
842.796	22223
842.933	22223
843.069	22238
843.206	22173
843.343	22440
843.479	22295
843.616	22261
843.752	22051
843.889	21964
844.025	22139
844.162	22010
844.298	22093
844.435	22059
844.571	21979
844.708	21956
844.844	22124
844.98	22063
845.117	22154
845.253	21949
845.389	21857
845.525	22017
845.661	21876
845.798	21732
845.934	21808
846.07	21880
846.206	21892
846.342	21785
846.478	21679
846.614	21530
846.75	21492
846.886	21492
847.022	21557
847.158	21580
847.294	21454
847.429	21439
847.565	21477
847.701	21751
847.837	21150
847.972	21192
848.108	21252
848.244	21298
848.379	21028
848.515	21043
848.65	20921
848.786	21077
848.921	21108
849.057	21192
849.192	21272
849.328	21241
849.463	21188
849.598	21066
849.734	21070
849.869	21051
850.004	20788
850.14	20937
850.275	20861
850.41	20857
850.545	20777
850.68	20811
850.815	20979
850.95	20963
851.085	21070
851.22	20963
851.355	20815
851.49	20861
851.625	20864
851.76	20861
851.895	20777
852.03	20762
852.165	20925
852.299	20967
852.434	20864
852.569	20849
852.703	20861
852.838	20990
852.973	20918
853.107	21058
853.242	20838
853.376	20815
853.511	20648
853.645	20636
853.78	20830
853.914	20678
854.048	20693
854.183	20636
854.317	20743
854.451	20834
854.585	20663
854.72	20697
854.854	20712
854.988	20640
855.122	20678
855.256	20602
855.39	20667
855.524	20785
855.658	20750
855.792	20743
855.926	20720
856.06	20697
856.194	20693
856.327	20644
856.461	20670
856.595	20648
856.729	20731
856.862	20727
856.996	20648
857.13	20640
857.263	20727
857.397	20792
857.53	20724
857.664	20697
857.797	20857
857.931	20807
858.064	20739
858.197	20849
858.331	20689
858.464	20590
858.597	20552
858.731	20636
858.864	20552
858.997	20606
859.13	20678
859.263	20678
859.396	20750
859.529	20682
859.662	20613
859.795	20571
859.928	20705
860.061	20804
860.194	20880
860.327	20663
860.46	20701
860.592	20754
860.725	20941
860.858	20762
860.99	20693
861.123	20629
861.256	20522
861.388	20587
861.521	21317
861.653	20663
861.786	20564
861.918	20507
862.05	20545
862.183	20552
862.315	20583
862.447	20667
862.58	20454
862.712	20347
862.844	20305
862.976	20499
863.108	20526
863.24	20769
863.372	20301
863.504	20332
863.636	20480
863.768	20530
863.9	20286
864.032	20309
864.164	20324
864.296	20423
864.428	20404
864.559	20484
864.691	20412
864.823	20374
864.954	20347
865.086	20370
865.217	20332
865.349	20199
865.48	20301
865.612	20301
865.743	20358
865.875	20389
866.006	20240
866.137	20317
866.269	20415
866.4	20320
866.531	20240
866.662	20256
866.793	20324
866.924	20309
867.055	20324
867.186	20157
867.317	20142
867.448	20107
867.579	20202
867.71	20240
867.841	20157
867.972	20389
868.103	20084
868.233	20221
868.364	20256
868.495	20343
868.625	20431
868.756	20560
868.886	20492
869.017	20400
869.147	20625
869.278	20564
869.408	20575
869.539	20454
869.669	20419
869.799	20457
869.929	20617
870.06	20495
870.19	20785
870.32	20720
870.45	20823
870.58	20811
870.71	20963
870.84	21077
870.97	20872
871.1	20883
871.23	21051
871.36	21043
871.489	20971
871.619	21051
871.749	21039
871.879	21089
872.008	21157
872.138	21085
872.267	21032
872.397	20967
872.526	20944
872.656	20880
872.785	20853
872.915	21135
873.044	21150
873.173	21051
873.303	21093
873.432	21062
873.561	21211
873.69	21127
873.819	21028
873.948	21230
874.077	21036
874.206	21070
874.335	21047
874.464	21233
874.593	21264
874.722	21477
874.851	21378
874.979	21370
875.108	21424
875.237	21458
875.365	21199
875.494	21344
875.623	21405
875.751	21306
875.88	21321
876.008	21526
876.136	21519
876.265	21808
876.393	21816
876.521	21823
876.65	21717
876.778	21835
876.906	21816
877.034	21743
877.162	21751
877.29	21656
877.418	21690
877.546	21781
877.674	21660
877.802	21705
877.93	21778
878.058	21656
878.185	21667
878.313	21682
878.441	21675
878.568	21553
878.696	21675
878.824	21778
878.951	21831
879.079	21838
879.206	22032
879.333	21831
879.461	21713
879.588	21861
879.715	21892
879.842	22040
879.97	21808
880.097	21663
880.224	21564
880.351	21701
880.478	21561
880.605	21492
880.732	21511
880.859	21739
880.986	21534
881.112	21515
881.239	21401
881.366	21374
881.493	21275
881.619	21077
881.746	21192
881.872	21161
881.999	21165
882.125	21146
882.252	21058
882.378	21264
882.505	21268
882.631	20967
882.757	20800
882.883	20956
883.01	20842
883.136	20838
883.262	20762
883.388	20625
883.514	20735
883.64	20754
883.766	20720
883.892	20644
884.018	20602
884.143	20815
884.269	20857
884.395	20678
884.52	20454
884.646	20545
884.772	20332
884.897	20339
885.023	20465
885.148	20571
885.274	20644
885.399	20613
885.524	20480
885.65	20469
885.775	20522
885.9	20526
886.025	20606
886.15	20552
886.275	20419
886.4	20393
886.525	20393
886.65	20465
886.775	20351
886.9	20590
887.025	20720
887.149	20457
887.274	20271
887.399	20252
887.523	20206
887.648	20218
887.773	20259
887.897	20355
888.021	20305
888.146	20210
888.27	20454
888.395	20301
888.519	20419
888.643	20286
888.767	20355
888.891	20225
889.015	20058
889.139	20206
889.263	20065
889.387	20119
889.511	20202
889.635	20202
889.759	20119
889.883	20001
890.006	19986
890.13	20077
890.254	20001
890.377	20024
890.501	19795
890.624	19776
890.748	19822
890.871	19734
890.995	19677
891.118	19658
891.241	19666
891.364	19704
891.488	19753
891.611	19624
891.734	19609
891.857	19628
891.98	19731
892.103	19647
892.226	19670
892.349	19685
892.471	19533
892.594	19480
892.717	19643
892.839	19548
892.962	19559
893.085	19605
893.207	19563
893.33	19324
893.452	19491
893.575	19559
893.697	19491
893.819	19795
893.941	19674
894.064	19639
894.186	19594
894.308	19369
894.43	19624
894.552	19811
894.674	19681
894.796	19396
894.918	19590
895.04	19472
895.161	19567
895.283	19552
895.405	19502
895.526	19480
895.648	19533
895.769	19537
895.891	19643
896.012	19609
896.134	19632
896.255	19567
896.376	19563
896.498	19651
896.619	19575
896.74	19662
896.861	19537
896.982	19921
897.103	20016
897.224	19799
897.345	19753
897.466	19639
897.587	19776
897.708	19917
897.828	19814
897.949	19791
898.07	19753
898.19	19807
898.311	19814
898.431	19723
898.552	19765
898.672	19769
898.792	19868
898.913	19830
899.033	19700
899.153	19708
899.273	19506
899.393	19559
899.513	19719
899.633	19537
899.753	19518
899.873	19578
899.993	19567
900.113	19468
900.232	19624
900.352	19514
900.472	19521
900.591	19225
900.711	19316
900.83	19244
900.95	19396
901.069	19369
901.189	19259
901.308	19091
901.427	18954
901.546	18916
901.665	18894
901.784	18993
901.904	18859
902.023	18673
902.141	18601
902.26	18540
902.379	18563
902.498	18456
902.617	18464
902.735	18502
902.854	18418
902.973	18445
903.091	18190
903.21	18110
903.328	18197
903.446	18117
903.565	17946
903.683	18019
903.801	17809
903.919	17931
904.038	17794
904.156	17630
904.274	17802
904.392	17817
904.51	17695
904.627	17737
904.745	17794
904.863	17843
904.981	17528
905.098	17376
905.216	17395
905.334	17452
905.451	17372
905.569	17493
905.686	17459
905.803	17414
905.921	17216
906.038	17239
906.155	17037
906.272	17083
906.389	16961
906.506	16991
906.623	16972
906.74	16930
906.857	16793
906.974	16866
907.091	16934
907.208	17022
907.324	17018
907.441	16889
907.557	16698
907.674	16755
907.79	16580
907.907	16584
908.023	16626
908.139	16653
908.256	16535
908.372	16546
908.488	16436
908.604	16512
908.72	16360
908.836	16341
908.952	16329
909.068	16341
909.184	16428
909.3	16352
909.415	16379
909.531	16367
909.647	16154
909.762	16040
909.878	16059
909.993	16116
910.108	16112
910.224	15987
910.339	16021
910.454	15975
910.57	15812
910.685	15831
910.8	16055
910.915	15991
911.03	15884
911.145	15629
911.259	15663
911.374	15564
911.489	15660
911.604	15504
911.718	15435
911.833	15389
911.947	15264
912.062	15233
912.176	15370
912.291	15355
912.405	15408
912.519	15663
912.633	15564
912.748	15553
912.862	15363
912.976	15146
913.09	15146
913.204	15169
913.318	15180
913.431	15374
913.545	15329
913.659	15348
913.772	15195
913.886	15138
914	15093
914.113	15180
914.226	15123
914.34	15123
914.453	14994
914.566	15039
914.68	14994
914.793	14838
914.906	14796
915.019	14689
915.132	14651
915.245	14621
915.358	14682
915.47	14640
915.583	14663
915.696	14758
915.809	14781
915.921	14785
916.034	14636
916.146	14617
916.259	14556
916.371	14606
916.483	14629
916.595	14533
916.708	14575
916.82	14423
916.932	14377
917.044	14446
917.156	14518
917.268	14317
917.38	14415
917.491	14370
917.603	14396
917.715	14389
917.826	14442
917.938	14218
918.049	14180
918.161	14309
918.272	14408
918.384	14320
918.495	14271
918.606	14145
918.717	14092
918.828	14195
918.939	14183
919.05	14001
919.161	14077
919.272	13967
919.383	13921
919.494	14119
919.604	14370
919.715	14031
919.826	13978
919.936	14035
920.047	14161
920.157	14126
920.267	14237
920.378	14176
920.488	14012
920.598	14187
920.708	14366
920.818	14206
920.928	14199
921.038	14434
921.148	14339
921.258	14126
921.368	13955
921.477	13826
921.587	13811
921.697	13708
921.806	13814
921.916	13731
922.025	13480
922.134	13537
922.244	13430
922.353	13537
922.462	13339
922.571	13266
922.68	13225
922.789	13042
922.898	13225
923.007	13095
923.116	13145
923.224	13179
923.333	13027
923.442	13034
923.55	12852
923.659	13008
923.767	12981
923.876	12852
923.984	12973
924.092	12810
924.201	12882
924.309	12840
924.417	12913
924.525	12882
924.633	12806
924.741	13601
924.849	12684
924.956	12734
925.064	12616
925.172	12525
925.279	12498
925.387	12551
925.494	12673
925.602	12681
925.709	12585
925.816	12483
925.924	12483
926.031	12547
926.138	12528
926.245	12616
926.352	12467
926.459	12536
926.566	12513
926.673	12456
926.779	12330
926.886	12372
926.993	12220
927.099	12178
927.206	12133
927.312	12072
927.419	12216
927.525	12159
927.631	12201
927.737	11969
927.843	12015
927.95	11882
928.056	11855
928.162	12030
928.267	12041
928.373	12635
928.479	12136
928.585	11916
928.69	11908
928.796	11992
928.901	11813
929.007	11741
929.112	11889
929.218	11802
929.323	11714
929.428	11707
929.533	11805
929.638	11661
929.743	11642
929.848	11722
929.953	11729
930.058	11566
930.163	11406
930.267	11368
930.372	11554
930.477	11322
930.581	11642
930.685	11444
930.79	11341
930.894	11398
930.998	11231
931.103	11417
931.207	11067
931.311	10965
931.415	10908
931.519	10733
931.623	10618
