Data from test_V78500241_1087.txt Node
Date: Fri Mar 25 15:17:25 CST 2022
User: usil
Spectrometer: V785-0024
Trigger mode: 0
Integration Time (sec): 4.000000E-1
Scans to average: 1
Nonlinearity correction enabled: false
Boxcar width: 0
Storing dark spectrum: false
XAxis mode: Wavelengths
Number of Pixels in Spectrum: 1024
>>>>>Begin Spectral Data<<<<<
801.071	28284
801.214	28177
801.356	28063
801.499	27968
801.641	27812
801.783	27884
801.926	27895
802.068	27759
802.211	27793
802.353	27816
802.496	27542
802.638	27466
802.78	27427
802.923	27420
803.065	27519
803.208	27526
803.35	27625
803.492	27603
803.635	27660
803.777	27622
803.919	27629
804.061	27975
804.204	27667
804.346	27618
804.488	27656
804.63	27610
804.773	27614
804.915	27804
805.057	27842
805.199	27603
805.341	27907
805.483	27857
805.626	27918
805.768	27720
805.91	27816
806.052	27968
806.194	27793
806.336	27956
806.478	27941
806.62	27941
806.762	27918
806.904	28166
807.046	28295
807.188	28230
807.33	28257
807.472	28322
807.614	28268
807.756	28329
807.898	28116
808.04	28112
808.182	28139
808.324	28090
808.465	28143
808.607	28325
808.749	28459
808.891	28546
809.033	28523
809.174	28668
809.316	28500
809.458	28535
809.6	28424
809.741	28694
809.883	28744
810.025	28805
810.166	28725
810.308	28873
810.45	28683
810.591	28694
810.733	28573
810.875	28455
811.016	28440
811.158	28527
811.299	28653
811.441	28725
811.582	28599
811.724	28615
811.865	28443
812.007	28580
812.148	28489
812.29	28656
812.431	28729
812.573	28843
812.714	29060
812.855	28946
812.997	29159
813.138	29227
813.279	29124
813.421	29014
813.562	28999
813.703	28782
813.845	28664
813.986	28493
814.127	28329
814.268	28295
814.41	28223
814.551	28257
814.692	28261
814.833	28147
814.974	28059
815.115	28223
815.256	28112
815.397	28147
815.539	28234
815.68	28116
815.821	27937
815.962	28040
816.103	28013
816.244	27895
816.385	27736
816.526	27759
816.666	27633
816.807	27545
816.948	27724
817.089	27641
817.23	27701
817.371	27485
817.512	27507
817.653	27538
817.793	27625
817.934	27572
818.075	27603
818.216	27542
818.356	27652
818.497	27359
818.638	27237
818.778	27199
818.919	27222
819.06	27427
819.2	27488
819.341	27538
819.481	27496
819.622	27675
819.762	27876
819.903	27778
820.043	27679
820.184	27762
820.324	27610
820.465	27793
820.605	27641
820.746	27660
820.886	27591
821.026	27580
821.167	27652
821.307	27770
821.447	27587
821.588	27405
821.728	27420
821.868	27119
822.008	27028
822.149	27024
822.289	27081
822.429	26697
822.569	26667
822.709	26868
822.849	26674
822.99	26632
823.13	26465
823.27	26552
823.41	26457
823.55	26267
823.69	26556
823.83	26404
823.97	26339
824.11	26229
824.25	26199
824.389	26210
824.529	26271
824.669	26210
824.809	26343
824.949	26370
825.089	26256
825.228	26161
825.368	26031
825.508	26039
825.648	26164
825.787	26100
825.927	26210
826.067	25993
826.206	26115
826.346	25997
826.485	26069
826.625	26050
826.765	26199
826.904	26081
827.044	25890
827.183	25928
827.323	25799
827.462	25860
827.601	25909
827.741	25776
827.88	25925
828.02	25803
828.159	25837
828.298	25753
828.437	25822
828.577	25875
828.716	26012
828.855	25658
828.994	25590
829.134	25616
829.273	25529
829.412	25468
829.551	25476
829.69	25674
829.829	25674
829.968	25506
830.107	25609
830.246	25544
830.385	25438
830.524	25495
830.663	25324
830.802	25259
830.941	25000
831.08	25164
831.219	25206
831.357	25175
831.496	25384
831.635	25198
831.774	25061
831.913	25053
832.051	24973
832.19	24935
832.329	24901
832.467	24852
832.606	24829
832.744	24806
832.883	24875
833.022	24848
833.16	24783
833.299	24878
833.437	24886
833.576	25004
833.714	24837
833.852	24837
833.991	24894
834.129	25015
834.267	25076
834.406	24939
834.544	24962
834.682	24939
834.821	24837
834.959	25008
835.097	24913
835.235	24787
835.373	24837
835.511	24810
835.65	24760
835.788	24821
835.926	24620
836.064	24456
836.202	24612
836.34	24719
836.478	24719
836.615	24688
836.753	24722
836.891	24738
837.029	24814
837.167	24684
837.305	24646
837.443	24521
837.58	24589
837.718	24738
837.856	24585
837.993	24536
838.131	24555
838.269	24414
838.406	24502
838.544	24342
838.681	24235
838.819	24216
838.956	23893
839.094	24038
839.231	24068
839.369	24129
839.506	24372
839.643	24372
839.781	24057
839.918	24041
840.055	24007
840.193	24034
840.33	23980
840.467	23961
840.604	23954
840.742	24072
840.879	23901
841.016	23912
841.153	23843
841.29	24076
841.427	23874
841.564	23920
841.701	23946
841.838	23931
841.975	23855
842.112	23817
842.249	23661
842.385	23714
842.522	23908
842.659	23741
842.796	23748
842.933	23627
843.069	23707
843.206	23577
843.343	23718
843.479	23771
843.616	23745
843.752	23448
843.889	23604
844.025	23646
844.162	23452
844.298	23611
844.435	23608
844.571	23402
844.708	23505
844.844	23642
844.98	23615
845.117	23573
845.253	23417
845.389	23345
845.525	23440
845.661	23311
845.798	23136
845.934	23140
846.07	23136
846.206	23349
846.342	23178
846.478	23181
846.614	23006
846.75	22828
846.886	22911
847.022	23090
847.158	22957
847.294	22877
847.429	22942
847.565	22877
847.701	23204
847.837	22523
847.972	22668
848.108	22881
848.244	22793
848.379	22550
848.515	22702
848.65	22474
848.786	22531
848.921	22554
849.057	22557
849.192	22622
849.328	22481
849.463	22634
849.598	22557
849.734	22440
849.869	22344
850.004	22284
850.14	22284
850.275	22268
850.41	22261
850.545	22181
850.68	22112
850.815	22268
850.95	22322
851.085	22546
851.22	22371
851.355	22306
851.49	22280
851.625	22318
851.76	22147
851.895	22173
852.03	22207
852.165	22249
852.299	22394
852.434	22413
852.569	22337
852.703	22295
852.838	22318
852.973	22542
853.107	22470
853.242	22325
853.376	22067
853.511	21972
853.645	22101
853.78	22230
853.914	22177
854.048	22143
854.183	22074
854.317	22017
854.451	22310
854.585	22196
854.72	22093
854.854	22181
854.988	21972
855.122	22063
855.256	21987
855.39	22078
855.524	22162
855.658	22154
855.792	22124
855.926	22246
856.06	22162
856.194	22143
856.327	22242
856.461	22063
856.595	22101
856.729	22101
856.862	22166
856.996	22093
857.13	22128
857.263	22207
857.397	22207
857.53	22200
857.664	22147
857.797	22078
857.931	22268
858.064	22177
858.197	22246
858.331	22070
858.464	22112
858.597	22029
858.731	22074
858.864	22048
858.997	22093
859.13	21991
859.263	22185
859.396	22215
859.529	22112
859.662	22116
859.795	22006
859.928	22135
860.061	22344
860.194	22291
860.327	22242
860.46	22078
860.592	22253
860.725	22226
860.858	22215
860.99	22169
861.123	22109
861.256	21994
861.388	22093
861.521	22923
861.653	22055
861.786	21865
861.918	21911
862.05	21983
862.183	22120
862.315	22029
862.447	22040
862.58	21998
862.712	21751
862.844	21755
862.976	21865
863.108	21918
863.24	22306
863.372	21728
863.504	21682
863.636	21736
863.768	21755
863.9	21785
864.032	21728
864.164	21720
864.296	21762
864.428	21934
864.559	21895
864.691	21880
864.823	21918
864.954	21762
865.086	21865
865.217	21774
865.349	21682
865.48	21701
865.612	21644
865.743	21823
865.875	21644
866.006	21606
866.137	21709
866.269	21720
866.4	21652
866.531	21469
866.662	21583
866.793	21587
866.924	21660
867.055	21652
867.186	21576
867.317	21564
867.448	21424
867.579	21530
867.71	21549
867.841	21694
867.972	21606
868.103	21538
868.233	21656
868.364	21534
868.495	21667
868.625	21934
868.756	21972
868.886	21781
869.017	21854
869.147	21918
869.278	22112
869.408	21857
869.539	21953
869.669	21888
869.799	21823
869.929	21987
870.06	21994
870.19	22196
870.32	22067
870.45	22272
870.58	22158
870.71	22303
870.84	22306
870.97	22284
871.1	22276
871.23	22455
871.36	22363
871.489	22440
871.619	22470
871.749	22447
871.879	22382
872.008	22512
872.138	22516
872.267	22470
872.397	22325
872.526	22280
872.656	22211
872.785	22287
872.915	22478
873.044	22542
873.173	22455
873.303	22478
873.432	22493
873.561	22546
873.69	22474
873.819	22527
873.948	22630
874.077	22500
874.206	22478
874.335	22481
874.464	22599
874.593	22805
874.722	22672
874.851	22580
874.979	22744
875.108	22774
875.237	22641
875.365	22592
875.494	22596
875.623	22710
875.751	22565
875.88	22748
876.008	22675
876.136	22953
876.265	22999
876.393	23147
876.521	23166
876.65	23170
876.778	23079
876.906	22995
877.034	22984
877.162	23128
877.29	22953
877.418	23113
877.546	23010
877.674	23033
877.802	22991
877.93	23102
878.058	23010
878.185	22957
878.313	22995
878.441	23033
878.568	22908
878.696	22961
878.824	23105
878.951	23079
879.079	23151
879.206	23147
879.333	23098
879.461	22999
879.588	23181
879.715	23140
879.842	23140
879.97	23143
880.097	22793
880.224	22949
880.351	22847
880.478	22843
880.605	22786
880.732	22774
880.859	23060
880.986	22729
881.112	22812
881.239	22702
881.366	22519
881.493	22405
881.619	22485
881.746	22504
881.872	22478
881.999	22348
882.125	22299
882.252	22436
882.378	22337
882.505	22428
882.631	22303
882.757	22131
882.883	22204
883.01	22025
883.136	22029
883.262	21930
883.388	21922
883.514	22059
883.64	22257
883.766	21972
883.892	21797
884.018	21835
884.143	21994
884.269	22150
884.395	21831
884.52	21724
884.646	21660
884.772	21671
884.897	21542
885.023	21766
885.148	21861
885.274	21899
885.399	21857
885.524	21827
885.65	21686
885.775	21808
885.9	21591
886.025	21831
886.15	21831
886.275	21633
886.4	21690
886.525	21663
886.65	21751
886.775	21694
886.9	21743
887.025	21991
887.149	21713
887.274	21675
887.399	21370
887.523	21492
887.648	21382
887.773	21283
887.897	21485
888.021	21648
888.146	21542
888.27	21561
888.395	21530
888.519	21447
888.643	21485
888.767	21500
888.891	21363
889.015	21389
889.139	21306
889.263	21256
889.387	21306
889.511	21542
889.635	21359
889.759	21260
889.883	21313
890.006	21275
890.13	21374
890.254	21116
890.377	21207
890.501	21051
890.624	21112
890.748	21024
890.871	20948
890.995	20868
891.118	20838
891.241	20838
891.364	20853
891.488	20948
891.611	20804
891.734	20982
891.857	20925
891.98	20895
892.103	20891
892.226	20804
892.349	20746
892.471	20556
892.594	20811
892.717	20735
892.839	20796
892.962	20834
893.085	20811
893.207	20743
893.33	20689
893.452	20640
893.575	20769
893.697	20678
893.819	20819
893.941	20807
894.064	20929
894.186	20765
894.308	20678
894.43	20716
894.552	20857
894.674	20750
894.796	20541
894.918	20667
895.04	20636
895.161	20674
895.283	20689
895.405	20613
895.526	20777
895.648	20693
895.769	20758
895.891	20777
896.012	20891
896.134	20773
896.255	20686
896.376	20629
896.498	20682
896.619	20777
896.74	20689
896.861	20815
896.982	20941
897.103	21150
897.224	20941
897.345	20948
897.466	20899
897.587	20914
897.708	21066
897.828	20910
897.949	20769
898.07	20796
898.19	20902
898.311	20941
898.431	20883
898.552	20906
898.672	20845
898.792	20864
898.913	20895
899.033	20842
899.153	20625
899.273	20632
899.393	20598
899.513	20682
899.633	20514
899.753	20697
899.873	20564
899.993	20792
900.113	20518
900.232	20686
900.352	20549
900.472	20526
900.591	20415
900.711	20518
900.83	20355
900.95	20499
901.069	20450
901.189	20294
901.308	20100
901.427	19894
901.546	20001
901.665	20069
901.784	20001
901.904	19868
902.023	19784
902.141	19605
902.26	19457
902.379	19647
902.498	19499
902.617	19464
902.735	19552
902.854	19502
902.973	19502
903.091	19133
903.21	19137
903.328	19247
903.446	18973
903.565	19031
903.683	18810
903.801	18871
903.919	18909
904.038	18916
904.156	18692
904.274	18821
904.392	18688
904.51	18734
904.627	18635
904.745	18707
904.863	18840
904.981	18441
905.098	18395
905.216	18410
905.334	18441
905.451	18388
905.569	18403
905.686	18296
905.803	18388
905.921	18155
906.038	18228
906.155	18258
906.272	18030
906.389	18083
906.506	17996
906.623	18030
906.74	17897
906.857	17851
906.974	17832
907.091	17954
907.208	17980
907.324	17843
907.441	17798
907.557	17691
907.674	17680
907.79	17630
907.907	17585
908.023	17657
908.139	17558
908.256	17600
908.372	17512
908.488	17558
908.604	17406
908.72	17356
908.836	17368
908.952	17277
909.068	17398
909.184	17440
909.3	17383
909.415	17395
909.531	17318
909.647	17132
909.762	17128
909.878	16972
909.993	17037
910.108	17079
910.224	16923
910.339	17045
910.454	16835
910.57	16900
910.685	16782
910.8	17006
910.915	17010
911.03	16812
911.145	16618
911.259	16599
911.374	16550
911.489	16603
911.604	16489
911.718	16447
911.833	16394
911.947	16417
912.062	16253
912.176	16402
912.291	16348
912.405	16421
912.519	16531
912.633	16512
912.748	16421
912.862	16299
912.976	16257
913.09	16025
913.204	16154
913.318	16230
913.431	16322
913.545	16394
913.659	16325
913.772	16242
913.886	16036
914	16017
914.113	16116
914.226	16128
914.34	16029
914.453	15880
914.566	15991
914.68	15907
914.793	15816
914.906	15816
915.019	15656
915.132	15504
915.245	15633
915.358	15580
915.47	15515
915.583	15648
915.696	15599
915.809	15701
915.921	15759
916.034	15599
916.146	15488
916.259	15488
916.371	15450
916.483	15568
916.595	15351
916.708	15412
916.82	15348
916.932	15336
917.044	15477
917.156	15363
917.268	15192
917.38	15317
917.491	15256
917.603	15245
917.715	15233
917.826	15363
917.938	15165
918.049	15036
918.161	15252
918.272	15393
918.384	15329
918.495	15203
918.606	15024
918.717	14902
918.828	14975
918.939	15013
919.05	14876
919.161	15043
919.272	14743
919.383	14788
919.494	15055
919.604	15112
919.715	15077
919.826	14830
919.936	14906
920.047	15024
920.157	15058
920.267	15131
920.378	14937
920.488	14941
920.598	15184
920.708	15249
920.818	15062
920.928	15173
921.038	15230
921.148	15131
921.258	14857
921.368	14872
921.477	14739
921.587	14655
921.697	14541
921.806	14682
921.916	14514
922.025	14324
922.134	14332
922.244	14233
922.353	14400
922.462	14221
922.571	14077
922.68	14039
922.789	13974
922.898	13906
923.007	13856
923.116	14012
923.224	13879
923.333	13864
923.442	13822
923.55	13723
923.659	13807
923.767	13818
923.876	13734
923.984	13746
924.092	13681
924.201	13750
924.309	13670
924.417	13685
924.525	13639
924.633	13605
924.741	14484
924.849	13487
924.956	13597
925.064	13422
925.172	13285
925.279	13403
925.387	13343
925.494	13316
925.602	13422
925.709	13346
925.816	13263
925.924	13270
926.031	13411
926.138	13377
926.245	13384
926.352	13164
926.459	13419
926.566	13240
926.673	13198
926.779	13107
926.886	12970
926.993	12871
927.099	12882
927.206	12852
927.312	12859
927.419	12954
927.525	12882
927.631	12989
927.737	12726
927.843	12722
927.95	12738
928.056	12650
928.162	12673
928.267	12734
928.373	13339
928.479	12768
928.585	12517
928.69	12654
928.796	12642
928.901	12589
929.007	12395
929.112	12566
929.218	12551
929.323	12433
929.428	12365
929.533	12544
929.638	12429
929.743	12346
929.848	12464
929.953	12410
930.058	12300
930.163	12182
930.267	12030
930.372	12194
930.477	12034
930.581	12319
930.685	12125
930.79	12038
930.894	12003
930.998	11942
931.103	12133
931.207	11760
931.311	11592
931.415	11532
931.519	11387
931.623	11353
