Data from test_V78500241_2877.txt Node
Date: Fri Mar 25 15:29:53 CST 2022
User: usil
Spectrometer: V785-0024
Trigger mode: 0
Integration Time (sec): 4.000000E-1
Scans to average: 1
Nonlinearity correction enabled: false
Boxcar width: 0
Storing dark spectrum: false
XAxis mode: Wavelengths
Number of Pixels in Spectrum: 1024
>>>>>Begin Spectral Data<<<<<
801.071	27332
801.214	27123
801.356	26940
801.499	26921
801.641	26849
801.783	26750
801.926	26796
802.068	26765
802.211	26636
802.353	26549
802.496	26457
802.638	26457
802.78	26476
802.923	26404
803.065	26282
803.208	26404
803.35	26298
803.492	26560
803.635	26609
803.777	26495
803.919	26552
804.061	26910
804.204	26651
804.346	26499
804.488	26374
804.63	26465
804.773	26541
804.915	26674
805.057	26526
805.199	26476
805.341	26617
805.483	26697
805.626	26602
805.768	26590
805.91	26621
806.052	26796
806.194	26549
806.336	26727
806.478	26659
806.62	26735
806.762	26830
806.904	26830
807.046	27233
807.188	27127
807.33	27058
807.472	27108
807.614	27081
807.756	27112
807.898	26902
808.04	26792
808.182	26849
808.324	26971
808.465	26967
808.607	27195
808.749	27256
808.891	27291
809.033	27485
809.174	27443
809.316	27466
809.458	27169
809.6	27222
809.741	27481
809.883	27431
810.025	27580
810.166	27462
810.308	27625
810.45	27622
810.591	27416
810.733	27287
810.875	27192
811.016	27245
811.158	27245
811.299	27408
811.441	27488
811.582	27431
811.724	27306
811.865	27252
812.007	27264
812.148	27245
812.29	27157
812.431	27435
812.573	27538
812.714	27660
812.855	27876
812.997	27766
813.138	27960
813.279	27842
813.421	27679
813.562	27751
813.703	27622
813.845	27416
813.986	27184
814.127	26994
814.268	27104
814.41	26842
814.551	26857
814.692	26956
814.833	26887
814.974	26925
815.115	26960
815.256	26735
815.397	26804
815.539	26781
815.68	26739
815.821	26629
815.962	26655
816.103	26750
816.244	26625
816.385	26549
816.526	26499
816.666	26362
816.807	26142
816.948	26381
817.089	26358
817.23	26161
817.371	26168
817.512	26138
817.653	26062
817.793	26191
817.934	26176
818.075	26122
818.216	26267
818.356	26145
818.497	26027
818.638	25917
818.778	25925
818.919	26016
819.06	26115
819.2	25963
819.341	26149
819.481	26256
819.622	26298
819.762	26518
819.903	26526
820.043	26298
820.184	26362
820.324	26366
820.465	26396
820.605	26256
820.746	26271
820.886	26122
821.026	26229
821.167	26339
821.307	26278
821.447	26183
821.588	26008
821.728	26027
821.868	25765
822.008	25704
822.149	25582
822.289	25510
822.429	25392
822.569	25297
822.709	25285
822.849	25202
822.99	25050
823.13	25080
823.27	25122
823.41	24916
823.55	24806
823.69	25012
823.83	24989
823.97	24806
824.11	24802
824.25	24703
824.389	24757
824.529	24856
824.669	24806
824.809	24939
824.949	24745
825.089	24947
825.228	24878
825.368	24620
825.508	24642
825.648	24669
825.787	24642
825.927	24658
826.067	24623
826.206	24700
826.346	24829
826.485	24642
826.625	24783
826.765	24821
826.904	24669
827.044	24536
827.183	24388
827.323	24353
827.462	24395
827.601	24410
827.741	24407
827.88	24517
828.02	24266
828.159	24433
828.298	24365
828.437	24369
828.577	24281
828.716	24395
828.855	24270
828.994	24041
829.134	23999
829.273	24171
829.412	24022
829.551	23901
829.69	23950
829.829	24201
829.968	24083
830.107	24171
830.246	24178
830.385	23984
830.524	24030
830.663	23954
830.802	23885
830.941	23733
831.08	23695
831.219	23832
831.357	23752
831.496	23870
831.635	23783
831.774	23657
831.913	23573
832.051	23528
832.19	23387
832.329	23547
832.467	23315
832.606	23376
832.744	23296
832.883	23326
833.022	23341
833.16	23395
833.299	23383
833.437	23417
833.576	23448
833.714	23349
833.852	23391
833.991	23497
834.129	23376
834.267	23630
834.406	23501
834.544	23512
834.682	23497
834.821	23330
834.959	23649
835.097	23417
835.235	23395
835.373	23398
835.511	23296
835.65	23174
835.788	23284
835.926	23132
836.064	23052
836.202	23166
836.34	23273
836.478	23356
836.615	23360
836.753	23227
836.891	23334
837.029	23258
837.167	23140
837.305	23071
837.443	23018
837.58	23109
837.718	23200
837.856	23056
837.993	22995
838.131	23037
838.269	23010
838.406	22980
838.544	22984
838.681	22698
838.819	22645
838.956	22535
839.094	22569
839.231	22611
839.369	22839
839.506	22896
839.643	22850
839.781	22580
839.918	22588
840.055	22584
840.193	22592
840.33	22310
840.467	22531
840.604	22599
840.742	22790
840.879	22295
841.016	22375
841.153	22443
841.29	22649
841.427	22580
841.564	22519
841.701	22390
841.838	22538
841.975	22413
842.112	22440
842.249	22382
842.385	22428
842.522	22432
842.659	22413
842.796	22272
842.933	22143
843.069	22158
843.206	22219
843.343	22348
843.479	22246
843.616	22242
843.752	22051
843.889	21998
844.025	22131
844.162	21998
844.298	22017
844.435	21968
844.571	21945
844.708	22063
844.844	22059
844.98	22158
845.117	22093
845.253	21949
845.389	21911
845.525	22029
845.661	21835
845.798	21774
845.934	21930
846.07	21728
846.206	21720
846.342	21842
846.478	21762
846.614	21595
846.75	21511
846.886	21496
847.022	21519
847.158	21469
847.294	21564
847.429	21416
847.565	21481
847.701	21781
847.837	21203
847.972	21154
848.108	21443
848.244	21279
848.379	21173
848.515	21077
848.65	21085
848.786	21077
848.921	21058
849.057	21233
849.192	21203
849.328	21169
849.463	21077
849.598	21104
849.734	21036
849.869	20781
850.004	20921
850.14	20971
850.275	20785
850.41	20834
850.545	20670
850.68	20880
850.815	20906
850.95	20921
851.085	21051
851.22	20880
851.355	20819
851.49	20712
851.625	20785
851.76	20876
851.895	20914
852.03	20796
852.165	20838
852.299	20864
852.434	20944
852.569	20979
852.703	20960
852.838	20899
852.973	21051
853.107	20899
853.242	20743
853.376	20689
853.511	20488
853.645	20731
853.78	20815
853.914	20667
854.048	20693
854.183	20686
854.317	20739
854.451	20895
854.585	20655
854.72	20705
854.854	20830
854.988	20640
855.122	20705
855.256	20644
855.39	20659
855.524	20708
855.658	20773
855.792	20705
855.926	20758
856.06	20800
856.194	20804
856.327	20773
856.461	20697
856.595	20560
856.729	20712
856.862	20731
856.996	20762
857.13	20739
857.263	20712
857.397	20716
857.53	20644
857.664	20762
857.797	20743
857.931	20746
858.064	20640
858.197	20823
858.331	20674
858.464	20629
858.597	20583
858.731	20640
858.864	20651
858.997	20564
859.13	20682
859.263	20686
859.396	20826
859.529	20606
859.662	20659
859.795	20701
859.928	20644
860.061	20769
860.194	20876
860.327	20880
860.46	20663
860.592	20941
860.725	20937
860.858	20788
860.99	20598
861.123	20583
861.256	20594
861.388	20663
861.521	21393
861.653	20594
861.786	20450
861.918	20579
862.05	20495
862.183	20495
862.315	20655
862.447	20621
862.58	20568
862.712	20438
862.844	20404
862.976	20522
863.108	20545
863.24	20853
863.372	20294
863.504	20427
863.636	20396
863.768	20419
863.9	20431
864.032	20282
864.164	20328
864.296	20431
864.428	20454
864.559	20442
864.691	20377
864.823	20400
864.954	20465
865.086	20404
865.217	20221
865.349	20263
865.48	20290
865.612	20309
865.743	20469
865.875	20309
866.006	20233
866.137	20206
866.269	20259
866.4	20263
866.531	20187
866.662	20168
866.793	20282
866.924	20202
867.055	20328
867.186	20138
867.317	20275
867.448	20092
867.579	20214
867.71	20225
867.841	20088
867.972	20347
868.103	20313
868.233	20210
868.364	20271
868.495	20324
868.625	20514
868.756	20537
868.886	20278
869.017	20541
869.147	20514
869.278	20663
869.408	20450
869.539	20454
869.669	20530
869.799	20568
869.929	20602
870.06	20590
870.19	20792
870.32	20705
870.45	20800
870.58	20902
870.71	20994
870.84	20937
870.97	20891
871.1	20929
871.23	21051
871.36	21135
871.489	20918
871.619	20963
871.749	21039
871.879	21009
872.008	21173
872.138	21020
872.267	21142
872.397	20921
872.526	20925
872.656	20902
872.785	20876
872.915	21089
873.044	21180
873.173	21036
873.303	21199
873.432	21077
873.561	21218
873.69	21214
873.819	21112
873.948	21241
874.077	21199
874.206	21070
874.335	21085
874.464	21359
874.593	21313
874.722	21306
874.851	21378
874.979	21439
875.108	21507
875.237	21317
875.365	21260
875.494	21199
875.623	21374
875.751	21321
875.88	21424
876.008	21412
876.136	21557
876.265	21713
876.393	21823
876.521	21812
876.65	21759
876.778	21709
876.906	21698
877.034	21637
877.162	21736
877.29	21739
877.418	21751
877.546	21682
877.674	21747
877.802	21572
877.93	21656
878.058	21709
878.185	21443
878.313	21736
878.441	21618
878.568	21447
878.696	21622
878.824	21751
878.951	21766
879.079	21713
879.206	21899
879.333	21816
879.461	21701
879.588	21835
879.715	21911
879.842	21941
879.97	21770
880.097	21568
880.224	21549
880.351	21439
880.478	21511
880.605	21458
880.732	21549
880.859	21622
880.986	21454
881.112	21564
881.239	21310
881.366	21275
881.493	21173
881.619	21047
881.746	20994
881.872	21154
881.999	20986
882.125	21024
882.252	21066
882.378	21077
882.505	21165
882.631	20967
882.757	20788
882.883	20864
883.01	20773
883.136	20678
883.262	20579
883.388	20682
883.514	20819
883.64	20834
883.766	20762
883.892	20617
884.018	20705
884.143	20746
884.269	20921
884.395	20545
884.52	20393
884.646	20499
884.772	20454
884.897	20393
885.023	20457
885.148	20419
885.274	20530
885.399	20476
885.524	20473
885.65	20484
885.775	20507
885.9	20358
886.025	20552
886.15	20518
886.275	20294
886.4	20355
886.525	20431
886.65	20362
886.775	20233
886.9	20583
887.025	20674
887.149	20423
887.274	20339
887.399	20275
887.523	20069
887.648	20259
887.773	20134
887.897	20339
888.021	20233
888.146	20142
888.27	20290
888.395	20343
888.519	20187
888.643	20122
888.767	20286
888.891	20062
889.015	19921
889.139	20168
889.263	20035
889.387	20221
889.511	20161
889.635	20122
889.759	20054
889.883	20115
890.006	20043
890.13	20115
890.254	19959
890.377	19989
890.501	19871
890.624	19784
890.748	19845
890.871	19693
890.995	19499
891.118	19571
891.241	19616
891.364	19567
891.488	19818
891.611	19655
891.734	19624
891.857	19681
891.98	19575
892.103	19601
892.226	19601
892.349	19510
892.471	19441
892.594	19438
892.717	19514
892.839	19582
892.962	19537
893.085	19632
893.207	19639
893.33	19499
893.452	19453
893.575	19635
893.697	19480
893.819	19830
893.941	19689
894.064	19727
894.186	19407
894.308	19495
894.43	19628
894.552	19704
894.674	19571
894.796	19312
894.918	19365
895.04	19590
895.161	19552
895.283	19613
895.405	19476
895.526	19567
895.648	19556
895.769	19434
895.891	19499
896.012	19533
896.134	19582
896.255	19525
896.376	19529
896.498	19540
896.619	19567
896.74	19483
896.861	19639
896.982	19826
897.103	19898
897.224	19757
897.345	19734
897.466	19597
897.587	19791
897.708	19883
897.828	19704
897.949	19677
898.07	19616
898.19	19700
898.311	19879
898.431	19677
898.552	19761
898.672	19868
898.792	19738
898.913	19818
899.033	19605
899.153	19590
899.273	19445
899.393	19563
899.513	19590
899.633	19590
899.753	19563
899.873	19419
899.993	19457
900.113	19495
900.232	19525
900.352	19548
900.472	19346
900.591	19247
900.711	19403
900.83	19194
900.95	19460
901.069	19407
901.189	19168
901.308	19031
901.427	18840
901.546	18913
901.665	18977
901.784	18863
901.904	18886
902.023	18738
902.141	18532
902.26	18486
902.379	18620
902.498	18452
902.617	18456
902.735	18429
902.854	18410
902.973	18391
903.091	18117
903.21	18098
903.328	18045
903.446	17920
903.565	17893
903.683	17904
903.801	17866
903.919	17897
904.038	17817
904.156	17680
904.274	17722
904.392	17680
904.51	17680
904.627	17695
904.745	17817
904.863	17783
904.981	17638
905.098	17391
905.216	17280
905.334	17360
905.451	17376
905.569	17376
905.686	17277
905.803	17337
905.921	17216
906.038	17189
906.155	17151
906.272	17045
906.389	17079
906.506	16915
906.623	16889
906.74	16911
906.857	16672
906.974	16729
907.091	16938
907.208	16972
907.324	16934
907.441	16790
907.557	16527
907.674	16470
907.79	16607
907.907	16542
908.023	16634
908.139	16660
908.256	16519
908.372	16481
908.488	16470
908.604	16402
908.72	16242
908.836	16344
908.952	16333
909.068	16352
909.184	16459
909.3	16341
909.415	16299
909.531	16394
909.647	16181
909.762	16135
909.878	16021
909.993	16120
910.108	15937
910.224	15903
910.339	15994
910.454	15926
910.57	15899
910.685	15865
910.8	16097
910.915	15934
911.03	15888
911.145	15717
911.259	15743
911.374	15656
911.489	15675
911.604	15545
911.718	15374
911.833	15473
911.947	15431
912.062	15283
912.176	15405
912.291	15447
912.405	15408
912.519	15599
912.633	15561
912.748	15435
912.862	15416
912.976	15245
913.09	15104
913.204	15184
913.318	15302
913.431	15302
913.545	15268
913.659	15287
913.772	15150
913.886	15039
914	15074
914.113	15093
914.226	15146
914.34	15009
914.453	14941
914.566	15005
914.68	14792
914.793	14781
914.906	14712
915.019	14716
915.132	14594
915.245	14708
915.358	14598
915.47	14705
915.583	14598
915.696	14610
915.809	14731
915.921	14785
916.034	14552
916.146	14667
916.259	14473
916.371	14651
916.483	14541
916.595	14442
916.708	14549
916.82	14530
916.932	14446
917.044	14423
917.156	14450
917.268	14362
917.38	14328
917.491	14317
917.603	14393
917.715	14400
917.826	14415
917.938	14275
918.049	14187
918.161	14290
918.272	14324
918.384	14381
918.495	14206
918.606	14073
918.717	14092
918.828	14024
918.939	14134
919.05	13921
919.161	14103
919.272	13837
919.383	13887
919.494	14142
919.604	14195
919.715	14043
919.826	14008
919.936	14062
920.047	14153
920.157	14031
920.267	14191
920.378	14088
920.488	14005
920.598	14221
920.708	14358
920.818	14130
920.928	14202
921.038	14358
921.148	14305
921.258	14058
921.368	13967
921.477	13761
921.587	13776
921.697	13651
921.806	13769
921.916	13632
922.025	13521
922.134	13419
922.244	13415
922.353	13460
922.462	13441
922.571	13213
922.68	13107
922.789	13149
922.898	13103
923.007	13118
923.116	13110
923.224	13114
923.333	13091
923.442	12977
923.55	12928
923.659	12985
923.767	13050
923.876	12909
923.984	12973
924.092	12741
924.201	12958
924.309	12817
924.417	12875
924.525	12757
924.633	12722
924.741	13731
924.849	12654
924.956	12669
925.064	12623
925.172	12544
925.279	12509
925.387	12578
925.494	12574
925.602	12616
925.709	12604
925.816	12399
925.924	12627
926.031	12608
926.138	12365
926.245	12445
926.352	12426
926.459	12513
926.566	12582
926.673	12486
926.779	12254
926.886	12281
926.993	12239
927.099	12155
927.206	12072
927.312	12091
927.419	12110
927.525	12083
927.631	12197
927.737	11996
927.843	11912
927.95	11885
928.056	11889
928.162	12011
928.267	12015
928.373	12601
928.479	12049
928.585	11737
928.69	11984
928.796	11946
928.901	11859
929.007	11699
929.112	11847
929.218	11745
929.323	11722
929.428	11619
929.533	11802
929.638	11661
929.743	11623
929.848	11764
929.953	11668
930.058	11459
930.163	11387
930.267	11448
930.372	11566
930.477	11425
930.581	11543
930.685	11440
930.79	11311
930.894	11273
930.998	11334
931.103	11391
931.207	10995
931.311	10938
931.415	10968
931.519	10698
931.623	10637
