Data from test_V78500241_2719.txt Node
Date: Fri Mar 25 15:28:47 CST 2022
User: usil
Spectrometer: V785-0024
Trigger mode: 0
Integration Time (sec): 4.000000E-1
Scans to average: 1
Nonlinearity correction enabled: false
Boxcar width: 0
Storing dark spectrum: false
XAxis mode: Wavelengths
Number of Pixels in Spectrum: 1024
>>>>>Begin Spectral Data<<<<<
801.071	27173
801.214	27245
801.356	26933
801.499	26853
801.641	26659
801.783	26571
801.926	26781
802.068	26670
802.211	26571
802.353	26560
802.496	26412
802.638	26381
802.78	26332
802.923	26434
803.065	26206
803.208	26320
803.35	26511
803.492	26590
803.635	26621
803.777	26347
803.919	26434
804.061	26678
804.204	26640
804.346	26438
804.488	26419
804.63	26480
804.773	26415
804.915	26579
805.057	26644
805.199	26450
805.341	26495
805.483	26575
805.626	26609
805.768	26560
805.91	26629
806.052	26701
806.194	26473
806.336	26804
806.478	26560
806.62	26514
806.762	26750
806.904	26979
807.046	27161
807.188	27051
807.33	27047
807.472	27104
807.614	26891
807.756	26899
807.898	26918
808.04	26811
808.182	26777
808.324	26906
808.465	26796
808.607	27093
808.749	27203
808.891	27332
809.033	27367
809.174	27374
809.316	27093
809.458	27154
809.6	27157
809.741	27321
809.883	27302
810.025	27462
810.166	27359
810.308	27412
810.45	27416
810.591	27344
810.733	27310
810.875	27165
811.016	27108
811.158	27108
811.299	27302
811.441	27416
811.582	27351
811.724	27317
811.865	27093
812.007	27146
812.148	27173
812.29	27104
812.431	27294
812.573	27511
812.714	27614
812.855	27644
812.997	27743
813.138	27846
813.279	27930
813.421	27797
813.562	27587
813.703	27477
813.845	27252
813.986	27161
814.127	26826
814.268	26918
814.41	26796
814.551	26777
814.692	26975
814.833	26804
814.974	26895
815.115	26918
815.256	26834
815.397	26925
815.539	26739
815.68	26575
815.821	26617
815.962	26621
816.103	26640
816.244	26469
816.385	26393
816.526	26377
816.666	26187
816.807	26088
816.948	26214
817.089	26233
817.23	26134
817.371	26058
817.512	26180
817.653	26005
817.793	26088
817.934	25997
818.075	25982
818.216	26073
818.356	26081
818.497	26012
818.638	25837
818.778	25845
818.919	25822
819.06	25932
819.2	25970
819.341	26054
819.481	26119
819.622	26195
819.762	26427
819.903	26450
820.043	26206
820.184	26301
820.324	26191
820.465	26275
820.605	26199
820.746	26134
820.886	26024
821.026	26069
821.167	26172
821.307	26092
821.447	26035
821.588	25993
821.728	25982
821.868	25674
822.008	25563
822.149	25609
822.289	25434
822.429	25388
822.569	25244
822.709	25312
822.849	25141
822.99	25023
823.13	25084
823.27	24939
823.41	24894
823.55	24684
823.69	24905
823.83	24932
823.97	24764
824.11	24673
824.25	24589
824.389	24620
824.529	24738
824.669	24589
824.809	24783
824.949	24764
825.089	24749
825.228	24749
825.368	24471
825.508	24483
825.648	24566
825.787	24551
825.927	24707
826.067	24464
826.206	24566
826.346	24616
826.485	24646
826.625	24544
826.765	24551
826.904	24703
827.044	24395
827.183	24281
827.323	24273
827.462	24262
827.601	24388
827.741	24197
827.88	24308
828.02	24133
828.159	24186
828.298	24148
828.437	24327
828.577	24228
828.716	24289
828.855	24213
828.994	23931
829.134	24034
829.273	24091
829.412	23798
829.551	23904
829.69	23923
829.829	23977
829.968	24190
830.107	24087
830.246	23931
830.385	23897
830.524	23897
830.663	23859
830.802	23684
830.941	23528
831.08	23490
831.219	23760
831.357	23608
831.496	23733
831.635	23623
831.774	23486
831.913	23474
832.051	23368
832.19	23387
832.329	23387
832.467	23189
832.606	23235
832.744	23250
832.883	23246
833.022	23181
833.16	23242
833.299	23277
833.437	23318
833.576	23280
833.714	23379
833.852	23368
833.991	23341
834.129	23395
834.267	23516
834.406	23288
834.544	23433
834.682	23280
834.821	23345
834.959	23387
835.097	23315
835.235	23368
835.373	23360
835.511	23246
835.65	23212
835.788	23166
835.926	23010
836.064	22934
836.202	23041
836.34	23151
836.478	23235
836.615	23098
836.753	23136
836.891	23277
837.029	23147
837.167	23147
837.305	23048
837.443	23022
837.58	23010
837.718	23094
837.856	23090
837.993	22946
838.131	23132
838.269	22801
838.406	22919
838.544	22869
838.681	22713
838.819	22710
838.956	22500
839.094	22455
839.231	22504
839.369	22580
839.506	22862
839.643	22729
839.781	22447
839.918	22485
840.055	22557
840.193	22512
840.33	22424
840.467	22459
840.604	22615
840.742	22596
840.879	22394
841.016	22451
841.153	22386
841.29	22440
841.427	22409
841.564	22455
841.701	22455
841.838	22523
841.975	22280
842.112	22363
842.249	22272
842.385	22147
842.522	22485
842.659	22291
842.796	22280
842.933	22238
843.069	22150
843.206	22215
843.343	22268
843.479	22135
843.616	22268
843.752	21991
843.889	21937
844.025	22131
844.162	21945
844.298	22048
844.435	21884
844.571	22010
844.708	22036
844.844	22059
844.98	22135
845.117	22116
845.253	21846
845.389	21747
845.525	21854
845.661	21800
845.798	21751
845.934	21728
846.07	21682
846.206	21800
846.342	21770
846.478	21682
846.614	21485
846.75	21378
846.886	21378
847.022	21435
847.158	21386
847.294	21458
847.429	21549
847.565	21393
847.701	21652
847.837	21081
847.972	21127
848.108	21252
848.244	21218
848.379	21085
848.515	21055
848.65	21093
848.786	21009
848.921	21051
849.057	21077
849.192	21165
849.328	21070
849.463	21074
849.598	20883
849.734	20910
849.869	20941
850.004	20807
850.14	20792
850.275	20864
850.41	20689
850.545	20708
850.68	20754
850.815	20876
850.95	20819
851.085	20956
851.22	20804
851.355	20689
851.49	20773
851.625	20781
851.76	20648
851.895	20705
852.03	20727
852.165	20887
852.299	20819
852.434	20781
852.569	20792
852.703	20670
852.838	20826
852.973	20792
853.107	20781
853.242	20689
853.376	20655
853.511	20526
853.645	20571
853.78	20762
853.914	20606
854.048	20644
854.183	20564
854.317	20758
854.451	20830
854.585	20613
854.72	20590
854.854	20754
854.988	20583
855.122	20625
855.256	20564
855.39	20594
855.524	20655
855.658	20655
855.792	20579
855.926	20606
856.06	20640
856.194	20659
856.327	20564
856.461	20533
856.595	20465
856.729	20606
856.862	20773
856.996	20667
857.13	20674
857.263	20785
857.397	20826
857.53	20659
857.664	20629
857.797	20617
857.931	20727
858.064	20667
858.197	20773
858.331	20648
858.464	20640
858.597	20457
858.731	20533
858.864	20571
858.997	20507
859.13	20549
859.263	20587
859.396	20746
859.529	20560
859.662	20613
859.795	20625
859.928	20667
860.061	20769
860.194	20750
860.327	20746
860.46	20499
860.592	20674
860.725	20746
860.858	20689
860.99	20629
861.123	20537
861.256	20450
861.388	20682
861.521	21119
861.653	20442
861.786	20454
861.918	20495
862.05	20541
862.183	20693
862.315	20602
862.447	20587
862.58	20495
862.712	20328
862.844	20275
862.976	20347
863.108	20427
863.24	20754
863.372	20385
863.504	20317
863.636	20336
863.768	20400
863.9	20263
864.032	20191
864.164	20286
864.296	20400
864.428	20358
864.559	20446
864.691	20332
864.823	20358
864.954	20183
865.086	20324
865.217	20324
865.349	20100
865.48	20218
865.612	20233
865.743	20404
865.875	20180
866.006	20092
866.137	20111
866.269	20183
866.4	20073
866.531	20240
866.662	20164
866.793	20142
866.924	20183
867.055	20195
867.186	20187
867.317	20168
867.448	19997
867.579	20180
867.71	20145
867.841	20058
867.972	20221
868.103	20153
868.233	20168
868.364	20267
868.495	20256
868.625	20377
868.756	20602
868.886	20351
869.017	20404
869.147	20537
869.278	20518
869.408	20377
869.539	20442
869.669	20560
869.799	20511
869.929	20533
870.06	20530
870.19	20758
870.32	20705
870.45	20849
870.58	20800
870.71	20902
870.84	20792
870.97	20880
871.1	20754
871.23	21066
871.36	21005
871.489	20834
871.619	21032
871.749	21131
871.879	21081
872.008	21093
872.138	20914
872.267	21100
872.397	20944
872.526	20857
872.656	20906
872.785	20887
872.915	21024
873.044	21081
873.173	21112
873.303	21237
873.432	21154
873.561	21154
873.69	21032
873.819	21085
873.948	21138
874.077	21005
874.206	20944
874.335	21020
874.464	21211
874.593	21363
874.722	21256
874.851	21374
874.979	21386
875.108	21340
875.237	21241
875.365	21222
875.494	21252
875.623	21428
875.751	21268
875.88	21310
876.008	21340
876.136	21534
876.265	21774
876.393	21800
876.521	21728
876.65	21770
876.778	21728
876.906	21629
877.034	21701
877.162	21724
877.29	21580
877.418	21622
877.546	21671
877.674	21629
877.802	21606
877.93	21580
878.058	21458
878.185	21587
878.313	21553
878.441	21698
878.568	21431
878.696	21564
878.824	21641
878.951	21724
879.079	21903
879.206	21911
879.333	21831
879.461	21736
879.588	21797
879.715	21869
879.842	21934
879.97	21759
880.097	21481
880.224	21466
880.351	21412
880.478	21454
880.605	21473
880.732	21439
880.859	21785
880.986	21526
881.112	21477
881.239	21374
881.366	21249
881.493	21176
881.619	21150
881.746	21108
881.872	21161
881.999	21039
882.125	21047
882.252	21024
882.378	20971
882.505	21287
882.631	20861
882.757	20785
882.883	20823
883.01	20788
883.136	20762
883.262	20670
883.388	20564
883.514	20750
883.64	20872
883.766	20777
883.892	20571
884.018	20476
884.143	20815
884.269	20868
884.395	20564
884.52	20450
884.646	20476
884.772	20454
884.897	20298
885.023	20457
885.148	20549
885.274	20518
885.399	20549
885.524	20408
885.65	20336
885.775	20450
885.9	20454
886.025	20507
886.15	20419
886.275	20408
886.4	20233
886.525	20423
886.65	20332
886.775	20381
886.9	20495
887.025	20602
887.149	20343
887.274	20317
887.399	20237
887.523	20202
887.648	20202
887.773	20020
887.897	20176
888.021	20282
888.146	20103
888.27	20130
888.395	20248
888.519	20244
888.643	20229
888.767	20214
888.891	20107
889.015	20024
889.139	20005
889.263	19993
889.387	20168
889.511	20164
889.635	20100
889.759	20122
889.883	19932
890.006	20039
890.13	20027
890.254	19860
890.377	19967
890.501	19757
890.624	19769
890.748	19795
890.871	19681
890.995	19563
891.118	19613
891.241	19643
891.364	19662
891.488	19704
891.611	19696
891.734	19445
891.857	19624
891.98	19575
892.103	19632
892.226	19670
892.349	19510
892.471	19438
892.594	19480
892.717	19552
892.839	19620
892.962	19563
893.085	19632
893.207	19605
893.33	19483
893.452	19544
893.575	19544
893.697	19445
893.819	19563
893.941	19689
894.064	19681
894.186	19365
894.308	19381
894.43	19559
894.552	19750
894.674	19518
894.796	19476
894.918	19377
895.04	19537
895.161	19624
895.283	19559
895.405	19476
895.526	19449
895.648	19457
895.769	19430
895.891	19658
896.012	19658
896.134	19693
896.255	19571
896.376	19476
896.498	19457
896.619	19476
896.74	19552
896.861	19624
896.982	19822
897.103	20016
897.224	19780
897.345	19704
897.466	19719
897.587	19734
897.708	19986
897.828	19742
897.949	19647
898.07	19639
898.19	19655
898.311	19868
898.431	19616
898.552	19811
898.672	19791
898.792	19791
898.913	19742
899.033	19521
899.153	19575
899.273	19521
899.393	19533
899.513	19449
899.633	19544
899.753	19609
899.873	19506
899.993	19597
900.113	19438
900.232	19464
900.352	19483
900.472	19312
900.591	19285
900.711	19316
900.83	19232
900.95	19266
901.069	19422
901.189	19190
901.308	19065
901.427	18878
901.546	18913
901.665	19000
901.784	18943
901.904	18722
902.023	18764
902.141	18475
902.26	18407
902.379	18429
902.498	18418
902.617	18342
902.735	18498
902.854	18422
902.973	18338
903.091	18144
903.21	17996
903.328	18163
903.446	17901
903.565	17908
903.683	17988
903.801	17764
903.919	17897
904.038	17813
904.156	17684
904.274	17790
904.392	17581
904.51	17722
904.627	17668
904.745	17733
904.863	17630
904.981	17482
905.098	17326
905.216	17292
905.334	17299
905.451	17254
905.569	17265
905.686	17417
905.803	17421
905.921	17189
906.038	17318
906.155	17181
906.272	17124
906.389	17071
906.506	16904
906.623	17060
906.74	16889
906.857	16736
906.974	16812
907.091	16961
907.208	16938
907.324	16896
907.441	16839
907.557	16622
907.674	16607
907.79	16478
907.907	16588
908.023	16702
908.139	16641
908.256	16432
908.372	16599
908.488	16481
908.604	16356
908.72	16276
908.836	16314
908.952	16204
909.068	16276
909.184	16344
909.3	16371
909.415	16413
909.531	16363
909.647	16143
909.762	15991
909.878	16036
909.993	16105
910.108	16002
910.224	16059
910.339	15911
910.454	15934
910.57	15762
910.685	15793
910.8	16090
910.915	15968
911.03	15850
911.145	15576
911.259	15656
911.374	15641
911.489	15542
911.604	15492
911.718	15332
911.833	15496
911.947	15420
912.062	15264
912.176	15504
912.291	15454
912.405	15378
912.519	15724
912.633	15561
912.748	15458
912.862	15310
912.976	15287
913.09	15062
913.204	15138
913.318	15237
913.431	15363
913.545	15329
913.659	15355
913.772	15214
913.886	15005
914	14963
914.113	15009
914.226	15108
914.34	15081
914.453	14902
914.566	15051
914.68	14899
914.793	14857
914.906	14739
915.019	14663
915.132	14545
915.245	14629
915.358	14674
915.47	14636
915.583	14625
915.696	14636
915.809	14731
915.921	14762
916.034	14549
916.146	14552
916.259	14537
916.371	14575
916.483	14526
916.595	14507
916.708	14533
916.82	14408
916.932	14427
917.044	14457
917.156	14412
917.268	14286
917.38	14347
917.491	14233
917.603	14317
917.715	14423
917.826	14366
917.938	14278
918.049	14123
918.161	14358
918.272	14423
918.384	14454
918.495	14313
918.606	14119
918.717	14058
918.828	14065
918.939	14134
919.05	13986
919.161	13936
919.272	13830
919.383	13951
919.494	14126
919.604	14332
919.715	13940
919.826	13989
919.936	13982
920.047	14111
920.157	14001
920.267	14199
920.378	14077
920.488	14001
920.598	14164
920.708	14282
920.818	14240
920.928	14157
921.038	14328
921.148	14256
921.258	14096
921.368	13883
921.477	13784
921.587	13757
921.697	13719
921.806	13753
921.916	13700
922.025	13438
922.134	13491
922.244	13411
922.353	13487
922.462	13373
922.571	13282
922.68	13137
922.789	13072
922.898	13149
923.007	13107
923.116	13152
923.224	13103
923.333	13000
923.442	12928
923.55	12859
923.659	12924
923.767	12981
923.876	12905
923.984	12924
924.092	12821
924.201	12867
924.309	12878
924.417	12798
924.525	12753
924.633	12768
924.741	13689
924.849	12604
924.956	12635
925.064	12540
925.172	12521
925.279	12563
925.387	12582
925.494	12498
925.602	12688
925.709	12612
925.816	12483
925.924	12544
926.031	12570
926.138	12418
926.245	12536
926.352	12452
926.459	12494
926.566	12608
926.673	12460
926.779	12330
926.886	12224
926.993	12148
927.099	12175
927.206	12117
927.312	12178
927.419	12220
927.525	12102
927.631	12106
927.737	12057
927.843	11988
927.95	11889
928.056	11965
928.162	11961
928.267	12034
928.373	12448
928.479	12087
928.585	11790
928.69	11851
928.796	11965
928.901	11874
929.007	11699
929.112	11805
929.218	11707
929.323	11695
929.428	11657
929.533	11798
929.638	11604
929.743	11691
929.848	11665
929.953	11688
930.058	11512
930.163	11379
930.267	11349
930.372	11463
930.477	11387
930.581	11554
930.685	11440
930.79	11258
930.894	11311
930.998	11227
931.103	11376
931.207	11124
931.311	10892
931.415	10835
931.519	10637
931.623	10626
