Data from test_V78500241_524.txt Node
Date: Fri Mar 25 15:13:30 CST 2022
User: usil
Spectrometer: V785-0024
Trigger mode: 0
Integration Time (sec): 4.000000E-1
Scans to average: 1
Nonlinearity correction enabled: false
Boxcar width: 0
Storing dark spectrum: false
XAxis mode: Wavelengths
Number of Pixels in Spectrum: 1024
>>>>>Begin Spectral Data<<<<<
801.071	27549
801.214	27325
801.356	27184
801.499	27055
801.641	26948
801.783	27058
801.926	27039
802.068	26979
802.211	26857
802.353	26735
802.496	26644
802.638	26568
802.78	26587
802.923	26621
803.065	26575
803.208	26617
803.35	26670
803.492	26689
803.635	26800
803.777	26560
803.919	26800
804.061	27009
804.204	26819
804.346	26838
804.488	26743
804.63	26746
804.773	26659
804.915	26758
805.057	26902
805.199	26720
805.341	26800
805.483	26785
805.626	26857
805.768	26819
805.91	26796
806.052	26788
806.194	26750
806.336	27024
806.478	26849
806.62	26815
806.762	26956
806.904	27233
807.046	27329
807.188	27150
807.33	27291
807.472	27298
807.614	27165
807.756	27108
807.898	27009
808.04	27017
808.182	27127
808.324	27195
808.465	27154
808.607	27355
808.749	27507
808.891	27427
809.033	27656
809.174	27507
809.316	27511
809.458	27557
809.6	27526
809.741	27637
809.883	27549
810.025	27770
810.166	27835
810.308	27751
810.45	27679
810.591	27682
810.733	27618
810.875	27545
811.016	27279
811.158	27313
811.299	27557
811.441	27515
811.582	27542
811.724	27481
811.865	27408
812.007	27389
812.148	27427
812.29	27511
812.431	27618
812.573	27781
812.714	27907
812.855	27972
812.997	28097
813.138	28272
813.279	28078
813.421	28093
813.562	27934
813.703	27835
813.845	27686
813.986	27538
814.127	27291
814.268	27180
814.41	27161
814.551	27009
814.692	27275
814.833	27119
814.974	27104
815.115	27157
815.256	26990
815.397	27062
815.539	26971
815.68	26895
815.821	26857
815.962	26910
816.103	26785
816.244	26906
816.385	26758
816.526	26838
816.666	26549
816.807	26465
816.948	26541
817.089	26712
817.23	26495
817.371	26385
817.512	26427
817.653	26298
817.793	26385
817.934	26404
818.075	26530
818.216	26317
818.356	26286
818.497	26248
818.638	26153
818.778	26111
818.919	26191
819.06	26176
819.2	26229
819.341	26343
819.481	26518
819.622	26651
819.762	26804
819.903	26617
820.043	26621
820.184	26473
820.324	26606
820.465	26545
820.605	26518
820.746	26560
820.886	26419
821.026	26568
821.167	26438
821.307	26514
821.447	26556
821.588	26317
821.728	26332
821.868	26149
822.008	25997
822.149	25769
822.289	25928
822.429	25601
822.569	25567
822.709	25537
822.849	25381
822.99	25327
823.13	25297
823.27	25445
823.41	25247
823.55	25065
823.69	25141
823.83	25282
823.97	25198
824.11	25053
824.25	24981
824.389	25034
824.529	24989
824.669	24916
824.809	25114
824.949	25118
825.089	25213
825.228	25034
825.368	24875
825.508	24954
825.648	24966
825.787	24810
825.927	25034
826.067	24954
826.206	24966
826.346	24856
826.485	24905
826.625	25004
826.765	24943
826.904	24863
827.044	24673
827.183	24703
827.323	24521
827.462	24665
827.601	24612
827.741	24509
827.88	24654
828.02	24433
828.159	24612
828.298	24563
828.437	24585
828.577	24528
828.716	24703
828.855	24479
828.994	24445
829.134	24224
829.273	24384
829.412	24304
829.551	24327
829.69	24273
829.829	24486
829.968	24350
830.107	24342
830.246	24296
830.385	24334
830.524	24228
830.663	24102
830.802	24068
830.941	23836
831.08	23916
831.219	23999
831.357	24034
831.496	24152
831.635	23920
831.774	23870
831.913	23729
832.051	23817
832.19	23722
832.329	23726
832.467	23691
832.606	23558
832.744	23490
832.883	23684
833.022	23570
833.16	23623
833.299	23589
833.437	23710
833.576	23729
833.714	23680
833.852	23680
833.991	23718
834.129	23802
834.267	23863
834.406	23703
834.544	23642
834.682	23691
834.821	23649
834.959	23901
835.097	23497
835.235	23859
835.373	23642
835.511	23703
835.65	23516
835.788	23558
835.926	23433
836.064	23303
836.202	23353
836.34	23577
836.478	23551
836.615	23539
836.753	23493
836.891	23524
837.029	23497
837.167	23589
837.305	23425
837.443	23429
837.58	23478
837.718	23421
837.856	23372
837.993	23337
838.131	23353
838.269	23197
838.406	23360
838.544	23246
838.681	23090
838.819	22999
838.956	22987
839.094	22820
839.231	22923
839.369	22980
839.506	23296
839.643	23113
839.781	22862
839.918	22797
840.055	22820
840.193	22786
840.33	22717
840.467	22831
840.604	22957
840.742	23014
840.879	22675
841.016	22592
841.153	22656
841.29	22797
841.427	22694
841.564	22828
841.701	22782
841.838	22725
841.975	22626
842.112	22809
842.249	22565
842.385	22542
842.522	22721
842.659	22660
842.796	22500
842.933	22622
843.069	22421
843.206	22466
843.343	22519
843.479	22626
843.616	22417
843.752	22234
843.889	22363
844.025	22432
844.162	22333
844.298	22360
844.435	22325
844.571	22280
844.708	22344
844.844	22382
844.98	22466
845.117	22329
845.253	22344
845.389	22158
845.525	22207
845.661	22234
845.798	22078
845.934	21994
846.07	22013
846.206	22097
846.342	22200
846.478	22029
846.614	21850
846.75	21797
846.886	21812
847.022	21842
847.158	21884
847.294	21671
847.429	21808
847.565	21743
847.701	22010
847.837	21526
847.972	21473
848.108	21648
848.244	21713
848.379	21428
848.515	21389
848.65	21252
848.786	21481
848.921	21416
849.057	21462
849.192	21473
849.328	21374
849.463	21397
849.598	21401
849.734	21275
849.869	21317
850.004	21135
850.14	21214
850.275	21051
850.41	21081
850.545	21020
850.68	21135
850.815	21192
850.95	21081
851.085	21252
851.22	21230
851.355	21066
851.49	21005
851.625	21165
851.76	21081
851.895	21074
852.03	20990
852.165	21104
852.299	21195
852.434	21165
852.569	21108
852.703	21043
852.838	21226
852.973	21275
853.107	21154
853.242	21085
853.376	20948
853.511	20921
853.645	20899
853.78	21077
853.914	20899
854.048	20990
854.183	20868
854.317	20990
854.451	21051
854.585	21119
854.72	20998
854.854	21108
854.988	20853
855.122	21039
855.256	20792
855.39	20979
855.524	21028
855.658	21085
855.792	20910
855.926	20918
856.06	21112
856.194	20941
856.327	20895
856.461	20872
856.595	20937
856.729	20963
856.862	21169
856.996	21043
857.13	20979
857.263	21096
857.397	21013
857.53	21020
857.664	20998
857.797	20925
857.931	21093
858.064	20929
858.197	21161
858.331	20952
858.464	20914
858.597	20830
858.731	20910
858.864	20838
858.997	20823
859.13	20967
859.263	21100
859.396	21100
859.529	20998
859.662	20937
859.795	20967
859.928	20899
860.061	21146
860.194	21074
860.327	21089
860.46	21036
860.592	21119
860.725	21081
860.858	21074
860.99	20960
861.123	20823
861.256	20804
861.388	20986
861.521	21698
861.653	20872
861.786	20876
861.918	20670
862.05	20864
862.183	20914
862.315	20868
862.447	20887
862.58	20876
862.712	20750
862.844	20640
862.976	20804
863.108	20823
863.24	20982
863.372	20735
863.504	20644
863.636	20659
863.768	20739
863.9	20682
864.032	20602
864.164	20773
864.296	20682
864.428	20853
864.559	20765
864.691	20872
864.823	20651
864.954	20705
865.086	20682
865.217	20579
865.349	20556
865.48	20598
865.612	20606
865.743	20663
865.875	20507
866.006	20590
866.137	20571
866.269	20492
866.4	20533
866.531	20533
866.662	20511
866.793	20526
866.924	20556
867.055	20438
867.186	20579
867.317	20503
867.448	20450
867.579	20511
867.71	20408
867.841	20442
867.972	20518
868.103	20511
868.233	20358
868.364	20522
868.495	20587
868.625	20697
868.756	20853
868.886	20712
869.017	20857
869.147	20861
869.278	20891
869.408	20838
869.539	20735
869.669	20781
869.799	20849
869.929	20868
870.06	21005
870.19	20982
870.32	21062
870.45	21127
870.58	21127
870.71	21374
870.84	21222
870.97	21116
871.1	21089
871.23	21336
871.36	21310
871.489	21317
871.619	21218
871.749	21249
871.879	21405
872.008	21500
872.138	21332
872.267	21389
872.397	21180
872.526	21173
872.656	21173
872.785	21252
872.915	21363
873.044	21549
873.173	21359
873.303	21408
873.432	21363
873.561	21435
873.69	21306
873.819	21294
873.948	21557
874.077	21428
874.206	21306
874.335	21378
874.464	21443
874.593	21580
874.722	21583
874.851	21732
874.979	21644
875.108	21641
875.237	21576
875.365	21458
875.494	21603
875.623	21618
875.751	21572
875.88	21648
876.008	21789
876.136	21759
876.265	21941
876.393	22162
876.521	21983
876.65	22139
876.778	21987
876.906	21930
877.034	21953
877.162	22006
877.29	21880
877.418	22055
877.546	21857
877.674	21926
877.802	22040
877.93	21831
878.058	21960
878.185	21854
878.313	21983
878.441	21911
878.568	21838
878.696	21953
878.824	22002
878.951	21880
879.079	22090
879.206	22287
879.333	22116
879.461	21987
879.588	21987
879.715	22090
879.842	22188
879.97	22112
880.097	21816
880.224	21747
880.351	21850
880.478	21690
880.605	21698
880.732	21884
880.859	22013
880.986	21823
881.112	21690
881.239	21774
881.366	21610
881.493	21405
881.619	21344
881.746	21348
881.872	21359
881.999	21321
882.125	21237
882.252	21382
882.378	21405
882.505	21370
882.631	21310
882.757	21043
882.883	21165
883.01	21028
883.136	20982
883.262	20857
883.388	20891
883.514	21211
883.64	21199
883.766	20921
883.892	20826
884.018	20796
884.143	21013
884.269	21127
884.395	20754
884.52	20659
884.646	20754
884.772	20655
884.897	20587
885.023	20708
885.148	20956
885.274	20750
885.399	20807
885.524	20663
885.65	20598
885.775	20762
885.9	20655
886.025	20788
886.15	20640
886.275	20644
886.4	20629
886.525	20571
886.65	20678
886.775	20564
886.9	20815
887.025	20864
887.149	20697
887.274	20503
887.399	20495
887.523	20419
887.648	20396
887.773	20328
887.897	20644
888.021	20442
888.146	20495
888.27	20522
888.395	20594
888.519	20545
888.643	20564
888.767	20450
888.891	20412
889.015	20267
889.139	20362
889.263	20248
889.387	20366
889.511	20476
889.635	20336
889.759	20313
889.883	20294
890.006	20400
890.13	20446
890.254	20161
890.377	20240
890.501	20077
890.624	19993
890.748	19989
890.871	19944
890.995	19826
891.118	19757
891.241	19890
891.364	19887
891.488	19967
891.611	19906
891.734	19894
891.857	19928
891.98	19902
892.103	19784
892.226	19871
892.349	19803
892.471	19719
892.594	19826
892.717	19814
892.839	19753
892.962	19696
893.085	19849
893.207	19757
893.33	19712
893.452	19795
893.575	19879
893.697	19696
893.819	19883
893.941	19913
894.064	19898
894.186	19639
894.308	19658
894.43	19833
894.552	19928
894.674	19807
894.796	19662
894.918	19655
895.04	19696
895.161	19913
895.283	19887
895.405	19674
895.526	19719
895.648	19746
895.769	19811
895.891	19765
896.012	19890
896.134	19936
896.255	19746
896.376	19677
896.498	19742
896.619	19807
896.74	19753
896.861	19879
896.982	20138
897.103	20206
897.224	20012
897.345	19951
897.466	19986
897.587	19993
897.708	20031
897.828	20031
897.949	19906
898.07	19765
898.19	19955
898.311	20130
898.431	19940
898.552	20062
898.672	20031
898.792	20012
898.913	19989
899.033	19811
899.153	19913
899.273	19693
899.393	19742
899.513	19666
899.633	19677
899.753	19811
899.873	19540
899.993	19765
900.113	19632
900.232	19715
900.352	19662
900.472	19544
900.591	19457
900.711	19540
900.83	19563
900.95	19647
901.069	19601
901.189	19411
901.308	19278
901.427	18996
901.546	19114
901.665	19133
901.784	19072
901.904	18993
902.023	18878
902.141	18665
902.26	18700
902.379	18741
902.498	18642
902.617	18620
902.735	18669
902.854	18574
902.973	18429
903.091	18315
903.21	18365
903.328	18262
903.446	18266
903.565	18095
903.683	18072
903.801	18030
903.919	18144
904.038	17958
904.156	17912
904.274	18064
904.392	17809
904.51	17893
904.627	17927
904.745	17847
904.863	17866
904.981	17718
905.098	17657
905.216	17547
905.334	17668
905.451	17649
905.569	17543
905.686	17646
905.803	17619
905.921	17299
906.038	17459
906.155	17436
906.272	17296
906.389	17330
906.506	17185
906.623	17006
906.74	17166
906.857	17060
906.974	17045
907.091	17193
907.208	17269
907.324	17121
907.441	17041
907.557	16980
907.674	16767
907.79	16805
907.907	16763
908.023	16896
908.139	16828
908.256	16911
908.372	16649
908.488	16729
908.604	16599
908.72	16519
908.836	16428
908.952	16478
909.068	16489
909.184	16634
909.3	16523
909.415	16596
909.531	16512
909.647	16226
909.762	16348
909.878	16124
909.993	16291
910.108	16363
910.224	16192
910.339	16192
910.454	16032
910.57	16078
910.685	16040
910.8	16341
910.915	16124
911.03	16010
911.145	15873
911.259	15838
911.374	15941
911.489	15762
911.604	15682
911.718	15591
911.833	15633
911.947	15526
912.062	15431
912.176	15561
912.291	15534
912.405	15614
912.519	15663
912.633	15701
912.748	15660
912.862	15576
912.976	15344
913.09	15348
913.204	15355
913.318	15420
913.431	15492
913.545	15523
913.659	15580
913.772	15317
913.886	15332
914	15161
914.113	15256
914.226	15329
914.34	15306
914.453	15165
914.566	15283
914.68	15093
914.793	15195
914.906	15017
915.019	14880
915.132	14864
915.245	14872
915.358	14861
915.47	14781
915.583	14872
915.696	14788
915.809	14948
915.921	14887
916.034	14819
916.146	14804
916.259	14674
916.371	14845
916.483	14781
916.595	14655
916.708	14823
916.82	14693
916.932	14629
917.044	14667
917.156	14587
917.268	14610
917.38	14488
917.491	14446
917.603	14476
917.715	14560
917.826	14556
917.938	14404
918.049	14309
918.161	14366
918.272	14556
918.384	14587
918.495	14438
918.606	14317
918.717	14248
918.828	14271
918.939	14286
919.05	14263
919.161	14298
919.272	14081
919.383	14123
919.494	14286
919.604	14374
919.715	14317
919.826	14229
919.936	14176
920.047	14324
920.157	14240
920.267	14503
920.378	14202
920.488	14149
920.598	14389
920.708	14575
920.818	14427
920.928	14434
921.038	14583
921.148	14484
921.258	14240
921.368	14161
921.477	14065
921.587	14001
921.697	13894
921.806	14020
921.916	13795
922.025	13734
922.134	13643
922.244	13704
922.353	13578
922.462	13468
922.571	13445
922.68	13255
922.789	13225
922.898	13324
923.007	13244
923.116	13396
923.224	13278
923.333	13141
923.442	13091
923.55	13190
923.659	13183
923.767	13149
923.876	13164
923.984	13027
924.092	12951
924.201	13008
924.309	12966
924.417	13004
924.525	12932
924.633	12985
924.741	13723
924.849	12825
924.956	12932
925.064	12726
925.172	12711
925.279	12662
925.387	12681
925.494	12715
925.602	12833
925.709	12745
925.816	12627
925.924	12741
926.031	12738
926.138	12627
926.245	12779
926.352	12528
926.459	12707
926.566	12688
926.673	12589
926.779	12490
926.886	12506
926.993	12361
927.099	12304
927.206	12330
927.312	12213
927.419	12292
927.525	12194
927.631	12346
927.737	12163
927.843	12125
927.95	12117
928.056	12072
928.162	12117
928.267	12133
928.373	12608
928.479	12186
928.585	11904
928.69	12060
928.796	12098
928.901	11901
929.007	11805
929.112	11958
929.218	11946
929.323	11885
929.428	11870
929.533	11901
929.638	11745
929.743	11798
929.848	11805
929.953	11733
930.058	11710
930.163	11585
930.267	11638
930.372	11714
930.477	11452
930.581	11703
930.685	11512
930.79	11459
930.894	11471
930.998	11402
931.103	11535
931.207	11261
931.311	11140
931.415	11048
931.519	10835
931.623	10805
