Data from test_V78500241_2358.txt Node
Date: Fri Mar 25 15:26:16 CST 2022
User: usil
Spectrometer: V785-0024
Trigger mode: 0
Integration Time (sec): 4.000000E-1
Scans to average: 1
Nonlinearity correction enabled: false
Boxcar width: 0
Storing dark spectrum: false
XAxis mode: Wavelengths
Number of Pixels in Spectrum: 1024
>>>>>Begin Spectral Data<<<<<
801.071	27279
801.214	27123
801.356	26979
801.499	27043
801.641	26807
801.783	26815
801.926	26842
802.068	26689
802.211	26804
802.353	26617
802.496	26484
802.638	26484
802.78	26442
802.923	26377
803.065	26336
803.208	26355
803.35	26446
803.492	26469
803.635	26648
803.777	26530
803.919	26560
804.061	26918
804.204	26640
804.346	26522
804.488	26522
804.63	26629
804.773	26560
804.915	26598
805.057	26621
805.199	26495
805.341	26693
805.483	26701
805.626	26754
805.768	26541
805.91	26754
806.052	26651
806.194	26571
806.336	26838
806.478	26727
806.62	26815
806.762	26811
806.904	27039
807.046	27241
807.188	27005
807.33	27142
807.472	27275
807.614	27081
807.756	27062
807.898	27043
808.04	26887
808.182	26868
808.324	26807
808.465	27001
808.607	27055
808.749	27336
808.891	27386
809.033	27530
809.174	27329
809.316	27154
809.458	27279
809.6	27279
809.741	27355
809.883	27344
810.025	27625
810.166	27606
810.308	27545
810.45	27496
810.591	27443
810.733	27294
810.875	27283
811.016	27123
811.158	27237
811.299	27287
811.441	27397
811.582	27450
811.724	27203
811.865	27321
812.007	27241
812.148	27214
812.29	27363
812.431	27443
812.573	27690
812.714	27656
812.855	27694
812.997	27892
813.138	27884
813.279	27895
813.421	27770
813.562	27743
813.703	27606
813.845	27462
813.986	27150
814.127	27138
814.268	26883
814.41	26910
814.551	26864
814.692	27070
814.833	26975
814.974	26765
815.115	26937
815.256	26811
815.397	26857
815.539	26834
815.68	26765
815.821	26648
815.962	26689
816.103	26708
816.244	26549
816.385	26629
816.526	26587
816.666	26195
816.807	26187
816.948	26332
817.089	26210
817.23	26214
817.371	26229
817.512	26294
817.653	26210
817.793	26035
817.934	26092
818.075	26244
818.216	26081
818.356	26210
818.497	26126
818.638	25925
818.778	25875
818.919	25909
819.06	25951
819.2	26065
819.341	26161
819.481	26225
819.622	26320
819.762	26526
819.903	26560
820.043	26389
820.184	26351
820.324	26225
820.465	26252
820.605	26374
820.746	26358
820.886	26107
821.026	26202
821.167	26172
821.307	26347
821.447	26161
821.588	26134
821.728	25982
821.868	25791
822.008	25852
822.149	25677
822.289	25639
822.429	25483
822.569	25483
822.709	25415
822.849	25270
822.99	25202
823.13	25156
823.27	25027
823.41	24977
823.55	24935
823.69	24882
823.83	25012
823.97	24867
824.11	24764
824.25	24726
824.389	24901
824.529	24859
824.669	24798
824.809	24779
824.949	24897
825.089	24760
825.228	24829
825.368	24719
825.508	24536
825.648	24700
825.787	24715
825.927	24726
826.067	24566
826.206	24574
826.346	24620
826.485	24760
826.625	24688
826.765	24665
826.904	24726
827.044	24475
827.183	24566
827.323	24327
827.462	24350
827.601	24426
827.741	24376
827.88	24528
828.02	24239
828.159	24456
828.298	24285
828.437	24399
828.577	24251
828.716	24467
828.855	24391
828.994	24022
829.134	24102
829.273	24060
829.412	24064
829.551	24076
829.69	24049
829.829	24117
829.968	24068
830.107	24148
830.246	24057
830.385	24034
830.524	23950
830.663	23851
830.802	23710
830.941	23752
831.08	23676
831.219	23714
831.357	23851
831.496	23916
831.635	23722
831.774	23573
831.913	23497
832.051	23471
832.19	23501
832.329	23490
832.467	23376
832.606	23372
832.744	23417
832.883	23395
833.022	23387
833.16	23391
833.299	23425
833.437	23448
833.576	23379
833.714	23425
833.852	23474
833.991	23551
834.129	23505
834.267	23402
834.406	23547
834.544	23448
834.682	23455
834.821	23436
834.959	23501
835.097	23391
835.235	23360
835.373	23360
835.511	23349
835.65	23379
835.788	23288
835.926	23242
836.064	23003
836.202	23048
836.34	23303
836.478	23444
836.615	23296
836.753	23322
836.891	23360
837.029	23318
837.167	23254
837.305	23216
837.443	23166
837.58	23102
837.718	23113
837.856	23041
837.993	23064
838.131	22957
838.269	23033
838.406	23010
838.544	22889
838.681	22717
838.819	22729
838.956	22698
839.094	22649
839.231	22687
839.369	22816
839.506	22854
839.643	22847
839.781	22569
839.918	22637
840.055	22535
840.193	22531
840.33	22527
840.467	22512
840.604	22554
840.742	22641
840.879	22451
841.016	22436
841.153	22535
841.29	22603
841.427	22489
841.564	22573
841.701	22440
841.838	22405
841.975	22390
842.112	22436
842.249	22382
842.385	22162
842.522	22390
842.659	22363
842.796	22337
842.933	22280
843.069	22192
843.206	22128
843.343	22363
843.479	22276
843.616	22325
843.752	22040
843.889	22051
844.025	22280
844.162	22006
844.298	22070
844.435	21934
844.571	21953
844.708	22158
844.844	22207
844.98	22181
845.117	22078
845.253	21880
845.389	21838
845.525	21949
845.661	21850
845.798	21793
845.934	21819
846.07	21797
846.206	21827
846.342	21812
846.478	21724
846.614	21568
846.75	21515
846.886	21599
847.022	21549
847.158	21610
847.294	21568
847.429	21538
847.565	21511
847.701	21739
847.837	21374
847.972	21112
848.108	21310
848.244	21310
848.379	21157
848.515	21017
848.65	21203
848.786	21169
848.921	21089
849.057	21062
849.192	21135
849.328	21150
849.463	21058
849.598	20986
849.734	20914
849.869	20883
850.004	20891
850.14	20876
850.275	20895
850.41	20834
850.545	20792
850.68	20849
850.815	20876
850.95	20925
851.085	20960
851.22	20956
851.355	20861
851.49	20830
851.625	20868
851.76	20800
851.895	20758
852.03	20674
852.165	20853
852.299	20739
852.434	20861
852.569	20975
852.703	20921
852.838	20830
852.973	20914
853.107	20979
853.242	20826
853.376	20705
853.511	20651
853.645	20648
853.78	20876
853.914	20712
854.048	20720
854.183	20712
854.317	20686
854.451	20815
854.585	20667
854.72	20640
854.854	20781
854.988	20663
855.122	20644
855.256	20663
855.39	20621
855.524	20781
855.658	20804
855.792	20724
855.926	20617
856.06	20823
856.194	20773
856.327	20746
856.461	20663
856.595	20636
856.729	20674
856.862	20830
856.996	20735
857.13	20823
857.263	20811
857.397	20697
857.53	20758
857.664	20556
857.797	20625
857.931	20864
858.064	20777
858.197	20800
858.331	20708
858.464	20533
858.597	20533
858.731	20678
858.864	20583
858.997	20606
859.13	20629
859.263	20583
859.396	20796
859.529	20743
859.662	20590
859.795	20644
859.928	20644
860.061	20811
860.194	20918
860.327	20785
860.46	20674
860.592	20708
860.725	20842
860.858	20952
860.99	20659
861.123	20552
861.256	20594
861.388	20686
861.521	21241
861.653	20659
861.786	20492
861.918	20400
862.05	20518
862.183	20594
862.315	20651
862.447	20708
862.58	20583
862.712	20522
862.844	20278
862.976	20560
863.108	20514
863.24	20941
863.372	20351
863.504	20339
863.636	20473
863.768	20484
863.9	20522
864.032	20328
864.164	20339
864.296	20522
864.428	20465
864.559	20385
864.691	20541
864.823	20511
864.954	20309
865.086	20393
865.217	20355
865.349	20275
865.48	20336
865.612	20404
865.743	20450
865.875	20358
866.006	20233
866.137	20275
866.269	20324
866.4	20377
866.531	20168
866.662	20290
866.793	20366
866.924	20157
867.055	20206
867.186	20301
867.317	20294
867.448	20168
867.579	20218
867.71	20240
867.841	20180
867.972	20145
868.103	20161
868.233	20180
868.364	20301
868.495	20434
868.625	20564
868.756	20731
868.886	20503
869.017	20530
869.147	20533
869.278	20522
869.408	20476
869.539	20549
869.669	20625
869.799	20495
869.929	20667
870.06	20571
870.19	20762
870.32	20724
870.45	20849
870.58	20914
870.71	21142
870.84	21009
870.97	20895
871.1	20876
871.23	21058
871.36	21119
871.489	21020
871.619	21119
871.749	21188
871.879	21169
872.008	21176
872.138	21165
872.267	21104
872.397	20963
872.526	20857
872.656	20891
872.785	20979
872.915	21142
873.044	21195
873.173	21184
873.303	21249
873.432	21093
873.561	21233
873.69	21089
873.819	21127
873.948	21173
874.077	21047
874.206	21104
874.335	21112
874.464	21260
874.593	21321
874.722	21355
874.851	21450
874.979	21405
875.108	21389
875.237	21272
875.365	21310
875.494	21420
875.623	21424
875.751	21363
875.88	21466
876.008	21523
876.136	21462
876.265	21831
876.393	21876
876.521	21835
876.65	21766
876.778	21857
876.906	21648
877.034	21675
877.162	21663
877.29	21698
877.418	21732
877.546	21770
877.674	21690
877.802	21709
877.93	21679
878.058	21682
878.185	21523
878.313	21618
878.441	21701
878.568	21462
878.696	21519
878.824	21595
878.951	21709
879.079	21827
879.206	21926
879.333	21842
879.461	21816
879.588	21793
879.715	21895
879.842	22173
879.97	21915
880.097	21564
880.224	21485
880.351	21538
880.478	21561
880.605	21496
880.732	21576
880.859	21724
880.986	21443
881.112	21507
881.239	21443
881.366	21329
881.493	21192
881.619	21218
881.746	21169
881.872	21051
881.999	21013
882.125	21058
882.252	21154
882.378	21195
882.505	21180
882.631	21074
882.757	20823
882.883	20876
883.01	20819
883.136	20910
883.262	20792
883.388	20621
883.514	20754
883.64	20834
883.766	20651
883.892	20549
884.018	20674
884.143	20800
884.269	20849
884.395	20533
884.52	20461
884.646	20419
884.772	20412
884.897	20301
885.023	20454
885.148	20594
885.274	20739
885.399	20636
885.524	20492
885.65	20503
885.775	20556
885.9	20431
886.025	20571
886.15	20579
886.275	20469
886.4	20374
886.525	20393
886.65	20396
886.775	20278
886.9	20613
887.025	20781
887.149	20507
887.274	20275
887.399	20286
887.523	20218
887.648	20153
887.773	20176
887.897	20377
888.021	20351
888.146	20191
888.27	20218
888.395	20290
888.519	20210
888.643	20252
888.767	20309
888.891	20084
889.015	20107
889.139	20069
889.263	19970
889.387	20259
889.511	20233
889.635	20153
889.759	19928
889.883	19989
890.006	19989
890.13	20122
890.254	20020
890.377	20020
890.501	19856
890.624	19769
890.748	19826
890.871	19753
890.995	19586
891.118	19510
891.241	19696
891.364	19681
891.488	19742
891.611	19571
891.734	19514
891.857	19681
891.98	19540
892.103	19563
892.226	19677
892.349	19578
892.471	19499
892.594	19403
892.717	19605
892.839	19495
892.962	19476
893.085	19734
893.207	19609
893.33	19453
893.452	19556
893.575	19655
893.697	19487
893.819	19666
893.941	19757
894.064	19567
894.186	19506
894.308	19567
894.43	19772
894.552	19712
894.674	19556
894.796	19445
894.918	19533
895.04	19544
895.161	19635
895.283	19666
895.405	19529
895.526	19662
895.648	19521
895.769	19567
895.891	19586
896.012	19719
896.134	19666
896.255	19510
896.376	19556
896.498	19605
896.619	19597
896.74	19605
896.861	19594
896.982	19879
897.103	20050
897.224	19849
897.345	19822
897.466	19647
897.587	19742
897.708	19894
897.828	19898
897.949	19727
898.07	19727
898.19	19693
898.311	19826
898.431	19731
898.552	19734
898.672	19780
898.792	19890
898.913	19788
899.033	19681
899.153	19674
899.273	19499
899.393	19639
899.513	19460
899.633	19639
899.753	19472
899.873	19556
899.993	19521
900.113	19438
900.232	19544
900.352	19407
900.472	19365
900.591	19263
900.711	19373
900.83	19403
900.95	19453
901.069	19441
901.189	19198
901.308	18996
901.427	18916
901.546	18973
901.665	18989
901.784	18905
901.904	18768
902.023	18623
902.141	18551
902.26	18528
902.379	18570
902.498	18467
902.617	18513
902.735	18445
902.854	18471
902.973	18407
903.091	18182
903.21	18121
903.328	18159
903.446	17954
903.565	18076
903.683	17901
903.801	17824
903.919	18007
904.038	17897
904.156	17760
904.274	17771
904.392	17733
904.51	17733
904.627	17634
904.745	17786
904.863	17764
904.981	17524
905.098	17326
905.216	17368
905.334	17471
905.451	17398
905.569	17395
905.686	17463
905.803	17364
905.921	17124
906.038	17239
906.155	17242
906.272	17109
906.389	17048
906.506	16797
906.623	16885
906.74	16858
906.857	16774
906.974	16778
907.091	16965
907.208	17041
907.324	16953
907.441	16892
907.557	16634
907.674	16599
907.79	16664
907.907	16664
908.023	16683
908.139	16634
908.256	16508
908.372	16500
908.488	16394
908.604	16337
908.72	16363
908.836	16306
908.952	16295
909.068	16272
909.184	16474
909.3	16310
909.415	16489
909.531	16344
909.647	16116
909.762	16013
909.878	15987
909.993	15979
910.108	16032
910.224	15937
910.339	15964
910.454	15907
910.57	15899
910.685	15838
910.8	16078
910.915	16071
911.03	15884
911.145	15660
911.259	15705
911.374	15766
911.489	15633
911.604	15553
911.718	15363
911.833	15450
911.947	15332
912.062	15291
912.176	15469
912.291	15332
912.405	15329
912.519	15549
912.633	15538
912.748	15393
912.862	15306
912.976	15268
913.09	15081
913.204	15146
913.318	15249
913.431	15275
913.545	15214
913.659	15351
913.772	15252
913.886	15108
914	14986
914.113	15165
914.226	15138
914.34	15154
914.453	15039
914.566	15093
914.68	14986
914.793	14944
914.906	14731
915.019	14712
915.132	14610
915.245	14636
915.358	14804
915.47	14632
915.583	14590
915.696	14648
915.809	14773
915.921	14750
916.034	14549
916.146	14568
916.259	14571
916.371	14621
916.483	14575
916.595	14530
916.708	14484
916.82	14571
916.932	14450
917.044	14495
917.156	14305
917.268	14278
917.38	14385
917.491	14309
917.603	14317
917.715	14488
917.826	14423
917.938	14267
918.049	14252
918.161	14290
918.272	14423
918.384	14408
918.495	14256
918.606	14168
918.717	14111
918.828	14176
918.939	14119
919.05	14039
919.161	14149
919.272	13837
919.383	13955
919.494	14107
919.604	14248
919.715	14103
919.826	13970
919.936	14100
920.047	14043
920.157	14126
920.267	14233
920.378	14050
920.488	14016
920.598	14225
920.708	14355
920.818	14210
920.928	14248
921.038	14457
921.148	14252
921.258	14058
921.368	13921
921.477	13841
921.587	13772
921.697	13742
921.806	13811
921.916	13674
922.025	13472
922.134	13426
922.244	13419
922.353	13590
922.462	13400
922.571	13198
922.68	13099
922.789	13137
922.898	13149
923.007	13088
923.116	13114
923.224	13149
923.333	13141
923.442	13057
923.55	12924
923.659	13050
923.767	13004
923.876	12871
923.984	12966
924.092	12886
924.201	12897
924.309	12928
924.417	12810
924.525	12817
924.633	12833
924.741	13742
924.849	12627
924.956	12779
925.064	12555
925.172	12452
925.279	12498
925.387	12540
925.494	12521
925.602	12734
925.709	12566
925.816	12448
925.924	12566
926.031	12639
926.138	12483
926.245	12551
926.352	12376
926.459	12525
926.566	12570
926.673	12448
926.779	12270
926.886	12384
926.993	12159
927.099	12197
927.206	12117
927.312	12030
927.419	12258
927.525	12136
927.631	12114
927.737	11999
927.843	11954
927.95	11859
928.056	11999
928.162	12057
928.267	11931
928.373	12471
928.479	12019
928.585	11840
928.69	11946
928.796	11988
928.901	11840
929.007	11665
929.112	11912
929.218	11737
929.323	11733
929.428	11653
929.533	11904
929.638	11604
929.743	11623
929.848	11554
929.953	11627
930.058	11490
930.163	11433
930.267	11486
930.372	11554
930.477	11337
930.581	11657
930.685	11410
930.79	11330
930.894	11315
930.998	11315
931.103	11440
931.207	11052
931.311	11006
931.415	10866
931.519	10691
931.623	10752
