Data from test_V78500241_1964.txt Node
Date: Fri Mar 25 15:23:32 CST 2022
User: usil
Spectrometer: V785-0024
Trigger mode: 0
Integration Time (sec): 4.000000E-1
Scans to average: 1
Nonlinearity correction enabled: false
Boxcar width: 0
Storing dark spectrum: false
XAxis mode: Wavelengths
Number of Pixels in Spectrum: 1024
>>>>>Begin Spectral Data<<<<<
801.071	27857
801.214	27720
801.356	27507
801.499	27526
801.641	27370
801.783	27260
801.926	27287
802.068	27226
802.211	27249
802.353	27150
802.496	26956
802.638	26948
802.78	27096
802.923	26910
803.065	26689
803.208	26948
803.35	27028
803.492	27138
803.635	27184
803.777	27123
803.919	27241
804.061	27427
804.204	27264
804.346	27161
804.488	26990
804.63	27165
804.773	27161
804.915	27211
805.057	27230
805.199	27169
805.341	27359
805.483	27237
805.626	27154
805.768	27138
805.91	27230
806.052	27321
806.194	27188
806.336	27374
806.478	27329
806.62	27329
806.762	27359
806.904	27538
807.046	27675
807.188	27751
807.33	27663
807.472	27663
807.614	27785
807.756	27660
807.898	27485
808.04	27408
808.182	27485
808.324	27515
808.465	27675
808.607	27831
808.749	27953
808.891	27998
809.033	28002
809.174	27926
809.316	27812
809.458	28006
809.6	27876
809.741	28063
809.883	27888
810.025	28207
810.166	28215
810.308	28162
810.45	28128
810.591	28006
810.733	27865
810.875	27846
811.016	27709
811.158	27743
811.299	27991
811.441	27892
811.582	27998
811.724	27797
811.865	27873
812.007	27869
812.148	27816
812.29	27914
812.431	28101
812.573	28226
812.714	28367
812.855	28287
812.997	28379
813.138	28645
813.279	28577
813.421	28375
813.562	28284
813.703	28162
813.845	27983
813.986	27717
814.127	27705
814.268	27599
814.41	27667
814.551	27709
814.692	27644
814.833	27504
814.974	27485
815.115	27580
815.256	27500
815.397	27386
815.539	27530
815.68	27363
815.821	27298
815.962	27386
816.103	27321
816.244	27157
816.385	27180
816.526	27013
816.666	26921
816.807	26914
816.948	26967
817.089	26918
817.23	26857
817.371	26845
817.512	26864
817.653	26708
817.793	26853
817.934	26769
818.075	26963
818.216	26857
818.356	26819
818.497	26701
818.638	26609
818.778	26598
818.919	26716
819.06	26705
819.2	26670
819.341	26842
819.481	26804
819.622	26960
819.762	27096
819.903	27085
820.043	26937
820.184	26883
820.324	27066
820.465	27024
820.605	26937
820.746	27024
820.886	26929
821.026	26979
821.167	26891
821.307	27013
821.447	26910
821.588	26845
821.728	26568
821.868	26629
822.008	26313
822.149	26313
822.289	26385
822.429	26145
822.569	26084
822.709	25913
822.849	25864
822.99	26001
823.13	25890
823.27	25799
823.41	25639
823.55	25586
823.69	25624
823.83	25689
823.97	25609
824.11	25453
824.25	25476
824.389	25400
824.529	25559
824.669	25479
824.809	25487
824.949	25529
825.089	25445
825.228	25590
825.368	25426
825.508	25346
825.648	25343
825.787	25434
825.927	25236
826.067	25316
826.206	25187
826.346	25441
826.485	25343
826.625	25434
826.765	25468
826.904	25365
827.044	25179
827.183	25213
827.323	25027
827.462	25160
827.601	25225
827.741	25110
827.88	25164
828.02	24973
828.159	24973
828.298	25072
828.437	25175
828.577	25080
828.716	25122
828.855	24966
828.994	24856
829.134	24776
829.273	24798
829.412	24776
829.551	24707
829.69	24844
829.829	24787
829.968	24787
830.107	24821
830.246	24962
830.385	24749
830.524	24719
830.663	24620
830.802	24532
830.941	24410
831.08	24414
831.219	24532
831.357	24597
831.496	24601
831.635	24350
831.774	24285
831.913	24273
832.051	24133
832.19	24205
832.329	24133
832.467	24007
832.606	24038
832.744	24224
832.883	24049
833.022	23946
833.16	24144
833.299	24144
833.437	23977
833.576	24079
833.714	24026
833.852	24076
833.991	24079
834.129	24224
834.267	24201
834.406	24091
834.544	24163
834.682	24220
834.821	24030
834.959	24277
835.097	24060
835.235	24235
835.373	24133
835.511	23999
835.65	24041
835.788	23977
835.926	23786
836.064	23802
836.202	23813
836.34	24053
836.478	23897
836.615	23931
836.753	24011
836.891	23977
837.029	23920
837.167	24057
837.305	24026
837.443	23863
837.58	23809
837.718	23920
837.856	23805
837.993	23707
838.131	23786
838.269	23596
838.406	23714
838.544	23570
838.681	23604
838.819	23471
838.956	23322
839.094	23277
839.231	23258
839.369	23497
839.506	23653
839.643	23414
839.781	23334
839.918	23159
840.055	23284
840.193	23383
840.33	23277
840.467	23223
840.604	23368
840.742	23448
840.879	23094
841.016	23025
841.153	23037
841.29	23280
841.427	23189
841.564	23086
841.701	23299
841.838	23090
841.975	23025
842.112	23250
842.249	23006
842.385	22968
842.522	23239
842.659	23071
842.796	22968
842.933	23006
843.069	22797
843.206	22866
843.343	22923
843.479	22938
843.616	22896
843.752	22729
843.889	22725
844.025	22809
844.162	22744
844.298	22790
844.435	22679
844.571	22729
844.708	22778
844.844	23025
844.98	22938
845.117	22847
845.253	22778
845.389	22596
845.525	22626
845.661	22577
845.798	22447
845.934	22527
846.07	22329
846.206	22516
846.342	22519
846.478	22481
846.614	22196
846.75	22207
846.886	22219
847.022	22325
847.158	22158
847.294	22268
847.429	22215
847.565	22147
847.701	22481
847.837	21972
847.972	21797
848.108	21892
848.244	22082
848.379	21876
848.515	21808
848.65	21739
848.786	21873
848.921	21880
849.057	21857
849.192	21846
849.328	21781
849.463	21854
849.598	21781
849.734	21656
849.869	21679
850.004	21507
850.14	21515
850.275	21572
850.41	21595
850.545	21557
850.68	21580
850.815	21542
850.95	21485
851.085	21732
851.22	21667
851.355	21595
851.49	21519
851.625	21450
851.76	21553
851.895	21424
852.03	21408
852.165	21561
852.299	21519
852.434	21682
852.569	21545
852.703	21485
852.838	21732
852.973	21739
853.107	21625
853.242	21466
853.376	21412
853.511	21256
853.645	21275
853.78	21389
853.914	21443
854.048	21454
854.183	21355
854.317	21249
854.451	21587
854.585	21447
854.72	21329
854.854	21469
854.988	21370
855.122	21416
855.256	21272
855.39	21302
855.524	21351
855.658	21374
855.792	21458
855.926	21477
856.06	21504
856.194	21526
856.327	21405
856.461	21272
856.595	21317
856.729	21329
856.862	21420
856.996	21435
857.13	21302
857.263	21454
857.397	21450
857.53	21382
857.664	21363
857.797	21443
857.931	21408
858.064	21272
858.197	21408
858.331	21359
858.464	21291
858.597	21260
858.731	21428
858.864	21401
858.997	21359
859.13	21424
859.263	21447
859.396	21420
859.529	21351
859.662	21291
859.795	21386
859.928	21397
860.061	21568
860.194	21652
860.327	21393
860.46	21412
860.592	21504
860.725	21526
860.858	21511
860.99	21291
861.123	21348
861.256	21249
861.388	21256
861.521	22055
861.653	21252
861.786	21100
861.918	21195
862.05	21306
862.183	21211
862.315	21416
862.447	21367
862.58	21252
862.712	21032
862.844	21176
862.976	21169
863.108	21157
863.24	21515
863.372	21058
863.504	21112
863.636	20925
863.768	20990
863.9	21036
864.032	21093
864.164	21127
864.296	21096
864.428	21157
864.559	21154
864.691	21199
864.823	21066
864.954	21051
865.086	21051
865.217	21039
865.349	20933
865.48	20960
865.612	20891
865.743	21070
865.875	21066
866.006	20910
866.137	20967
866.269	20895
866.4	21009
866.531	20941
866.662	20952
866.793	20880
866.924	20883
867.055	20941
867.186	20960
867.317	20739
867.448	20849
867.579	20933
867.71	20838
867.841	20754
867.972	21058
868.103	20887
868.233	20918
868.364	20849
868.495	20937
868.625	21176
868.756	21302
868.886	21104
869.017	21161
869.147	21180
869.278	21268
869.408	21207
869.539	21142
869.669	21214
869.799	21245
869.929	21317
870.06	21100
870.19	21435
870.32	21454
870.45	21454
870.58	21618
870.71	21545
870.84	21595
870.97	21542
871.1	21538
871.23	21713
871.36	21709
871.489	21545
871.619	21717
871.749	21686
871.879	21698
872.008	21823
872.138	21789
872.267	21701
872.397	21564
872.526	21583
872.656	21561
872.785	21667
872.915	21774
873.044	21838
873.173	21720
873.303	21766
873.432	21743
873.561	21739
873.69	21690
873.819	21785
873.948	21899
874.077	21774
874.206	21823
874.335	21686
874.464	21922
874.593	22074
874.722	21922
874.851	22051
874.979	21937
875.108	22029
875.237	21907
875.365	21884
875.494	22063
875.623	21945
875.751	21987
875.88	22097
876.008	22109
876.136	22185
876.265	22352
876.393	22580
876.521	22497
876.65	22386
876.778	22421
876.906	22299
877.034	22158
877.162	22386
877.29	22238
877.418	22261
877.546	22329
877.674	22333
877.802	22363
877.93	22295
878.058	22322
878.185	22246
878.313	22166
878.441	22287
878.568	22131
878.696	22261
878.824	22329
878.951	22394
879.079	22538
879.206	22565
879.333	22478
879.461	22447
879.588	22375
879.715	22535
879.842	22603
879.97	22325
880.097	22105
880.224	22105
880.351	22223
880.478	22109
880.605	22192
880.732	22128
880.859	22303
880.986	22196
881.112	22238
881.239	22059
881.366	22002
881.493	21739
881.619	21793
881.746	21903
881.872	21713
881.999	21739
882.125	21652
882.252	21774
882.378	21720
882.505	21781
882.631	21599
882.757	21405
882.883	21606
883.01	21629
883.136	21408
883.262	21233
883.388	21310
883.514	21469
883.64	21344
883.766	21454
883.892	21096
884.018	21203
884.143	21401
884.269	21435
884.395	21100
884.52	21055
884.646	21108
884.772	21093
884.897	21062
885.023	21077
885.148	21150
885.274	21211
885.399	21207
885.524	21237
885.65	21070
885.775	21169
885.9	21005
886.025	21199
886.15	21135
886.275	20982
886.4	20960
886.525	20925
886.65	20941
886.775	20880
886.9	21131
887.025	21203
887.149	21062
887.274	20914
887.399	20899
887.523	20792
887.648	20864
887.773	20750
887.897	20864
888.021	20899
888.146	20823
888.27	20864
888.395	20952
888.519	20880
888.643	20883
888.767	20815
888.891	20746
889.015	20598
889.139	20560
889.263	20682
889.387	20727
889.511	20826
889.635	20716
889.759	20632
889.883	20541
890.006	20587
890.13	20762
890.254	20663
890.377	20545
890.501	20404
890.624	20549
890.748	20488
890.871	20400
890.995	20214
891.118	20195
891.241	20164
891.364	20221
891.488	20343
891.611	20122
891.734	20206
891.857	20145
891.98	20214
892.103	20286
892.226	20145
892.349	20157
892.471	20005
892.594	20164
892.717	20065
892.839	20043
892.962	20103
893.085	20187
893.207	20134
893.33	20096
893.452	20050
893.575	20073
893.697	20062
893.819	20298
893.941	20351
894.064	20328
894.186	20115
894.308	20050
894.43	20172
894.552	20271
894.674	20138
894.796	20081
894.918	19974
895.04	19986
895.161	20088
895.283	20195
895.405	20134
895.526	20035
895.648	20001
895.769	20130
895.891	20237
896.012	20115
896.134	20035
896.255	20126
896.376	20084
896.498	20103
896.619	20050
896.74	20088
896.861	20195
896.982	20412
897.103	20560
897.224	20343
897.345	20294
897.466	20294
897.587	20339
897.708	20469
897.828	20434
897.949	20351
898.07	20248
898.19	20221
898.311	20381
898.431	20168
898.552	20415
898.672	20366
898.792	20305
898.913	20412
899.033	20161
899.153	20035
899.273	19963
899.393	20046
899.513	20142
899.633	20077
899.753	20069
899.873	19887
899.993	20145
900.113	20012
900.232	20084
900.352	19936
900.472	19974
900.591	19776
900.711	19936
900.83	19666
900.95	20054
901.069	19955
901.189	19715
901.308	19571
901.427	19343
901.546	19377
901.665	19457
901.784	19487
901.904	19304
902.023	19175
902.141	19046
902.26	18970
902.379	18939
902.498	18947
902.617	18958
902.735	18928
902.854	18856
902.973	18886
903.091	18642
903.21	18665
903.328	18616
903.446	18540
903.565	18437
903.683	18452
903.801	18289
903.919	18433
904.038	18254
904.156	18235
904.274	18228
904.392	18152
904.51	18041
904.627	18060
904.745	18239
904.863	18239
904.981	17950
905.098	17836
905.216	17977
905.334	17912
905.451	17802
905.569	17893
905.686	17874
905.803	17824
905.921	17710
906.038	17657
906.155	17710
906.272	17562
906.389	17459
906.506	17406
906.623	17509
906.74	17433
906.857	17303
906.974	17265
907.091	17448
907.208	17448
907.324	17505
907.441	17288
907.557	17140
907.674	17128
907.79	16991
907.907	17090
908.023	17109
908.139	17143
908.256	17060
908.372	17075
908.488	17018
908.604	16915
908.72	16790
908.836	16797
908.952	16847
909.068	16866
909.184	16927
909.3	16839
909.415	16835
909.531	16774
909.647	16622
909.762	16519
909.878	16500
909.993	16531
910.108	16497
910.224	16527
910.339	16432
910.454	16371
910.57	16398
910.685	16291
910.8	16443
910.915	16493
911.03	16329
911.145	16219
911.259	16162
911.374	16116
911.489	16120
911.604	15968
911.718	15956
911.833	15816
911.947	15766
912.062	15667
912.176	15964
912.291	15850
912.405	15800
912.519	16006
912.633	16002
912.748	15861
912.862	15869
912.976	15637
913.09	15564
913.204	15679
913.318	15690
913.431	15739
913.545	15789
913.659	15709
913.772	15660
913.886	15530
914	15454
914.113	15614
914.226	15545
914.34	15622
914.453	15405
914.566	15439
914.68	15294
914.793	15294
914.906	15188
915.019	15150
915.132	15127
915.245	15104
915.358	15058
915.47	15154
915.583	15032
915.696	15112
915.809	15184
915.921	15154
916.034	14998
916.146	15077
916.259	14982
916.371	15024
916.483	14986
916.595	14804
916.708	14910
916.82	14994
916.932	14902
917.044	14944
917.156	14819
917.268	14758
917.38	14785
917.491	14796
917.603	14754
917.715	14861
917.826	14731
917.938	14735
918.049	14636
918.161	14701
918.272	14769
918.384	14887
918.495	14796
918.606	14571
918.717	14476
918.828	14518
918.939	14617
919.05	14393
919.161	14518
919.272	14385
919.383	14290
919.494	14556
919.604	14746
919.715	14385
919.826	14385
919.936	14377
920.047	14541
920.157	14427
920.267	14617
920.378	14495
920.488	14537
920.598	14625
920.708	14739
920.818	14602
920.928	14537
921.038	14777
921.148	14720
921.258	14324
921.368	14336
921.477	14183
921.587	14164
921.697	14073
921.806	14237
921.916	14096
922.025	13898
922.134	13856
922.244	13776
922.353	13849
922.462	13723
922.571	13731
922.68	13533
922.789	13426
922.898	13495
923.007	13422
923.116	13510
923.224	13453
923.333	13449
923.442	13312
923.55	13312
923.659	13320
923.767	13419
923.876	13266
923.984	13282
924.092	13183
924.201	13331
924.309	13228
924.417	13304
924.525	13122
924.633	13179
924.741	13879
924.849	12970
924.956	13099
925.064	12932
925.172	12882
925.279	12837
925.387	12875
925.494	12943
925.602	13076
925.709	12886
925.816	12741
925.924	12817
926.031	12924
926.138	12878
926.245	12867
926.352	12848
926.459	12840
926.566	12897
926.673	12810
926.779	12662
926.886	12635
926.993	12536
927.099	12509
927.206	12403
927.312	12407
927.419	12494
927.525	12452
927.631	12498
927.737	12289
927.843	12285
927.95	12296
928.056	12342
928.162	12407
928.267	12338
928.373	12787
928.479	12357
928.585	12178
928.69	12247
928.796	12300
928.901	12155
929.007	12022
929.112	12266
929.218	12205
929.323	12102
929.428	12015
929.533	12064
929.638	11942
929.743	11977
929.848	11965
929.953	11999
930.058	11870
930.163	11703
930.267	11688
930.372	11893
930.477	11676
930.581	11897
930.685	11737
930.79	11608
930.894	11653
930.998	11604
931.103	11752
931.207	11322
931.311	11265
931.415	11151
931.519	10946
931.623	10961
