Data from test_V78500241_364.txt Node
Date: Fri Mar 25 15:12:23 CST 2022
User: usil
Spectrometer: V785-0024
Trigger mode: 0
Integration Time (sec): 4.000000E-1
Scans to average: 1
Nonlinearity correction enabled: false
Boxcar width: 0
Storing dark spectrum: false
XAxis mode: Wavelengths
Number of Pixels in Spectrum: 1024
>>>>>Begin Spectral Data<<<<<
801.071	27028
801.214	26883
801.356	26743
801.499	26476
801.641	26446
801.783	26522
801.926	26648
802.068	26412
802.211	26571
802.353	26381
802.496	26290
802.638	26225
802.78	26267
802.923	26153
803.065	26031
803.208	26001
803.35	26210
803.492	26259
803.635	26298
803.777	26202
803.919	26278
804.061	26579
804.204	26347
804.346	26240
804.488	26199
804.63	26370
804.773	26237
804.915	26336
805.057	26355
805.199	26393
805.341	26309
805.483	26571
805.626	26309
805.768	26355
805.91	26328
806.052	26514
806.194	26385
806.336	26530
806.478	26465
806.62	26358
806.762	26617
806.904	26807
807.046	26975
807.188	26910
807.33	26918
807.472	26937
807.614	26724
807.756	26765
807.898	26693
808.04	26644
808.182	26667
808.324	26651
808.465	26655
808.607	26773
808.749	26861
808.891	27207
809.033	27176
809.174	27096
809.316	27116
809.458	26914
809.6	26948
809.741	27150
809.883	27096
810.025	27344
810.166	27214
810.308	27275
810.45	27176
810.591	27230
810.733	27123
810.875	27005
811.016	26933
811.158	26937
811.299	27047
811.441	27093
811.582	26956
811.724	26994
811.865	27093
812.007	27077
812.148	27005
812.29	27142
812.431	27085
812.573	27344
812.714	27378
812.855	27519
812.997	27648
813.138	27728
813.279	27572
813.421	27561
813.562	27622
813.703	27325
813.845	27207
813.986	26952
814.127	26960
814.268	26739
814.41	26686
814.551	26587
814.692	26712
814.833	26609
814.974	26625
815.115	26769
815.256	26522
815.397	26560
815.539	26499
815.68	26419
815.821	26389
815.962	26347
816.103	26484
816.244	26343
816.385	26252
816.526	26130
816.666	25909
816.807	25982
816.948	25917
817.089	26191
817.23	26005
817.371	25947
817.512	25909
817.653	25997
817.793	25913
817.934	25978
818.075	25925
818.216	25940
818.356	25791
818.497	25723
818.638	25708
818.778	25734
818.919	25738
819.06	25723
819.2	25757
819.341	25788
819.481	25814
819.622	26031
819.762	26339
819.903	26229
820.043	26012
820.184	26092
820.324	26008
820.465	26081
820.605	25982
820.746	26008
820.886	25822
821.026	26008
821.167	25993
821.307	26039
821.447	25871
821.588	25811
821.728	25651
821.868	25544
822.008	25468
822.149	25476
822.289	25377
822.429	25175
822.569	25148
822.709	25027
822.849	25008
822.99	24909
823.13	24962
823.27	24878
823.41	24681
823.55	24719
823.69	24654
823.83	24711
823.97	24707
824.11	24509
824.25	24570
824.389	24441
824.529	24635
824.669	24513
824.809	24547
824.949	24623
825.089	24688
825.228	24688
825.368	24277
825.508	24372
825.648	24490
825.787	24384
825.927	24372
826.067	24376
826.206	24369
826.346	24414
826.485	24380
826.625	24270
826.765	24544
826.904	24350
827.044	24087
827.183	24121
827.323	24018
827.462	24159
827.601	24064
827.741	24018
827.88	24045
828.02	23973
828.159	24102
828.298	24091
828.437	24133
828.577	24057
828.716	24129
828.855	24060
828.994	23824
829.134	23760
829.273	23988
829.412	23794
829.551	23809
829.69	23752
829.829	23832
829.968	23855
830.107	23847
830.246	23863
830.385	23737
830.524	23668
830.663	23619
830.802	23528
830.941	23463
831.08	23360
831.219	23642
831.357	23516
831.496	23714
831.635	23395
831.774	23364
831.913	23311
832.051	23235
832.19	23220
832.329	23356
832.467	23006
832.606	22957
832.744	23098
832.883	23140
833.022	23052
833.16	23060
833.299	23277
833.437	23071
833.576	23185
833.714	23204
833.852	23170
833.991	23334
834.129	23318
834.267	23178
834.406	23132
834.544	23288
834.682	23216
834.821	23212
834.959	23242
835.097	23124
835.235	23223
835.373	23208
835.511	23105
835.65	23098
835.788	23018
835.926	22984
836.064	22805
836.202	22854
836.34	23079
836.478	23136
836.615	23128
836.753	22896
836.891	23136
837.029	23079
837.167	22953
837.305	22930
837.443	22904
837.58	22881
837.718	22968
837.856	22881
837.993	22774
838.131	22831
838.269	22782
838.406	22850
838.544	22717
838.681	22653
838.819	22504
838.956	22413
839.094	22436
839.231	22356
839.369	22592
839.506	22805
839.643	22687
839.781	22424
839.918	22318
840.055	22394
840.193	22329
840.33	22367
840.467	22333
840.604	22352
840.742	22542
840.879	22261
841.016	22306
841.153	22124
841.29	22523
841.427	22272
841.564	22226
841.701	22318
841.838	22242
841.975	22078
842.112	22249
842.249	22135
842.385	22109
842.522	22333
842.659	22181
842.796	21937
842.933	22097
843.069	22059
843.206	22017
843.343	22188
843.479	22070
843.616	22059
843.752	21755
843.889	21720
844.025	21895
844.162	21861
844.298	21998
844.435	21857
844.571	21774
844.708	22044
844.844	21983
844.98	21880
845.117	21922
845.253	21766
845.389	21720
845.525	21800
845.661	21785
845.798	21488
845.934	21709
846.07	21526
846.206	21625
846.342	21816
846.478	21450
846.614	21370
846.75	21321
846.886	21287
847.022	21431
847.158	21321
847.294	21378
847.429	21363
847.565	21329
847.701	21591
847.837	21127
847.972	21001
848.108	21180
848.244	21116
848.379	20963
848.515	20876
848.65	20861
848.786	20990
848.921	21028
849.057	21013
849.192	21020
849.328	20849
849.463	20941
849.598	20887
849.734	20792
849.869	20781
850.004	20743
850.14	20773
850.275	20602
850.41	20648
850.545	20716
850.68	20587
850.815	20644
850.95	20636
851.085	20982
851.22	20845
851.355	20754
851.49	20712
851.625	20670
851.76	20587
851.895	20609
852.03	20571
852.165	20788
852.299	20705
852.434	20769
852.569	20758
852.703	20644
852.838	20819
852.973	20811
853.107	20758
853.242	20648
853.376	20564
853.511	20309
853.645	20400
853.78	20727
853.914	20609
854.048	20434
854.183	20473
854.317	20663
854.451	20632
854.585	20473
854.72	20412
854.854	20583
854.988	20389
855.122	20488
855.256	20404
855.39	20492
855.524	20514
855.658	20492
855.792	20480
855.926	20575
856.06	20560
856.194	20613
856.327	20476
856.461	20511
856.595	20480
856.729	20393
856.862	20602
856.996	20438
857.13	20511
857.263	20712
857.397	20720
857.53	20381
857.664	20697
857.797	20484
857.931	20712
858.064	20606
858.197	20762
858.331	20473
858.464	20385
858.597	20450
858.731	20400
858.864	20423
858.997	20419
859.13	20488
859.263	20568
859.396	20564
859.529	20446
859.662	20503
859.795	20533
859.928	20469
860.061	20708
860.194	20663
860.327	20571
860.46	20537
860.592	20545
860.725	20727
860.858	20598
860.99	20499
861.123	20473
861.256	20480
861.388	20495
861.521	21230
861.653	20412
861.786	20275
861.918	20374
862.05	20248
862.183	20488
862.315	20450
862.447	20552
862.58	20499
862.712	20256
862.844	20142
862.976	20202
863.108	20134
863.24	20743
863.372	20092
863.504	20248
863.636	20100
863.768	20294
863.9	20187
864.032	20183
864.164	20210
864.296	20187
864.428	20324
864.559	20320
864.691	20332
864.823	20142
864.954	20332
865.086	20221
865.217	20221
865.349	20103
865.48	20062
865.612	20153
865.743	20176
865.875	20161
866.006	20050
866.137	20248
866.269	20058
866.4	20100
866.531	20043
866.662	19989
866.793	20027
866.924	20043
867.055	20035
867.186	20069
867.317	19928
867.448	19902
867.579	20096
867.71	19947
867.841	19951
867.972	20081
868.103	20069
868.233	20012
868.364	20046
868.495	20218
868.625	20107
868.756	20511
868.886	20256
869.017	20263
869.147	20358
869.278	20389
869.408	20332
869.539	20343
869.669	20480
869.799	20427
869.929	20454
870.06	20423
870.19	20644
870.32	20503
870.45	20826
870.58	20720
870.71	20746
870.84	20849
870.97	20769
871.1	20705
871.23	20861
871.36	20937
871.489	20769
871.619	20918
871.749	20979
871.879	20899
872.008	21039
872.138	20902
872.267	20861
872.397	20887
872.526	20731
872.656	20731
872.785	20720
872.915	21043
873.044	20948
873.173	20944
873.303	20948
873.432	20895
873.561	21001
873.69	21001
873.819	20845
873.948	20952
874.077	20910
874.206	20788
874.335	20883
874.464	21195
874.593	21135
874.722	21218
874.851	21226
874.979	21135
875.108	21294
875.237	21146
875.365	21093
875.494	21066
875.623	21279
875.751	21268
875.88	21279
876.008	21302
876.136	21397
876.265	21545
876.393	21686
876.521	21774
876.65	21637
876.778	21435
876.906	21507
877.034	21530
877.162	21690
877.29	21458
877.418	21488
877.546	21580
877.674	21523
877.802	21507
877.93	21583
878.058	21477
878.185	21469
878.313	21500
878.441	21523
878.568	21355
878.696	21519
878.824	21603
878.951	21766
879.079	21622
879.206	21884
879.333	21766
879.461	21504
879.588	21709
879.715	21785
879.842	21781
879.97	21648
880.097	21408
880.224	21249
880.351	21397
880.478	21405
880.605	21408
880.732	21294
880.859	21473
880.986	21462
881.112	21336
881.239	21214
881.366	21119
881.493	21096
881.619	20994
881.746	21017
881.872	20971
881.999	21020
882.125	20952
882.252	21028
882.378	20925
882.505	20952
882.631	20804
882.757	20750
882.883	20948
883.01	20830
883.136	20644
883.262	20625
883.388	20693
883.514	20651
883.64	20731
883.766	20644
883.892	20495
884.018	20431
884.143	20625
884.269	20629
884.395	20507
884.52	20278
884.646	20431
884.772	20324
884.897	20252
885.023	20358
885.148	20370
885.274	20419
885.399	20393
885.524	20370
885.65	20301
885.775	20438
885.9	20370
886.025	20393
886.15	20381
886.275	20332
886.4	20233
886.525	20267
886.65	20221
886.775	20210
886.9	20381
887.025	20629
887.149	20347
887.274	20126
887.399	20077
887.523	20111
887.648	20012
887.773	19936
887.897	20145
888.021	20210
888.146	20069
888.27	20210
888.395	20122
888.519	20111
888.643	20126
888.767	20111
888.891	19951
889.015	19871
889.139	19982
889.263	19890
889.387	20001
889.511	20183
889.635	20062
889.759	19852
889.883	19890
890.006	19913
890.13	19997
890.254	19852
890.377	19917
890.501	19719
890.624	19655
890.748	19780
890.871	19624
890.995	19556
891.118	19495
891.241	19575
891.364	19537
891.488	19643
891.611	19537
891.734	19586
891.857	19533
891.98	19460
892.103	19540
892.226	19426
892.349	19556
892.471	19244
892.594	19388
892.717	19388
892.839	19377
892.962	19373
893.085	19396
893.207	19358
893.33	19320
893.452	19350
893.575	19472
893.697	19362
893.819	19613
893.941	19586
894.064	19590
894.186	19339
894.308	19346
894.43	19464
894.552	19537
894.674	19346
894.796	19293
894.918	19377
895.04	19438
895.161	19430
895.283	19586
895.405	19282
895.526	19346
895.648	19251
895.769	19457
895.891	19346
896.012	19487
896.134	19483
896.255	19487
896.376	19407
896.498	19354
896.619	19472
896.74	19377
896.861	19472
896.982	19746
897.103	19928
897.224	19666
897.345	19575
897.466	19632
897.587	19723
897.708	19708
897.828	19609
897.949	19537
898.07	19434
898.19	19502
898.311	19689
898.431	19514
898.552	19609
898.672	19769
898.792	19738
898.913	19597
899.033	19525
899.153	19377
899.273	19285
899.393	19384
899.513	19388
899.633	19392
899.753	19468
899.873	19316
899.993	19415
900.113	19320
900.232	19377
900.352	19244
900.472	19183
900.591	19065
900.711	19209
900.83	19080
900.95	19118
901.069	19316
901.189	19046
901.308	18928
901.427	18719
901.546	18749
901.665	18787
901.784	18795
901.904	18677
902.023	18559
902.141	18407
902.26	18239
902.379	18479
902.498	18346
902.617	18148
902.735	18426
902.854	18289
902.973	18125
903.091	17992
903.21	17988
903.328	17927
903.446	17893
903.565	17802
903.683	17726
903.801	17699
903.919	17794
904.038	17726
904.156	17554
904.274	17672
904.392	17577
904.51	17611
904.627	17627
904.745	17600
904.863	17539
904.981	17387
905.098	17265
905.216	17250
905.334	17311
905.451	17216
905.569	17140
905.686	17383
905.803	17288
905.921	17083
906.038	17147
906.155	16980
906.272	16885
906.389	16908
906.506	16816
906.623	16759
906.74	16717
906.857	16721
906.974	16675
907.091	16824
907.208	16930
907.324	16889
907.441	16672
907.557	16584
907.674	16592
907.79	16470
907.907	16500
908.023	16428
908.139	16611
908.256	16432
908.372	16398
908.488	16402
908.604	16348
908.72	16265
908.836	16291
908.952	16177
909.068	16352
909.184	16318
909.3	16215
909.415	16234
909.531	16325
909.647	15987
909.762	16048
909.878	16010
909.993	15972
910.108	15880
910.224	15888
910.339	15972
910.454	15835
910.57	15793
910.685	15625
910.8	16006
910.915	15949
911.03	15800
911.145	15534
911.259	15595
911.374	15553
911.489	15424
911.604	15408
911.718	15378
911.833	15386
911.947	15184
912.062	15184
912.176	15351
912.291	15275
912.405	15207
912.519	15435
912.633	15622
912.748	15329
912.862	15256
912.976	15058
913.09	15074
913.204	15077
913.318	15188
913.431	15310
913.545	15165
913.659	15192
913.772	15150
913.886	15085
914	14849
914.113	15009
914.226	14948
914.34	15055
914.453	14868
914.566	14971
914.68	14792
914.793	14872
914.906	14632
915.019	14613
915.132	14575
915.245	14511
915.358	14495
915.47	14610
915.583	14571
915.696	14526
915.809	14648
915.921	14769
916.034	14454
916.146	14552
916.259	14469
916.371	14571
916.483	14606
916.595	14431
916.708	14461
916.82	14434
916.932	14446
917.044	14374
917.156	14313
917.268	14195
917.38	14229
917.491	14233
917.603	14218
917.715	14313
917.826	14362
917.938	14191
918.049	14081
918.161	14187
918.272	14328
918.384	14313
918.495	14153
918.606	14077
918.717	14001
918.828	14008
918.939	13986
919.05	13951
919.161	14016
919.272	13772
919.383	13894
919.494	14024
919.604	14119
919.715	14027
919.826	13818
919.936	13982
920.047	13986
920.157	14008
920.267	14138
920.378	14005
920.488	13883
920.598	14176
920.708	14275
920.818	14046
920.928	14126
921.038	14358
921.148	14294
921.258	13947
921.368	13879
921.477	13685
921.587	13734
921.697	13605
921.806	13811
921.916	13609
922.025	13400
922.134	13358
922.244	13346
922.353	13373
922.462	13285
922.571	13164
922.68	13057
922.789	13012
922.898	13057
923.007	13053
923.116	13065
923.224	13046
923.333	13023
923.442	12806
923.55	12821
923.659	12817
923.767	12935
923.876	12817
923.984	12943
924.092	12768
924.201	12848
924.309	12882
924.417	12764
924.525	12726
924.633	12741
924.741	13377
924.849	12502
924.956	12684
925.064	12502
925.172	12460
925.279	12422
925.387	12540
925.494	12540
925.602	12604
925.709	12593
925.816	12467
925.924	12483
926.031	12513
926.138	12429
926.245	12437
926.352	12300
926.459	12460
926.566	12551
926.673	12315
926.779	12262
926.886	12266
926.993	12079
927.099	12034
927.206	12079
927.312	11958
927.419	12102
927.525	12003
927.631	12053
927.737	11851
927.843	11893
927.95	11794
928.056	11851
928.162	11939
928.267	11882
928.373	12593
928.479	11980
928.585	11714
928.69	11855
928.796	11916
928.901	11748
929.007	11752
929.112	11760
929.218	11672
929.323	11577
929.428	11691
929.533	11623
929.638	11604
929.743	11619
929.848	11672
929.953	11585
930.058	11471
930.163	11292
930.267	11387
930.372	11490
930.477	11292
930.581	11596
930.685	11349
930.79	11189
930.894	11250
930.998	11250
931.103	11311
931.207	10965
931.311	10957
931.415	10843
931.519	10542
931.623	10535
