Data from test_V78500241_212.txt Node
Date: Fri Mar 25 15:11:20 CST 2022
User: usil
Spectrometer: V785-0024
Trigger mode: 0
Integration Time (sec): 4.000000E-1
Scans to average: 1
Nonlinearity correction enabled: false
Boxcar width: 0
Storing dark spectrum: false
XAxis mode: Wavelengths
Number of Pixels in Spectrum: 1024
>>>>>Begin Spectral Data<<<<<
801.071	27884
801.214	27789
801.356	27386
801.499	27405
801.641	27348
801.783	27310
801.926	27302
802.068	27279
802.211	27241
802.353	27268
802.496	26944
802.638	27085
802.78	26853
802.923	26982
803.065	26906
803.208	26785
803.35	26914
803.492	27020
803.635	27066
803.777	27020
803.919	26906
804.061	27325
804.204	27089
804.346	26906
804.488	26944
804.63	27077
804.773	26982
804.915	26971
805.057	27093
805.199	27062
805.341	27047
805.483	27104
805.626	27123
805.768	26967
805.91	27104
806.052	27142
806.194	27009
806.336	27294
806.478	27074
806.62	27119
806.762	27157
806.904	27317
807.046	27496
807.188	27542
807.33	27538
807.472	27443
807.614	27382
807.756	27416
807.898	27397
808.04	27313
808.182	27218
808.324	27389
808.465	27325
808.607	27534
808.749	27720
808.891	27797
809.033	27892
809.174	27827
809.316	27713
809.458	27682
809.6	27705
809.741	27694
809.883	27743
810.025	27911
810.166	28017
810.308	27857
810.45	27816
810.591	27895
810.733	27587
810.875	27622
811.016	27542
811.158	27545
811.299	27732
811.441	27778
811.582	27743
811.724	27614
811.865	27458
812.007	27622
812.148	27557
812.29	27679
812.431	27739
812.573	27907
812.714	28025
812.855	28147
812.997	28253
813.138	28401
813.279	28329
813.421	28150
813.562	27937
813.703	28017
813.845	27808
813.986	27507
814.127	27329
814.268	27317
814.41	27424
814.551	27310
814.692	27332
814.833	27203
814.974	27142
815.115	27169
815.256	27047
815.397	27009
815.539	26979
815.68	26937
815.821	26815
815.962	27085
816.103	26914
816.244	26910
816.385	26781
816.526	26826
816.666	26518
816.807	26355
816.948	26560
817.089	26598
817.23	26381
817.371	26225
817.512	26473
817.653	26339
817.793	26328
817.934	26309
818.075	26587
818.216	26400
818.356	26305
818.497	26339
818.638	26107
818.778	26016
818.919	26202
819.06	26111
819.2	26267
819.341	26305
819.481	26328
819.622	26427
819.762	26640
819.903	26613
820.043	26552
820.184	26313
820.324	26484
820.465	26473
820.605	26438
820.746	26400
820.886	26282
821.026	26396
821.167	26362
821.307	26450
821.447	26366
821.588	26298
821.728	26202
821.868	25890
822.008	25875
822.149	25757
822.289	25635
822.429	25628
822.569	25438
822.709	25449
822.849	25225
822.99	25152
823.13	25274
823.27	25247
823.41	25126
823.55	25114
823.69	25110
823.83	25000
823.97	25057
824.11	24932
824.25	24867
824.389	24787
824.529	25008
824.669	24859
824.809	24935
824.949	24935
825.089	25046
825.228	24973
825.368	24726
825.508	24707
825.648	24738
825.787	24764
825.927	24601
826.067	24601
826.206	24726
826.346	24764
826.485	24867
826.625	24696
826.765	24661
826.904	24810
827.044	24441
827.183	24448
827.323	24429
827.462	24429
827.601	24437
827.741	24285
827.88	24448
828.02	24338
828.159	24346
828.298	24502
828.437	24281
828.577	24243
828.716	24426
828.855	24323
828.994	24159
829.134	24136
829.273	24087
829.412	24015
829.551	24144
829.69	24057
829.829	24091
829.968	24186
830.107	24079
830.246	24125
830.385	24018
830.524	24026
830.663	23851
830.802	23817
830.941	23661
831.08	23684
831.219	23642
831.357	23729
831.496	23920
831.635	23665
831.774	23581
831.913	23718
832.051	23414
832.19	23425
832.329	23524
832.467	23185
832.606	23208
832.744	23250
832.883	23334
833.022	23356
833.16	23406
833.299	23395
833.437	23379
833.576	23406
833.714	23330
833.852	23345
833.991	23410
834.129	23391
834.267	23391
834.406	23364
834.544	23307
834.682	23231
834.821	23284
834.959	23570
835.097	23185
835.235	23455
835.373	23315
835.511	23402
835.65	23227
835.788	23265
835.926	23067
836.064	22900
836.202	23159
836.34	23143
836.478	23284
836.615	23086
836.753	23246
836.891	23273
837.029	23292
837.167	23060
837.305	23086
837.443	23071
837.58	22972
837.718	23132
837.856	22927
837.993	23113
838.131	23041
838.269	22930
838.406	22995
838.544	22816
838.681	22763
838.819	22573
838.956	22527
839.094	22470
839.231	22421
839.369	22634
839.506	22904
839.643	22763
839.781	22470
839.918	22489
840.055	22428
840.193	22360
840.33	22398
840.467	22348
840.604	22447
840.742	22782
840.879	22242
841.016	22234
841.153	22398
841.29	22447
841.427	22337
841.564	22424
841.701	22409
841.838	22356
841.975	22249
842.112	22185
842.249	22139
842.385	22078
842.522	22352
842.659	22162
842.796	22021
842.933	22166
843.069	21979
843.206	22112
843.343	22192
843.479	22204
843.616	22086
843.752	21869
843.889	21937
844.025	22086
844.162	21907
844.298	21983
844.435	21831
844.571	21911
844.708	21846
844.844	22082
844.98	21915
845.117	21888
845.253	21873
845.389	21789
845.525	21857
845.661	21755
845.798	21591
845.934	21595
846.07	21583
846.206	21656
846.342	21759
846.478	21656
846.614	21576
846.75	21363
846.886	21397
847.022	21473
847.158	21340
847.294	21317
847.429	21412
847.565	21348
847.701	21504
847.837	20918
847.972	21116
848.108	21237
848.244	21028
848.379	20868
848.515	20937
848.65	20872
848.786	20982
848.921	20941
849.057	21039
849.192	21039
849.328	20868
849.463	20883
849.598	20849
849.734	20864
849.869	20720
850.004	20777
850.14	20686
850.275	20712
850.41	20674
850.545	20579
850.68	20571
850.815	20754
850.95	20727
851.085	20902
851.22	20773
851.355	20724
851.49	20621
851.625	20533
851.76	20549
851.895	20457
852.03	20412
852.165	20575
852.299	20727
852.434	20670
852.569	20682
852.703	20606
852.838	20773
852.973	20842
853.107	20750
853.242	20469
853.376	20613
853.511	20476
853.645	20366
853.78	20617
853.914	20461
854.048	20518
854.183	20370
854.317	20476
854.451	20670
854.585	20370
854.72	20408
854.854	20583
854.988	20431
855.122	20396
855.256	20271
855.39	20484
855.524	20552
855.658	20423
855.792	20423
855.926	20412
856.06	20396
856.194	20674
856.327	20446
856.461	20358
856.595	20492
856.729	20347
856.862	20533
856.996	20476
857.13	20587
857.263	20708
857.397	20560
857.53	20442
857.664	20457
857.797	20533
857.931	20476
858.064	20339
858.197	20556
858.331	20377
858.464	20290
858.597	20252
858.731	20434
858.864	20404
858.997	20381
859.13	20408
859.263	20374
859.396	20533
859.529	20351
859.662	20381
859.795	20267
859.928	20313
860.061	20492
860.194	20678
860.327	20355
860.46	20419
860.592	20423
860.725	20556
860.858	20545
860.99	20404
861.123	20358
861.256	20457
861.388	20476
861.521	21199
861.653	20370
861.786	20290
861.918	20290
862.05	20366
862.183	20313
862.315	20541
862.447	20495
862.58	20381
862.712	20206
862.844	20119
862.976	20164
863.108	20176
863.24	20564
863.372	20046
863.504	20294
863.636	20111
863.768	20187
863.9	20161
864.032	20176
864.164	19928
864.296	20100
864.428	20286
864.559	20081
864.691	20172
864.823	20206
864.954	20145
865.086	20180
865.217	20073
865.349	19978
865.48	20096
865.612	20111
865.743	20157
865.875	20062
866.006	19856
866.137	19970
866.269	20100
866.4	20062
866.531	20024
866.662	20035
866.793	19830
866.924	20012
867.055	20111
867.186	19974
867.317	19970
867.448	19879
867.579	19856
867.71	19868
867.841	19860
867.972	19959
868.103	19955
868.233	19974
868.364	20027
868.495	20073
868.625	20126
868.756	20275
868.886	20122
869.017	20225
869.147	20252
869.278	20252
869.408	20278
869.539	20149
869.669	20301
869.799	20115
869.929	20400
870.06	20377
870.19	20404
870.32	20404
870.45	20545
870.58	20602
870.71	20689
870.84	20705
870.97	20568
871.1	20590
871.23	20731
871.36	20823
871.489	20815
871.619	20693
871.749	20743
871.879	20819
872.008	20861
872.138	20868
872.267	20712
872.397	20640
872.526	20556
872.656	20606
872.785	20606
872.915	20758
873.044	20906
873.173	20891
873.303	20853
873.432	20861
873.561	20906
873.69	20807
873.819	20857
873.948	20769
874.077	20815
874.206	20796
874.335	20773
874.464	21005
874.593	21062
874.722	21009
874.851	21188
874.979	21096
875.108	21100
875.237	21036
875.365	21081
875.494	21039
875.623	21195
875.751	21058
875.88	21051
876.008	21214
876.136	21245
876.265	21355
876.393	21507
876.521	21526
876.65	21431
876.778	21500
876.906	21329
877.034	21370
877.162	21332
877.29	21428
877.418	21412
877.546	21496
877.674	21412
877.802	21408
877.93	21351
878.058	21386
878.185	21272
878.313	21412
878.441	21469
878.568	21264
878.696	21416
878.824	21439
878.951	21492
879.079	21625
879.206	21751
879.333	21587
879.461	21431
879.588	21591
879.715	21530
879.842	21618
879.97	21473
880.097	21192
880.224	21173
880.351	21298
880.478	21291
880.605	21169
880.732	21249
880.859	21408
880.986	21256
881.112	21222
881.239	21051
881.366	21017
881.493	20963
881.619	20861
881.746	20849
881.872	20811
881.999	20842
882.125	20788
882.252	20963
882.378	20887
882.505	20864
882.631	20697
882.757	20617
882.883	20785
883.01	20507
883.136	20545
883.262	20484
883.388	20400
883.514	20606
883.64	20617
883.766	20484
883.892	20259
884.018	20290
884.143	20545
884.269	20549
884.395	20301
884.52	20237
884.646	20138
884.772	20138
884.897	20138
885.023	20183
885.148	20237
885.274	20267
885.399	20267
885.524	20278
885.65	20240
885.775	20180
885.9	20218
886.025	20237
886.15	20309
886.275	20138
886.4	20107
886.525	20183
886.65	20111
886.775	20073
886.9	20343
887.025	20301
887.149	20111
887.274	19925
887.399	20005
887.523	20008
887.648	19902
887.773	19849
887.897	20024
888.021	20050
888.146	19879
888.27	19978
888.395	20031
888.519	19989
888.643	19925
888.767	20024
888.891	19837
889.015	19784
889.139	19841
889.263	19780
889.387	19902
889.511	20005
889.635	19902
889.759	19799
889.883	19674
890.006	19803
890.13	19814
890.254	19662
890.377	19670
890.501	19453
890.624	19559
890.748	19624
890.871	19453
890.995	19365
891.118	19339
891.241	19411
891.364	19369
891.488	19476
891.611	19388
891.734	19327
891.857	19301
891.98	19369
892.103	19251
892.226	19365
892.349	19278
892.471	19259
892.594	19304
892.717	19263
892.839	19236
892.962	19255
893.085	19346
893.207	19228
893.33	19042
893.452	19187
893.575	19270
893.697	19183
893.819	19407
893.941	19480
894.064	19449
894.186	19141
894.308	19190
894.43	19407
894.552	19365
894.674	19285
894.796	19171
894.918	19126
895.04	19259
895.161	19426
895.283	19324
895.405	19217
895.526	19346
895.648	19263
895.769	19449
895.891	19339
896.012	19293
896.134	19343
896.255	19422
896.376	19259
896.498	19255
896.619	19464
896.74	19377
896.861	19441
896.982	19628
897.103	19772
897.224	19510
897.345	19514
897.466	19476
897.587	19544
897.708	19575
897.828	19594
897.949	19422
898.07	19312
898.19	19468
898.311	19655
898.431	19472
898.552	19453
898.672	19605
898.792	19624
898.913	19563
899.033	19324
899.153	19373
899.273	19187
899.393	19160
899.513	19316
899.633	19179
899.753	19240
899.873	19110
899.993	19320
900.113	19145
900.232	19217
900.352	19148
900.472	19061
900.591	19019
900.711	19027
900.83	19072
900.95	19099
901.069	19069
901.189	18814
901.308	18703
901.427	18616
901.546	18707
901.665	18665
901.784	18597
901.904	18490
902.023	18391
902.141	18262
902.26	18174
902.379	18262
902.498	18110
902.617	18034
902.735	18159
902.854	18129
902.973	18064
903.091	17828
903.21	17809
903.328	17866
903.446	17695
903.565	17600
903.683	17638
903.801	17551
903.919	17577
904.038	17558
904.156	17299
904.274	17414
904.392	17368
904.51	17395
904.627	17368
904.745	17482
904.863	17463
904.981	17193
905.098	17094
905.216	17094
905.334	17037
905.451	17037
905.569	17029
905.686	17151
905.803	17178
905.921	16820
906.038	17025
906.155	17048
906.272	16790
906.389	16843
906.506	16675
906.623	16500
906.74	16565
906.857	16516
906.974	16577
907.091	16645
907.208	16790
907.324	16653
907.441	16481
907.557	16344
907.674	16344
907.79	16230
907.907	16268
908.023	16314
908.139	16356
908.256	16207
908.372	16192
908.488	16230
908.604	16112
908.72	16021
908.836	16044
908.952	15998
909.068	16120
909.184	16265
909.3	16002
909.415	16150
909.531	16082
909.647	15762
909.762	15785
909.878	15679
909.993	15686
910.108	15652
910.224	15610
910.339	15747
910.454	15694
910.57	15580
910.685	15458
910.8	15778
910.915	15671
911.03	15599
911.145	15435
911.259	15332
911.374	15359
911.489	15336
911.604	15233
911.718	15146
911.833	15119
911.947	15028
912.062	14921
912.176	15127
912.291	15047
912.405	15097
912.519	15279
912.633	15214
912.748	15093
912.862	15070
912.976	14937
913.09	14781
913.204	14830
913.318	14845
913.431	14994
913.545	14998
913.659	15024
913.772	14883
913.886	14693
914	14727
914.113	14758
914.226	14910
914.34	14807
914.453	14693
914.566	14849
914.68	14610
914.793	14648
914.906	14415
915.019	14393
915.132	14309
915.245	14400
915.358	14317
915.47	14374
915.583	14393
915.696	14339
915.809	14465
915.921	14476
916.034	14237
916.146	14221
916.259	14176
916.371	14317
916.483	14374
916.595	14206
916.708	14214
916.82	14180
916.932	14145
917.044	14115
917.156	14164
917.268	14035
917.38	14100
917.491	13959
917.603	13986
917.715	14096
917.826	14145
917.938	13925
918.049	13921
918.161	14012
918.272	14145
918.384	14103
918.495	13940
918.606	13887
918.717	13712
918.828	13791
918.939	13860
919.05	13693
919.161	13898
919.272	13616
919.383	13708
919.494	13837
919.604	13982
919.715	13772
919.826	13750
919.936	13685
920.047	13830
920.157	13830
920.267	14005
920.378	13879
920.488	13791
920.598	13921
920.708	14005
920.818	13936
920.928	13913
921.038	14062
921.148	14024
921.258	13658
921.368	13613
921.477	13537
921.587	13514
921.697	13350
921.806	13487
921.916	13411
922.025	13156
922.134	13137
922.244	13126
922.353	13202
922.462	13156
922.571	13031
922.68	12795
922.789	12764
922.898	12768
923.007	12700
923.116	12802
923.224	12814
923.333	12779
923.442	12711
923.55	12642
923.659	12597
923.767	12662
923.876	12498
923.984	12707
924.092	12525
924.201	12612
924.309	12608
924.417	12452
924.525	12490
924.633	12506
924.741	13244
924.849	12338
924.956	12448
925.064	12380
925.172	12216
925.279	12251
925.387	12289
925.494	12254
925.602	12266
925.709	12270
925.816	12194
925.924	12186
926.031	12323
926.138	12228
926.245	12285
926.352	12216
926.459	12235
926.566	12292
926.673	12163
926.779	11973
926.886	11999
926.993	11889
927.099	11843
927.206	11764
927.312	11767
927.419	11851
927.525	11843
927.631	11897
927.737	11805
927.843	11703
927.95	11573
928.056	11699
928.162	11756
928.267	11733
928.373	12350
928.479	11726
928.585	11524
928.69	11684
928.796	11729
928.901	11551
929.007	11474
929.112	11558
929.218	11547
929.323	11425
929.428	11459
929.533	11570
929.638	11299
929.743	11398
929.848	11471
929.953	11383
930.058	11322
930.163	11136
930.267	11166
930.372	11250
930.477	11136
930.581	11303
930.685	11117
930.79	11029
930.894	10995
930.998	10957
931.103	11124
931.207	10691
931.311	10698
931.415	10672
931.519	10402
931.623	10367
