Data from test_V78500241_823.txt Node
Date: Fri Mar 25 15:15:35 CST 2022
User: usil
Spectrometer: V785-0024
Trigger mode: 0
Integration Time (sec): 4.000000E-1
Scans to average: 1
Nonlinearity correction enabled: false
Boxcar width: 0
Storing dark spectrum: false
XAxis mode: Wavelengths
Number of Pixels in Spectrum: 1024
>>>>>Begin Spectral Data<<<<<
801.071	28382
801.214	28147
801.356	28044
801.499	27899
801.641	27869
801.783	27804
801.926	27945
802.068	27934
802.211	27614
802.353	27709
802.496	27530
802.638	27507
802.78	27523
802.923	27519
803.065	27393
803.208	27481
803.35	27477
803.492	27736
803.635	27762
803.777	27618
803.919	27736
804.061	28025
804.204	27762
804.346	27701
804.488	27690
804.63	27789
804.773	27549
804.915	27747
805.057	27724
805.199	27663
805.341	27907
805.483	27800
805.626	27797
805.768	27724
805.91	27869
806.052	27911
806.194	27793
806.336	28116
806.478	28086
806.62	27827
806.762	27876
806.904	28131
807.046	28428
807.188	28306
807.33	28272
807.472	28436
807.614	28147
807.756	28143
807.898	28154
808.04	28131
808.182	28166
808.324	28242
808.465	28135
808.607	28443
808.749	28577
808.891	28626
809.033	28645
809.174	28588
809.316	28516
809.458	28493
809.6	28569
809.741	28736
809.883	28683
810.025	28786
810.166	28778
810.308	28805
810.45	28862
810.591	28866
810.733	28615
810.875	28554
811.016	28538
811.158	28485
811.299	28725
811.441	28706
811.582	28710
811.724	28584
811.865	28466
812.007	28561
812.148	28580
812.29	28706
812.431	28847
812.573	28778
812.714	28942
812.855	29170
812.997	29113
813.138	29303
813.279	29280
813.421	29151
813.562	29162
813.703	28949
813.845	28778
813.986	28599
814.127	28375
814.268	28246
814.41	28310
814.551	28272
814.692	28219
814.833	28234
814.974	28238
815.115	28234
815.256	28105
815.397	28246
815.539	28204
815.68	28120
815.821	28017
815.962	28154
816.103	28059
816.244	27979
816.385	27994
816.526	27930
816.666	27599
816.807	27488
816.948	27690
817.089	27800
817.23	27686
817.371	27614
817.512	27644
817.653	27538
817.793	27572
817.934	27447
818.075	27637
818.216	27622
818.356	27629
818.497	27397
818.638	27454
818.778	27310
818.919	27367
819.06	27302
819.2	27519
819.341	27462
819.481	27568
819.622	27739
819.762	28025
819.903	27941
820.043	27793
820.184	27694
820.324	27720
820.465	27774
820.605	27880
820.746	27686
820.886	27507
821.026	27774
821.167	27682
821.307	27599
821.447	27595
821.588	27557
821.728	27405
821.868	27211
822.008	27066
822.149	27074
822.289	26906
822.429	26689
822.569	26636
822.709	26674
822.849	26689
822.99	26625
823.13	26583
823.27	26499
823.41	26484
823.55	26282
823.69	26488
823.83	26393
823.97	26362
824.11	26176
824.25	26115
824.389	26149
824.529	26149
824.669	26290
824.809	26446
824.949	26324
825.089	26385
825.228	26332
825.368	26183
825.508	26046
825.648	26119
825.787	26069
825.927	26206
826.067	26122
826.206	26043
826.346	26043
826.485	26142
826.625	25989
826.765	26263
826.904	26206
827.044	25814
827.183	25940
827.323	25955
827.462	25887
827.601	25696
827.741	25784
827.88	25890
828.02	25845
828.159	25750
828.298	25784
828.437	25913
828.577	25807
828.716	25822
828.855	25803
828.994	25308
829.134	25514
829.273	25556
829.412	25453
829.551	25373
829.69	25635
829.829	25537
829.968	25460
830.107	25445
830.246	25590
830.385	25533
830.524	25327
830.663	25198
830.802	25350
830.941	25133
831.08	24973
831.219	25228
831.357	25324
831.496	25304
831.635	25099
831.774	25148
831.913	24928
832.051	24882
832.19	24878
832.329	24837
832.467	24817
832.606	24821
832.744	24783
832.883	24814
833.022	24661
833.16	24837
833.299	24711
833.437	24817
833.576	24871
833.714	24806
833.852	24909
833.991	24916
834.129	24901
834.267	24810
834.406	24901
834.544	24776
834.682	24954
834.821	24760
834.959	24935
835.097	24798
835.235	24935
835.373	24840
835.511	24779
835.65	24635
835.788	24703
835.926	24688
836.064	24494
836.202	24650
836.34	24779
836.478	24806
836.615	24601
836.753	24779
836.891	24616
837.029	24688
837.167	24661
837.305	24707
837.443	24403
837.58	24604
837.718	24536
837.856	24570
837.993	24505
838.131	24426
838.269	24414
838.406	24422
838.544	24273
838.681	24152
838.819	24182
838.956	24098
839.094	23935
839.231	24079
839.369	24178
839.506	24494
839.643	24106
839.781	24129
839.918	23931
840.055	23870
840.193	23939
840.33	23908
840.467	23889
840.604	23897
840.742	24232
840.879	23836
841.016	23813
841.153	23790
841.29	23920
841.427	23817
841.564	23908
841.701	23923
841.838	23882
841.975	23748
842.112	23710
842.249	23707
842.385	23551
842.522	23882
842.659	23596
842.796	23672
842.933	23596
843.069	23539
843.206	23649
843.343	23600
843.479	23668
843.616	23741
843.752	23356
843.889	23360
844.025	23505
844.162	23341
844.298	23406
844.435	23334
844.571	23383
844.708	23493
844.844	23623
844.98	23653
845.117	23501
845.253	23307
845.389	23193
845.525	23284
845.661	23216
845.798	23181
845.934	23181
846.07	23071
846.206	23250
846.342	23166
846.478	23181
846.614	23025
846.75	22881
846.886	22820
847.022	22949
847.158	22919
847.294	22873
847.429	22881
847.565	22885
847.701	23166
847.837	22607
847.972	22535
848.108	22656
848.244	22675
848.379	22516
848.515	22481
848.65	22546
848.786	22428
848.921	22497
849.057	22691
849.192	22516
849.328	22459
849.463	22306
849.598	22478
849.734	22379
849.869	22280
850.004	22181
850.14	22207
850.275	22306
850.41	22280
850.545	22078
850.68	22207
850.815	22211
850.95	22234
851.085	22413
851.22	22310
851.355	22188
851.49	22185
851.625	22238
851.76	22188
851.895	22192
852.03	22044
852.165	22284
852.299	22234
852.434	22341
852.569	22299
852.703	22223
852.838	22405
852.973	22386
853.107	22409
853.242	22261
853.376	22150
853.511	21884
853.645	22040
853.78	22154
853.914	22090
854.048	22055
854.183	22025
854.317	22284
854.451	22185
854.585	22059
854.72	22097
854.854	22128
854.988	22040
855.122	22082
855.256	21911
855.39	22055
855.524	22128
855.658	22105
855.792	22093
855.926	22109
856.06	22021
856.194	22150
856.327	21991
856.461	21937
856.595	22059
856.729	22048
856.862	22181
856.996	22112
857.13	22131
857.263	22192
857.397	22173
857.53	22109
857.664	22158
857.797	22238
857.931	22131
858.064	22040
858.197	21991
858.331	22029
858.464	21998
858.597	21994
858.731	22101
858.864	22040
858.997	21998
859.13	22002
859.263	21987
859.396	22166
859.529	21998
859.662	21937
859.795	22021
859.928	22010
860.061	22204
860.194	22303
860.327	22059
860.46	22017
860.592	22192
860.725	22211
860.858	22204
860.99	22051
861.123	22036
861.256	21926
861.388	21953
861.521	22702
861.653	21869
861.786	21774
861.918	21759
862.05	21975
862.183	21930
862.315	21968
862.447	22097
862.58	22006
862.712	21698
862.844	21686
862.976	21861
863.108	21846
863.24	22055
863.372	21675
863.504	21705
863.636	21652
863.768	21736
863.9	21774
864.032	21682
864.164	21747
864.296	21762
864.428	21785
864.559	21899
864.691	21827
864.823	21732
864.954	21648
865.086	21690
865.217	21644
865.349	21583
865.48	21660
865.612	21633
865.743	21774
865.875	21713
866.006	21580
866.137	21637
866.269	21644
866.4	21504
866.531	21500
866.662	21515
866.793	21534
866.924	21595
867.055	21606
867.186	21595
867.317	21583
867.448	21526
867.579	21530
867.71	21511
867.841	21572
867.972	21660
868.103	21507
868.233	21595
868.364	21557
868.495	21648
868.625	21797
868.756	21797
868.886	21751
869.017	21739
869.147	21945
869.278	21979
869.408	21701
869.539	21808
869.669	21895
869.799	21778
869.929	21926
870.06	21895
870.19	22223
870.32	22044
870.45	22051
870.58	22135
870.71	22215
870.84	22261
870.97	22230
871.1	22211
871.23	22333
871.36	22402
871.489	22329
871.619	22497
871.749	22382
871.879	22424
872.008	22459
872.138	22318
872.267	22413
872.397	22246
872.526	22166
872.656	22158
872.785	22162
872.915	22375
873.044	22451
873.173	22424
873.303	22413
873.432	22417
873.561	22428
873.69	22424
873.819	22409
873.948	22527
874.077	22379
874.206	22352
874.335	22417
874.464	22546
874.593	22512
874.722	22535
874.851	22630
874.979	22710
875.108	22774
875.237	22561
875.365	22405
875.494	22577
875.623	22634
875.751	22527
875.88	22542
876.008	22843
876.136	22793
876.265	23037
876.393	23033
876.521	23128
876.65	23166
876.778	22984
876.906	22835
877.034	22938
877.162	22995
877.29	22767
877.418	22987
877.546	22919
877.674	22908
877.802	23071
877.93	22949
878.058	22835
878.185	22839
878.313	22915
878.441	22854
878.568	22733
878.696	22847
878.824	22999
878.951	23090
879.079	23162
879.206	23162
879.333	23052
879.461	22900
879.588	23136
879.715	23105
879.842	23170
879.97	23006
880.097	22725
880.224	22805
880.351	22733
880.478	22778
880.605	22755
880.732	22721
880.859	23003
880.986	22824
881.112	22683
881.239	22702
881.366	22512
881.493	22356
881.619	22402
881.746	22459
881.872	22329
881.999	22215
882.125	22261
882.252	22459
882.378	22284
882.505	22516
882.631	22261
882.757	22090
882.883	22078
883.01	22051
883.136	22051
883.262	21911
883.388	21922
883.514	22055
883.64	22147
883.766	22021
883.892	21713
884.018	21854
884.143	21968
884.269	22017
884.395	21743
884.52	21698
884.646	21732
884.772	21572
884.897	21618
885.023	21762
885.148	21694
885.274	21789
885.399	21846
885.524	21667
885.65	21770
885.775	21679
885.9	21633
886.025	21770
886.15	21739
886.275	21504
886.4	21583
886.525	21622
886.65	21614
886.775	21641
886.9	21671
887.025	21956
887.149	21671
887.274	21637
887.399	21416
887.523	21454
887.648	21450
887.773	21351
887.897	21473
888.021	21488
888.146	21370
888.27	21606
888.395	21515
888.519	21450
888.643	21530
888.767	21481
888.891	21386
889.015	21264
889.139	21321
889.263	21066
889.387	21294
889.511	21370
889.635	21405
889.759	21157
889.883	21260
890.006	21252
890.13	21283
890.254	21146
890.377	21252
890.501	20868
890.624	20982
890.748	21077
890.871	20868
890.995	20746
891.118	20667
891.241	20769
891.364	20788
891.488	20910
891.611	20804
891.734	20921
891.857	20800
891.98	20796
892.103	20857
892.226	20788
892.349	20701
892.471	20552
892.594	20792
892.717	20667
892.839	20682
892.962	20682
893.085	20788
893.207	20648
893.33	20507
893.452	20522
893.575	20659
893.697	20648
893.819	20773
893.941	20792
894.064	20906
894.186	20556
894.308	20545
894.43	20834
894.552	20655
894.674	20815
894.796	20530
894.918	20560
895.04	20663
895.161	20758
895.283	20743
895.405	20636
895.526	20526
895.648	20564
895.769	20682
895.891	20556
896.012	20701
896.134	20746
896.255	20686
896.376	20693
896.498	20693
896.619	20606
896.74	20590
896.861	20587
896.982	20914
897.103	20921
897.224	20937
897.345	20868
897.466	20807
897.587	20876
897.708	20975
897.828	20864
897.949	20724
898.07	20712
898.19	20804
898.311	20834
898.431	20735
898.552	20678
898.672	20899
898.792	20864
898.913	20819
899.033	20800
899.153	20678
899.273	20549
899.393	20590
899.513	20602
899.633	20655
899.753	20609
899.873	20583
899.993	20590
900.113	20560
900.232	20549
900.352	20484
900.472	20400
900.591	20362
900.711	20431
900.83	20275
900.95	20488
901.069	20514
901.189	20370
901.308	20020
901.427	19864
901.546	20016
901.665	20024
901.784	19974
901.904	19879
902.023	19700
902.141	19529
902.26	19510
902.379	19556
902.498	19502
902.617	19350
902.735	19468
902.854	19468
902.973	19240
903.091	19080
903.21	19141
903.328	19183
903.446	19038
903.565	18939
903.683	18882
903.801	18844
903.919	18806
904.038	18909
904.156	18700
904.274	18779
904.392	18684
904.51	18623
904.627	18665
904.745	18715
904.863	18677
904.981	18475
905.098	18319
905.216	18448
905.334	18395
905.451	18361
905.569	18388
905.686	18452
905.803	18300
905.921	18110
906.038	18197
906.155	18121
906.272	17988
906.389	18072
906.506	17988
906.623	17923
906.74	17969
906.857	17851
906.974	17764
907.091	17980
907.208	17923
907.324	17855
907.441	17714
907.557	17649
907.674	17619
907.79	17512
907.907	17520
908.023	17611
908.139	17573
908.256	17524
908.372	17471
908.488	17604
908.604	17364
908.72	17341
908.836	17337
908.952	17353
909.068	17349
909.184	17376
909.3	17299
909.415	17296
909.531	17360
909.647	17022
909.762	17109
909.878	17094
909.993	17010
910.108	17006
910.224	16968
910.339	16995
910.454	16923
910.57	16733
910.685	16755
910.8	16987
910.915	16984
911.03	16820
911.145	16694
911.259	16615
911.374	16622
911.489	16462
911.604	16390
911.718	16337
911.833	16379
911.947	16223
912.062	16154
912.176	16329
912.291	16417
912.405	16246
912.519	16519
912.633	16402
912.748	16356
912.862	16215
912.976	16200
913.09	16059
913.204	16071
913.318	16219
913.431	16204
913.545	16253
913.659	16284
913.772	16169
913.886	16051
914	16002
914.113	16093
914.226	16082
914.34	15949
914.453	15869
914.566	15979
914.68	15835
914.793	15793
914.906	15603
915.019	15526
915.132	15481
915.245	15614
915.358	15557
915.47	15538
915.583	15450
915.696	15587
915.809	15606
915.921	15732
916.034	15458
916.146	15401
916.259	15462
916.371	15431
916.483	15515
916.595	15329
916.708	15275
916.82	15321
916.932	15325
917.044	15370
917.156	15249
917.268	15184
917.38	15176
917.491	15214
917.603	15188
917.715	15264
917.826	15211
917.938	15184
918.049	15062
918.161	15039
918.272	15184
918.384	15138
918.495	15085
918.606	14963
918.717	14838
918.828	14982
918.939	14975
919.05	14891
919.161	14864
919.272	14811
919.383	14674
919.494	14918
919.604	15161
919.715	14895
919.826	14659
919.936	14963
920.047	14937
920.157	14876
920.267	15146
920.378	14910
920.488	14807
920.598	14994
920.708	15199
920.818	15070
920.928	15085
921.038	15138
921.148	15089
921.258	14777
921.368	14754
921.477	14670
921.587	14545
921.697	14404
921.806	14526
921.916	14511
922.025	14362
922.134	14267
922.244	14191
922.353	14275
922.462	14164
922.571	14145
922.68	13963
922.789	13852
922.898	13864
923.007	13887
923.116	13887
923.224	13852
923.333	13871
923.442	13761
923.55	13746
923.659	13723
923.767	13795
923.876	13658
923.984	13715
924.092	13677
924.201	13658
924.309	13552
924.417	13613
924.525	13609
924.633	13586
924.741	14237
924.849	13365
924.956	13411
925.064	13392
925.172	13278
925.279	13285
925.387	13354
925.494	13236
925.602	13430
925.709	13320
925.816	13308
925.924	13251
926.031	13270
926.138	13183
926.245	13213
926.352	13118
926.459	13350
926.566	13369
926.673	13213
926.779	12993
926.886	13122
926.993	12856
927.099	12905
927.206	12829
927.312	12814
927.419	12867
927.525	12840
927.631	12886
927.737	12703
927.843	12650
927.95	12631
928.056	12566
928.162	12604
928.267	12646
928.373	13297
928.479	12711
928.585	12467
928.69	12551
928.796	12711
928.901	12528
929.007	12327
929.112	12509
929.218	12502
929.323	12410
929.428	12323
929.533	12448
929.638	12410
929.743	12342
929.848	12407
929.953	12277
930.058	12194
930.163	12022
930.267	12064
930.372	12235
930.477	12038
930.581	12216
930.685	12136
930.79	11977
930.894	11965
930.998	11908
931.103	12030
931.207	11615
931.311	11581
931.415	11452
931.519	11372
931.623	11273
