Data from test_V78500241_2681.txt Node
Date: Fri Mar 25 15:28:31 CST 2022
User: usil
Spectrometer: V785-0024
Trigger mode: 0
Integration Time (sec): 4.000000E-1
Scans to average: 1
Nonlinearity correction enabled: false
Boxcar width: 0
Storing dark spectrum: false
XAxis mode: Wavelengths
Number of Pixels in Spectrum: 1024
>>>>>Begin Spectral Data<<<<<
801.071	27085
801.214	26986
801.356	26895
801.499	26590
801.641	26739
801.783	26712
801.926	26674
802.068	26720
802.211	26598
802.353	26503
802.496	26351
802.638	26195
802.78	26377
802.923	26290
803.065	26107
803.208	26256
803.35	26313
803.492	26298
803.635	26377
803.777	26195
803.919	26343
804.061	26807
804.204	26438
804.346	26366
804.488	26278
804.63	26336
804.773	26271
804.915	26488
805.057	26431
805.199	26336
805.341	26438
805.483	26602
805.626	26476
805.768	26404
805.91	26571
806.052	26598
806.194	26484
806.336	26731
806.478	26522
806.62	26396
806.762	26670
806.904	26823
807.046	27013
807.188	26963
807.33	26906
807.472	27104
807.614	26765
807.756	26788
807.898	26659
808.04	26800
808.182	26667
808.324	26792
808.465	26861
808.607	27077
808.749	26998
808.891	27138
809.033	27241
809.174	27085
809.316	27074
809.458	27214
809.6	27252
809.741	27203
809.883	27332
810.025	27427
810.166	27237
810.308	27397
810.45	27447
810.591	27325
810.733	27043
810.875	27188
811.016	27150
811.158	27157
811.299	27260
811.441	27146
811.582	27321
811.724	27077
811.865	27150
812.007	26925
812.148	27077
812.29	27077
812.431	27310
812.573	27393
812.714	27591
812.855	27462
812.997	27701
813.138	27736
813.279	27682
813.421	27576
813.562	27633
813.703	27367
813.845	27245
813.986	26963
814.127	26769
814.268	26743
814.41	26800
814.551	26724
814.692	26762
814.833	26716
814.974	26678
815.115	26724
815.256	26541
815.397	26530
815.539	26606
815.68	26583
815.821	26393
815.962	26526
816.103	26476
816.244	26434
816.385	26358
816.526	26229
816.666	26202
816.807	25928
816.948	26058
817.089	26210
817.23	26046
817.371	26046
817.512	26062
817.653	25944
817.793	25936
817.934	26084
818.075	26084
818.216	25993
818.356	25963
818.497	25959
818.638	25670
818.778	25757
818.919	25681
819.06	25723
819.2	25959
819.341	25966
819.481	25955
819.622	26187
819.762	26400
819.903	26180
820.043	26096
820.184	26065
820.324	26058
820.465	26294
820.605	26103
820.746	26092
820.886	25944
821.026	26119
821.167	26027
821.307	26062
821.447	26062
821.588	25913
821.728	25879
821.868	25620
822.008	25575
822.149	25460
822.289	25441
822.429	25198
822.569	25278
822.709	25228
822.849	24954
822.99	25008
823.13	25015
823.27	24958
823.41	24829
823.55	24768
823.69	24779
823.83	24840
823.97	24700
824.11	24509
824.25	24597
824.389	24555
824.529	24745
824.669	24623
824.809	24787
824.949	24779
825.089	24757
825.228	24719
825.368	24517
825.508	24399
825.648	24555
825.787	24574
825.927	24570
826.067	24407
826.206	24460
826.346	24517
826.485	24673
826.625	24414
826.765	24635
826.904	24540
827.044	24232
827.183	24266
827.323	24285
827.462	24357
827.601	24232
827.741	24140
827.88	24220
828.02	24038
828.159	24064
828.298	24136
828.437	24342
828.577	24167
828.716	24220
828.855	24038
828.994	23897
829.134	23882
829.273	23916
829.412	23805
829.551	23821
829.69	23942
829.829	23851
829.968	23840
830.107	23939
830.246	23878
830.385	23832
830.524	23828
830.663	23733
830.802	23718
830.941	23570
831.08	23436
831.219	23627
831.357	23543
831.496	23627
831.635	23657
831.774	23493
831.913	23414
832.051	23410
832.19	23330
832.329	23334
832.467	23128
832.606	23200
832.744	23086
832.883	23193
833.022	23121
833.16	23136
833.299	23067
833.437	23231
833.576	23273
833.714	23235
833.852	23235
833.991	23379
834.129	23360
834.267	23421
834.406	23269
834.544	23258
834.682	23273
834.821	23197
834.959	23372
835.097	23174
835.235	23383
835.373	23322
835.511	23197
835.65	23052
835.788	23090
835.926	22987
836.064	22904
836.202	23044
836.34	23033
836.478	23166
836.615	23128
836.753	23117
836.891	23239
837.029	23117
837.167	23075
837.305	22873
837.443	22987
837.58	22995
837.718	23109
837.856	22961
837.993	22991
838.131	22957
838.269	22835
838.406	22733
838.544	22653
838.681	22630
838.819	22447
838.956	22447
839.094	22424
839.231	22462
839.369	22656
839.506	22790
839.643	22607
839.781	22394
839.918	22455
840.055	22413
840.193	22443
840.33	22432
840.467	22390
840.604	22512
840.742	22797
840.879	22219
841.016	22249
841.153	22204
841.29	22371
841.427	22360
841.564	22329
841.701	22337
841.838	22333
841.975	22299
842.112	22261
842.249	22310
842.385	22196
842.522	22356
842.659	22242
842.796	22207
842.933	22059
843.069	21983
843.206	22013
843.343	22109
843.479	22059
843.616	22105
843.752	21857
843.889	21892
844.025	22032
844.162	21736
844.298	22082
844.435	21892
844.571	21720
844.708	21873
844.844	22086
844.98	22116
845.117	21835
845.253	21835
845.389	21804
845.525	21903
845.661	21747
845.798	21644
845.934	21591
846.07	21587
846.206	21671
846.342	21732
846.478	21549
846.614	21401
846.75	21291
846.886	21530
847.022	21359
847.158	21344
847.294	21268
847.429	21416
847.565	21340
847.701	21728
847.837	21074
847.972	20990
848.108	21233
848.244	21218
848.379	21017
848.515	20910
848.65	20979
848.786	20963
848.921	20975
849.057	21169
849.192	21089
849.328	20960
849.463	20891
849.598	20914
849.734	20815
849.869	20853
850.004	20762
850.14	20670
850.275	20701
850.41	20754
850.545	20712
850.68	20712
850.815	20887
850.95	20708
851.085	20811
851.22	20807
851.355	20697
851.49	20739
851.625	20735
851.76	20712
851.895	20598
852.03	20693
852.165	20758
852.299	20849
852.434	20743
852.569	20648
852.703	20708
852.838	20689
852.973	20971
853.107	20777
853.242	20785
853.376	20571
853.511	20461
853.645	20541
853.78	20640
853.914	20644
854.048	20522
854.183	20587
854.317	20457
854.451	20735
854.585	20564
854.72	20640
854.854	20743
854.988	20454
855.122	20609
855.256	20488
855.39	20537
855.524	20648
855.658	20682
855.792	20609
855.926	20526
856.06	20651
856.194	20609
856.327	20564
856.461	20495
856.595	20476
856.729	20560
856.862	20674
856.996	20682
857.13	20537
857.263	20674
857.397	20587
857.53	20655
857.664	20457
857.797	20617
857.931	20594
858.064	20602
858.197	20640
858.331	20511
858.464	20400
858.597	20495
858.731	20396
858.864	20492
858.997	20522
859.13	20526
859.263	20564
859.396	20590
859.529	20442
859.662	20457
859.795	20522
859.928	20495
860.061	20724
860.194	20697
860.327	20613
860.46	20522
860.592	20651
860.725	20693
860.858	20526
860.99	20587
861.123	20495
861.256	20434
861.388	20644
861.521	21313
861.653	20412
861.786	20298
861.918	20351
862.05	20499
862.183	20442
862.315	20644
862.447	20568
862.58	20473
862.712	20221
862.844	20298
862.976	20389
863.108	20286
863.24	20686
863.372	20168
863.504	20385
863.636	20221
863.768	20290
863.9	20195
864.032	20210
864.164	20164
864.296	20423
864.428	20202
864.559	20328
864.691	20393
864.823	20233
864.954	20278
865.086	20248
865.217	20229
865.349	20130
865.48	20218
865.612	20153
865.743	20164
865.875	20214
866.006	20096
866.137	20244
866.269	20244
866.4	20115
866.531	20020
866.662	20016
866.793	20122
866.924	20122
867.055	20035
867.186	20054
867.317	20157
867.448	20092
867.579	20134
867.71	20103
867.841	19928
867.972	20153
868.103	20088
868.233	19982
868.364	20069
868.495	20111
868.625	20343
868.756	20488
868.886	20256
869.017	20377
869.147	20427
869.278	20450
869.408	20431
869.539	20275
869.669	20457
869.799	20355
869.929	20476
870.06	20541
870.19	20750
870.32	20674
870.45	20583
870.58	20724
870.71	20807
870.84	20834
870.97	20762
871.1	20785
871.23	20937
871.36	20990
871.489	20872
871.619	20872
871.749	20982
871.879	20994
872.008	20963
872.138	21058
872.267	20998
872.397	20861
872.526	20785
872.656	20712
872.785	20777
872.915	21001
873.044	21100
873.173	20998
873.303	21112
873.432	20986
873.561	21161
873.69	21024
873.819	20853
873.948	20994
874.077	20994
874.206	20918
874.335	20975
874.464	21017
874.593	21214
874.722	21165
874.851	21268
874.979	21275
875.108	21272
875.237	21108
875.365	20979
875.494	21218
875.623	21294
875.751	21180
875.88	21173
876.008	21302
876.136	21443
876.265	21488
876.393	21793
876.521	21545
876.65	21736
876.778	21656
876.906	21572
877.034	21557
877.162	21557
877.29	21564
877.418	21701
877.546	21606
877.674	21591
877.802	21580
877.93	21526
878.058	21553
878.185	21553
878.313	21587
878.441	21568
878.568	21500
878.696	21542
878.824	21705
878.951	21705
879.079	21819
879.206	21880
879.333	21774
879.461	21553
879.588	21751
879.715	21698
879.842	21838
879.97	21644
880.097	21416
880.224	21252
880.351	21378
880.478	21344
880.605	21397
880.732	21523
880.859	21622
880.986	21401
881.112	21504
881.239	21268
881.366	21116
881.493	21119
881.619	21005
881.746	20929
881.872	21047
881.999	21055
882.125	20883
882.252	20963
882.378	20948
882.505	21081
882.631	20891
882.757	20739
882.883	20670
883.01	20659
883.136	20602
883.262	20549
883.388	20473
883.514	20716
883.64	20716
883.766	20705
883.892	20492
884.018	20389
884.143	20621
884.269	20716
884.395	20377
884.52	20305
884.646	20530
884.772	20248
884.897	20263
885.023	20374
885.148	20484
885.274	20450
885.399	20423
885.524	20313
885.65	20400
885.775	20366
885.9	20309
886.025	20355
886.15	20389
886.275	20434
886.4	20267
886.525	20370
886.65	20218
886.775	20309
886.9	20454
887.025	20583
887.149	20237
887.274	20168
887.399	20103
887.523	20149
887.648	20111
887.773	20069
887.897	20218
888.021	20081
888.146	20107
888.27	20157
888.395	20107
888.519	20187
888.643	20180
888.767	20153
888.891	19993
889.015	20031
889.139	20077
889.263	19868
889.387	20016
889.511	20149
889.635	20077
889.759	19795
889.883	19913
890.006	19955
890.13	20008
890.254	19746
890.377	19780
890.501	19693
890.624	19658
890.748	19814
890.871	19597
890.995	19559
891.118	19419
891.241	19609
891.364	19510
891.488	19563
891.611	19506
891.734	19514
891.857	19605
891.98	19533
892.103	19594
892.226	19685
892.349	19411
892.471	19320
892.594	19350
892.717	19419
892.839	19499
892.962	19362
893.085	19434
893.207	19384
893.33	19270
893.452	19415
893.575	19499
893.697	19441
893.819	19472
893.941	19655
894.064	19460
894.186	19270
894.308	19354
894.43	19483
894.552	19635
894.674	19544
894.796	19335
894.918	19350
895.04	19464
895.161	19483
895.283	19487
895.405	19320
895.526	19434
895.648	19533
895.769	19358
895.891	19575
896.012	19384
896.134	19324
896.255	19407
896.376	19377
896.498	19460
896.619	19533
896.74	19339
896.861	19510
896.982	19765
897.103	19951
897.224	19719
897.345	19719
897.466	19582
897.587	19674
897.708	19734
897.828	19651
897.949	19655
898.07	19559
898.19	19480
898.311	19742
898.431	19651
898.552	19655
898.672	19780
898.792	19742
898.913	19811
899.033	19533
899.153	19457
899.273	19373
899.393	19324
899.513	19449
899.633	19472
899.753	19499
899.873	19308
899.993	19499
900.113	19445
900.232	19499
900.352	19339
900.472	19377
900.591	19164
900.711	19221
900.83	19099
900.95	19388
901.069	19263
901.189	19179
901.308	18989
901.427	18913
901.546	18783
901.665	18817
901.784	18722
901.904	18700
902.023	18582
902.141	18350
902.26	18448
902.379	18448
902.498	18285
902.617	18384
902.735	18395
902.854	18357
902.973	18273
903.091	18102
903.21	17958
903.328	18106
903.446	18011
903.565	17843
903.683	17897
903.801	17566
903.919	17828
904.038	17775
904.156	17596
904.274	17687
904.392	17615
904.51	17589
904.627	17566
904.745	17703
904.863	17668
904.981	17440
905.098	17250
905.216	17246
905.334	17330
905.451	17246
905.569	17216
905.686	17315
905.803	17239
905.921	17052
906.038	17193
906.155	17083
906.272	17064
906.389	16976
906.506	16759
906.623	16767
906.74	16938
906.857	16698
906.974	16831
907.091	16869
907.208	16930
907.324	16793
907.441	16725
907.557	16550
907.674	16531
907.79	16390
907.907	16493
908.023	16611
908.139	16531
908.256	16580
908.372	16375
908.488	16462
908.604	16280
908.72	16200
908.836	16253
908.952	16272
909.068	16371
909.184	16360
909.3	16291
909.415	16226
909.531	16291
909.647	15964
909.762	15880
909.878	15930
909.993	15960
910.108	15975
910.224	15922
910.339	15979
910.454	15850
910.57	15739
910.685	15747
910.8	15953
910.915	15941
911.03	15747
911.145	15622
911.259	15641
911.374	15622
911.489	15469
911.604	15462
911.718	15336
911.833	15256
911.947	15313
912.062	15203
912.176	15287
912.291	15462
912.405	15310
912.519	15572
912.633	15572
912.748	15393
912.862	15348
912.976	15252
913.09	14994
913.204	14990
913.318	15188
913.431	15226
913.545	15317
913.659	15283
913.772	15112
913.886	14994
914	14948
914.113	15032
914.226	15077
914.34	15032
914.453	14895
914.566	14990
914.68	14868
914.793	14796
914.906	14663
915.019	14571
915.132	14492
915.245	14446
915.358	14598
915.47	14537
915.583	14530
915.696	14621
915.809	14743
915.921	14724
916.034	14552
916.146	14431
916.259	14408
916.371	14492
916.483	14556
916.595	14476
916.708	14419
916.82	14423
916.932	14347
917.044	14366
917.156	14381
917.268	14271
917.38	14305
917.491	14176
917.603	14240
917.715	14351
917.826	14309
917.938	14123
918.049	14107
918.161	14164
918.272	14317
918.384	14320
918.495	14164
918.606	14123
918.717	14073
918.828	14058
918.939	13970
919.05	13970
919.161	13967
919.272	13776
919.383	13871
919.494	14138
919.604	14126
919.715	13947
919.826	13860
919.936	14001
920.047	14001
920.157	14008
920.267	14187
920.378	14031
920.488	13921
920.598	14111
920.708	14278
920.818	14161
920.928	14138
921.038	14256
921.148	14275
921.258	13982
921.368	13928
921.477	13757
921.587	13693
921.697	13681
921.806	13761
921.916	13620
922.025	13460
922.134	13441
922.244	13415
922.353	13472
922.462	13282
922.571	13194
922.68	13133
922.789	12958
922.898	13053
923.007	12958
923.116	13042
923.224	13042
923.333	12985
923.442	12932
923.55	12894
923.659	12996
923.767	12886
923.876	12844
923.984	12848
924.092	12745
924.201	12848
924.309	12760
924.417	12757
924.525	12783
924.633	12730
924.741	13655
924.849	12498
924.956	12654
925.064	12521
925.172	12464
925.279	12407
925.387	12593
925.494	12471
925.602	12528
925.709	12559
925.816	12475
925.924	12471
926.031	12566
926.138	12437
926.245	12445
926.352	12399
926.459	12445
926.566	12464
926.673	12372
926.779	12266
926.886	12296
926.993	12148
927.099	12129
927.206	11996
927.312	12019
927.419	12140
927.525	12072
927.631	12083
927.737	11954
927.843	11954
927.95	11851
928.056	11813
928.162	11923
928.267	11946
928.373	12422
928.479	11988
928.585	11703
928.69	11885
928.796	11885
928.901	11821
929.007	11642
929.112	11840
929.218	11733
929.323	11726
929.428	11703
929.533	11847
929.638	11535
929.743	11634
929.848	11627
929.953	11585
930.058	11433
930.163	11318
930.267	11277
930.372	11455
930.477	11292
930.581	11482
930.685	11353
930.79	11220
930.894	11212
930.998	11220
931.103	11322
931.207	11117
931.311	10881
931.415	10786
931.519	10580
931.623	10649
