Data from test_V78500241_1959.txt Node
Date: Fri Mar 25 15:23:29 CST 2022
User: usil
Spectrometer: V785-0024
Trigger mode: 0
Integration Time (sec): 4.000000E-1
Scans to average: 1
Nonlinearity correction enabled: false
Boxcar width: 0
Storing dark spectrum: false
XAxis mode: Wavelengths
Number of Pixels in Spectrum: 1024
>>>>>Begin Spectral Data<<<<<
801.071	27690
801.214	27660
801.356	27427
801.499	27340
801.641	27230
801.783	27135
801.926	27252
802.068	27283
802.211	27146
802.353	27081
802.496	26819
802.638	26899
802.78	26819
802.923	26853
803.065	26731
803.208	26777
803.35	26830
803.492	26979
803.635	27104
803.777	26910
803.919	27032
804.061	27420
804.204	27245
804.346	27070
804.488	26956
804.63	27127
804.773	27009
804.915	27009
805.057	27207
805.199	27074
805.341	27077
805.483	27195
805.626	27173
805.768	26994
805.91	27104
806.052	27233
806.194	27085
806.336	27496
806.478	27291
806.62	27165
806.762	27275
806.904	27310
807.046	27637
807.188	27481
807.33	27576
807.472	27633
807.614	27370
807.756	27492
807.898	27416
808.04	27401
808.182	27374
808.324	27389
808.465	27454
808.607	27644
808.749	27736
808.891	27854
809.033	27945
809.174	27857
809.316	27698
809.458	27694
809.6	27534
809.741	27899
809.883	28002
810.025	27968
810.166	28074
810.308	28051
810.45	27994
810.591	27956
810.733	27762
810.875	27743
811.016	27743
811.158	27599
811.299	27842
811.441	27914
811.582	27880
811.724	27629
811.865	27561
812.007	27701
812.148	27652
812.29	27675
812.431	27953
812.573	28051
812.714	28147
812.855	28185
812.997	28390
813.138	28470
813.279	28462
813.421	28112
813.562	28067
813.703	28105
813.845	27831
813.986	27610
814.127	27553
814.268	27397
814.41	27382
814.551	27431
814.692	27610
814.833	27496
814.974	27511
815.115	27576
815.256	27306
815.397	27367
815.539	27325
815.68	27142
815.821	27116
815.962	27249
816.103	27154
816.244	27123
816.385	27005
816.526	26994
816.666	26830
816.807	26762
816.948	26830
817.089	26811
817.23	26750
817.371	26842
817.512	26602
817.653	26708
817.793	26689
817.934	26682
818.075	26750
818.216	26777
818.356	26651
818.497	26583
818.638	26347
818.778	26480
818.919	26453
819.06	26484
819.2	26716
819.341	26830
819.481	26678
819.622	26902
819.762	26956
819.903	26963
820.043	26940
820.184	26796
820.324	26883
820.465	26960
820.605	26857
820.746	26705
820.886	26807
821.026	26754
821.167	26762
821.307	26910
821.447	26739
821.588	26640
821.728	26514
821.868	26404
822.008	26305
822.149	26252
822.289	26122
822.429	26008
822.569	25887
822.709	25963
822.849	25727
822.99	25719
823.13	25696
823.27	25666
823.41	25537
823.55	25430
823.69	25479
823.83	25658
823.97	25552
824.11	25403
824.25	25114
824.389	25411
824.529	25502
824.669	25343
824.809	25407
824.949	25479
825.089	25350
825.228	25274
825.368	25129
825.508	25133
825.648	25148
825.787	25282
825.927	25255
826.067	25221
826.206	25221
826.346	25266
826.485	25266
826.625	25202
826.765	25278
826.904	25304
827.044	24951
827.183	25000
827.323	24970
827.462	24943
827.601	24928
827.741	24951
827.88	24871
828.02	24798
828.159	24859
828.298	24916
828.437	24962
828.577	24757
828.716	25008
828.855	24848
828.994	24639
829.134	24582
829.273	24639
829.412	24616
829.551	24563
829.69	24627
829.829	24715
829.968	24715
830.107	24646
830.246	24593
830.385	24601
830.524	24532
830.663	24505
830.802	24334
830.941	24277
831.08	24220
831.219	24334
831.357	24399
831.496	24304
831.635	24232
831.774	24140
831.913	24205
832.051	24041
832.19	24011
832.329	24030
832.467	23996
832.606	23935
832.744	23893
832.883	23889
833.022	23954
833.16	23901
833.299	24015
833.437	23969
833.576	23984
833.714	23999
833.852	24053
833.991	24114
834.129	24232
834.267	24026
834.406	24026
834.544	24064
834.682	23965
834.821	23935
834.959	24258
835.097	23977
835.235	23996
835.373	23996
835.511	23984
835.65	23809
835.788	23703
835.926	23817
836.064	23642
836.202	23634
836.34	23783
836.478	23866
836.615	23783
836.753	23813
836.891	23912
837.029	23878
837.167	23912
837.305	23771
837.443	23638
837.58	23611
837.718	23649
837.856	23691
837.993	23611
838.131	23760
838.269	23615
838.406	23551
838.544	23425
838.681	23429
838.819	23261
838.956	23121
839.094	23159
839.231	23178
839.369	23322
839.506	23577
839.643	23341
839.781	23109
839.918	23025
840.055	23140
840.193	23098
840.33	23220
840.467	22999
840.604	23044
840.742	23448
840.879	22980
841.016	22858
841.153	22839
841.29	23178
841.427	23166
841.564	23014
841.701	23022
841.838	23064
841.975	22949
842.112	22900
842.249	22892
842.385	22786
842.522	23079
842.659	22843
842.796	22763
842.933	22854
843.069	22725
843.206	22873
843.343	22976
843.479	22774
843.616	22778
843.752	22455
843.889	22584
844.025	22771
844.162	22645
844.298	22653
844.435	22630
844.571	22523
844.708	22615
844.844	22645
844.98	22774
845.117	22713
845.253	22618
845.389	22417
845.525	22531
845.661	22424
845.798	22310
845.934	22485
846.07	22325
846.206	22310
846.342	22417
846.478	22299
846.614	22109
846.75	22082
846.886	22021
847.022	22048
847.158	22078
847.294	22173
847.429	21979
847.565	21968
847.701	22234
847.837	21739
847.972	21663
848.108	21934
848.244	21850
848.379	21606
848.515	21549
848.65	21610
848.786	21698
848.921	21728
849.057	21823
849.192	21717
849.328	21713
849.463	21637
849.598	21679
849.734	21500
849.869	21466
850.004	21351
850.14	21367
850.275	21397
850.41	21363
850.545	21252
850.68	21325
850.815	21443
850.95	21329
851.085	21675
851.22	21538
851.355	21477
851.49	21382
851.625	21412
851.76	21454
851.895	21389
852.03	21317
852.165	21511
852.299	21370
852.434	21431
852.569	21428
852.703	21435
852.838	21370
852.973	21625
853.107	21469
853.242	21397
853.376	21325
853.511	21116
853.645	21173
853.78	21332
853.914	21302
854.048	21074
854.183	21222
854.317	21211
854.451	21526
854.585	21173
854.72	21165
854.854	21287
854.988	21188
855.122	21211
855.256	21093
855.39	21161
855.524	21089
855.658	21203
855.792	21275
855.926	21252
856.06	21233
856.194	21329
856.327	21218
856.461	21306
856.595	21142
856.729	21180
856.862	21367
856.996	21165
857.13	21176
857.263	21378
857.397	21336
857.53	21157
857.664	21268
857.797	21195
857.931	21298
858.064	21245
858.197	21420
858.331	21195
858.464	21150
858.597	21062
858.731	21119
858.864	21252
858.997	21169
859.13	21218
859.263	21222
859.396	21287
859.529	21173
859.662	21112
859.795	21169
859.928	21275
860.061	21424
860.194	21363
860.327	21294
860.46	21142
860.592	21447
860.725	21291
860.858	21477
860.99	21237
861.123	21100
861.256	21180
861.388	21195
861.521	21911
861.653	21135
861.786	21066
861.918	21081
862.05	21150
862.183	21157
862.315	21176
862.447	21252
862.58	21245
862.712	20948
862.844	20899
862.976	21020
863.108	21051
863.24	21351
863.372	20883
863.504	20941
863.636	20883
863.768	21074
863.9	20891
864.032	20838
864.164	20857
864.296	20781
864.428	21081
864.559	21017
864.691	21138
864.823	20842
864.954	20864
865.086	20883
865.217	20826
865.349	20720
865.48	20785
865.612	20811
865.743	20880
865.875	20887
866.006	20796
866.137	20792
866.269	20853
866.4	20891
866.531	20765
866.662	20880
866.793	20697
866.924	20769
867.055	20804
867.186	20754
867.317	20746
867.448	20762
867.579	20670
867.71	20708
867.841	20731
867.972	20895
868.103	20667
868.233	20746
868.364	20758
868.495	20834
868.625	21020
868.756	21138
868.886	20906
869.017	21005
869.147	21119
869.278	21199
869.408	21055
869.539	20986
869.669	21009
869.799	21066
869.929	21135
870.06	21020
870.19	21272
870.32	21264
870.45	21367
870.58	21450
870.71	21428
870.84	21564
870.97	21389
871.1	21447
871.23	21492
871.36	21549
871.489	21443
871.619	21644
871.749	21644
871.879	21633
872.008	21671
872.138	21644
872.267	21599
872.397	21485
872.526	21428
872.656	21542
872.785	21454
872.915	21629
873.044	21644
873.173	21690
873.303	21614
873.432	21690
873.561	21713
873.69	21633
873.819	21583
873.948	21633
874.077	21606
874.206	21595
874.335	21583
874.464	21679
874.593	21846
874.722	21774
874.851	21895
874.979	21880
875.108	21945
875.237	21709
875.365	21781
875.494	21873
875.623	21907
875.751	21698
875.88	21930
876.008	21987
876.136	21975
876.265	22109
876.393	22310
876.521	22265
876.65	22287
876.778	22211
876.906	22215
877.034	22158
877.162	22169
877.29	22265
877.418	22188
877.546	22249
877.674	22185
877.802	22120
877.93	22246
878.058	22215
878.185	22078
878.313	22139
878.441	22112
878.568	22173
878.696	22101
878.824	22116
878.951	22348
879.079	22223
879.206	22538
879.333	22363
879.461	22242
879.588	22268
879.715	22409
879.842	22363
879.97	22234
880.097	21994
880.224	21945
880.351	22131
880.478	22032
880.605	21991
880.732	21903
880.859	22276
880.986	22048
881.112	22063
881.239	22055
881.366	21766
881.493	21705
881.619	21534
881.746	21736
881.872	21507
881.999	21530
882.125	21564
882.252	21557
882.378	21644
882.505	21762
882.631	21298
882.757	21321
882.883	21317
883.01	21378
883.136	21279
883.262	21184
883.388	21108
883.514	21272
883.64	21420
883.766	21135
883.892	21058
884.018	21112
884.143	21192
884.269	21294
884.395	21028
884.52	20975
884.646	20804
884.772	20921
884.897	20902
885.023	20792
885.148	20994
885.274	21142
885.399	20967
885.524	20982
885.65	20952
885.775	20971
885.9	20929
886.025	21062
886.15	20906
886.275	20842
886.4	20834
886.525	20929
886.65	20887
886.775	20807
886.9	20986
887.025	21192
887.149	21028
887.274	20689
887.399	20727
887.523	20659
887.648	20716
887.773	20533
887.897	20705
888.021	20701
888.146	20651
888.27	20655
888.395	20739
888.519	20689
888.643	20716
888.767	20731
888.891	20621
889.015	20454
889.139	20545
889.263	20442
889.387	20503
889.511	20743
889.635	20727
889.759	20511
889.883	20522
890.006	20442
890.13	20659
890.254	20442
890.377	20393
890.501	20320
890.624	20149
890.748	20248
890.871	20043
890.995	19986
891.118	20122
891.241	20187
891.364	19928
891.488	20210
891.611	20077
891.734	20039
891.857	20149
891.98	20035
892.103	20153
892.226	20039
892.349	20062
892.471	19955
892.594	20088
892.717	20031
892.839	19921
892.962	20020
893.085	20157
893.207	19944
893.33	19818
893.452	19959
893.575	20077
893.697	20020
893.819	20138
893.941	20157
894.064	20100
894.186	19944
894.308	19997
894.43	20107
894.552	20161
894.674	19921
894.796	19833
894.918	19978
895.04	19970
895.161	20145
895.283	20016
895.405	19780
895.526	20103
895.648	19993
895.769	20069
895.891	20008
896.012	20077
896.134	20092
896.255	19986
896.376	19841
896.498	19993
896.619	19986
896.74	19967
896.861	19970
896.982	20267
897.103	20377
897.224	20237
897.345	20328
897.466	20096
897.587	20119
897.708	20301
897.828	20259
897.949	20278
898.07	20092
898.19	20126
898.311	20240
898.431	20164
898.552	20142
898.672	20259
898.792	20278
898.913	20256
899.033	20088
899.153	19974
899.273	19940
899.393	19883
899.513	19970
899.633	20046
899.753	20092
899.873	19902
899.993	19967
900.113	19909
900.232	20024
900.352	19883
900.472	19845
900.591	19715
900.711	19849
900.83	19727
900.95	19833
901.069	19860
901.189	19651
901.308	19320
901.427	19369
901.546	19384
901.665	19312
901.784	19392
901.904	19122
902.023	19133
902.141	18890
902.26	18905
902.379	18859
902.498	18951
902.617	18852
902.735	18783
902.854	18798
902.973	18802
903.091	18399
903.21	18456
903.328	18467
903.446	18361
903.565	18327
903.683	18292
903.801	18224
903.919	18338
904.038	18163
904.156	18083
904.274	18106
904.392	18007
904.51	18064
904.627	18098
904.745	18125
904.863	18228
904.981	17741
905.098	17756
905.216	17840
905.334	17668
905.451	17767
905.569	17832
905.686	17798
905.803	17760
905.921	17528
906.038	17653
906.155	17630
906.272	17421
906.389	17471
906.506	17185
906.623	17398
906.74	17250
906.857	17155
906.974	17220
907.091	17341
907.208	17391
907.324	17178
907.441	17288
907.557	17037
907.674	17083
907.79	16927
907.907	17098
908.023	16991
908.139	16953
908.256	16911
908.372	16900
908.488	16858
908.604	16793
908.72	16645
908.836	16744
908.952	16698
909.068	16721
909.184	16824
909.3	16790
909.415	16820
909.531	16847
909.647	16485
909.762	16432
909.878	16451
909.993	16421
910.108	16382
910.224	16443
910.339	16478
910.454	16318
910.57	16337
910.685	16131
910.8	16436
910.915	16413
911.03	16268
911.145	16017
911.259	16013
911.374	16006
911.489	15937
911.604	15930
911.718	15713
911.833	15793
911.947	15633
912.062	15652
912.176	15762
912.291	15732
912.405	15755
912.519	15941
912.633	15903
912.748	15724
912.862	15797
912.976	15667
913.09	15515
913.204	15637
913.318	15591
913.431	15686
913.545	15743
913.659	15694
913.772	15530
913.886	15428
914	15367
914.113	15473
914.226	15450
914.34	15545
914.453	15378
914.566	15412
914.68	15180
914.793	15233
914.906	15036
915.019	14994
915.132	14887
915.245	15047
915.358	15074
915.47	15017
915.583	15036
915.696	14941
915.809	15032
915.921	15135
916.034	14880
916.146	14906
916.259	14960
916.371	15051
916.483	14899
916.595	14853
916.708	14826
916.82	14906
916.932	14838
917.044	14769
917.156	14769
917.268	14545
917.38	14758
917.491	14697
917.603	14720
917.715	14785
917.826	14720
917.938	14663
918.049	14473
918.161	14594
918.272	14762
918.384	14655
918.495	14629
918.606	14507
918.717	14396
918.828	14526
918.939	14434
919.05	14298
919.161	14343
919.272	14157
919.383	14210
919.494	14571
919.604	14636
919.715	14476
919.826	14351
919.936	14366
920.047	14507
920.157	14320
920.267	14537
920.378	14503
920.488	14320
920.598	14579
920.708	14720
920.818	14469
920.928	14469
921.038	14708
921.148	14587
921.258	14324
921.368	14221
921.477	14084
921.587	14195
921.697	13986
921.806	14115
921.916	13936
922.025	13795
922.134	13826
922.244	13700
922.353	13753
922.462	13575
922.571	13590
922.68	13403
922.789	13472
922.898	13403
923.007	13460
923.116	13460
923.224	13449
923.333	13369
923.442	13240
923.55	13187
923.659	13183
923.767	13228
923.876	13221
923.984	13282
924.092	13133
924.201	13175
924.309	13175
924.417	13171
924.525	13084
924.633	13114
924.741	13883
924.849	12924
924.956	12962
925.064	12833
925.172	12802
925.279	12791
925.387	12932
925.494	12798
925.602	13000
925.709	12871
925.816	12753
925.924	12783
926.031	12821
926.138	12783
926.245	12795
926.352	12635
926.459	12783
926.566	12856
926.673	12738
926.779	12555
926.886	12620
926.993	12479
927.099	12418
927.206	12395
927.312	12395
927.419	12433
927.525	12338
927.631	12445
927.737	12399
927.843	12258
927.95	12178
928.056	12273
928.162	12232
928.267	12239
928.373	12730
928.479	12300
928.585	12083
928.69	12125
928.796	12243
928.901	12038
929.007	11969
929.112	12144
929.218	12076
929.323	11999
929.428	11950
929.533	12068
929.638	11931
929.743	11855
929.848	11889
929.953	11893
930.058	11760
930.163	11630
930.267	11649
930.372	11790
930.477	11558
930.581	11866
930.685	11680
930.79	11539
930.894	11551
930.998	11436
931.103	11676
931.207	11334
931.311	11193
931.415	11124
931.519	10968
931.623	10835
