Data from test_V78500241_147.txt Node
Date: Fri Mar 25 15:10:53 CST 2022
User: usil
Spectrometer: V785-0024
Trigger mode: 0
Integration Time (sec): 4.000000E-1
Scans to average: 1
Nonlinearity correction enabled: false
Boxcar width: 0
Storing dark spectrum: false
XAxis mode: Wavelengths
Number of Pixels in Spectrum: 1024
>>>>>Begin Spectral Data<<<<<
801.071	28040
801.214	28139
801.356	27812
801.499	27876
801.641	27561
801.783	27610
801.926	27656
802.068	27614
802.211	27568
802.353	27564
802.496	27397
802.638	27211
802.78	27184
802.923	27173
803.065	27024
803.208	27188
803.35	27173
803.492	27367
803.635	27348
803.777	27272
803.919	27363
804.061	27625
804.204	27336
804.346	27241
804.488	27188
804.63	27329
804.773	27169
804.915	27294
805.057	27367
805.199	27264
805.341	27310
805.483	27435
805.626	27275
805.768	27302
805.91	27397
806.052	27279
806.194	27321
806.336	27504
806.478	27466
806.62	27272
806.762	27458
806.904	27583
807.046	27762
807.188	27629
807.33	27759
807.472	27869
807.614	27614
807.756	27572
807.898	27629
808.04	27526
808.182	27412
808.324	27595
808.465	27599
808.607	27743
808.749	27880
808.891	27975
809.033	27968
809.174	27983
809.316	27835
809.458	27937
809.6	27945
809.741	27892
809.883	27888
810.025	28078
810.166	27998
810.308	28162
810.45	28105
810.591	27983
810.733	27884
810.875	27743
811.016	27705
811.158	27656
811.299	27884
811.441	27876
811.582	27751
811.724	27694
811.865	27842
812.007	27835
812.148	27823
812.29	27789
812.431	27937
812.573	28006
812.714	28078
812.855	28291
812.997	28265
813.138	28493
813.279	28519
813.421	28291
813.562	28268
813.703	28192
813.845	28070
813.986	27622
814.127	27549
814.268	27454
814.41	27488
814.551	27545
814.692	27515
814.833	27424
814.974	27329
815.115	27313
815.256	27230
815.397	27169
815.539	27321
815.68	27222
815.821	27100
815.962	27226
816.103	27287
816.244	26933
816.385	26990
816.526	26838
816.666	26765
816.807	26598
816.948	26769
817.089	26693
817.23	26590
817.371	26632
817.512	26678
817.653	26629
817.793	26575
817.934	26651
818.075	26549
818.216	26594
818.356	26434
818.497	26541
818.638	26358
818.778	26244
818.919	26252
819.06	26362
819.2	26396
819.341	26332
819.481	26396
819.622	26724
819.762	26807
819.903	26746
820.043	26632
820.184	26632
820.324	26571
820.465	26613
820.605	26488
820.746	26522
820.886	26423
821.026	26533
821.167	26377
821.307	26606
821.447	26480
821.588	26415
821.728	26290
821.868	26195
822.008	25955
822.149	25909
822.289	25906
822.429	25670
822.569	25556
822.709	25582
822.849	25247
822.99	25430
823.13	25327
823.27	25407
823.41	25099
823.55	25099
823.69	25156
823.83	25107
823.97	25137
824.11	24939
824.25	24897
824.389	24905
824.529	25080
824.669	24985
824.809	25156
824.949	25027
825.089	25126
825.228	24951
825.368	24726
825.508	24806
825.648	24741
825.787	24798
825.927	24970
826.067	24814
826.206	24768
826.346	24856
826.485	24719
826.625	24745
826.765	24977
826.904	24825
827.044	24620
827.183	24483
827.323	24464
827.462	24582
827.601	24521
827.741	24369
827.88	24574
828.02	24342
828.159	24407
828.298	24513
828.437	24471
828.577	24422
828.716	24574
828.855	24308
828.994	24190
829.134	24205
829.273	24159
829.412	24144
829.551	24095
829.69	24125
829.829	24121
829.968	24235
830.107	24216
830.246	24136
830.385	24038
830.524	24133
830.663	23885
830.802	23843
830.941	23653
831.08	23630
831.219	23710
831.357	23824
831.496	23897
831.635	23623
831.774	23687
831.913	23687
832.051	23482
832.19	23410
832.329	23356
832.467	23345
832.606	23471
832.744	23356
832.883	23421
833.022	23425
833.16	23307
833.299	23482
833.437	23433
833.576	23455
833.714	23288
833.852	23524
833.991	23402
834.129	23520
834.267	23436
834.406	23360
834.544	23311
834.682	23452
834.821	23360
834.959	23623
835.097	23208
835.235	23364
835.373	23376
835.511	23311
835.65	23185
835.788	23254
835.926	23102
836.064	23006
836.202	23010
836.34	23250
836.478	23288
836.615	23159
836.753	23189
836.891	23261
837.029	23220
837.167	23166
837.305	23105
837.443	23124
837.58	23044
837.718	23121
837.856	23102
837.993	23041
838.131	23018
838.269	22923
838.406	23003
838.544	22831
838.681	22588
838.819	22702
838.956	22447
839.094	22546
839.231	22584
839.369	22721
839.506	22847
839.643	22755
839.781	22443
839.918	22329
840.055	22485
840.193	22341
840.33	22443
840.467	22405
840.604	22405
840.742	22664
840.879	22303
841.016	22371
841.153	22325
841.29	22474
841.427	22459
841.564	22440
841.701	22287
841.838	22306
841.975	22310
842.112	22223
842.249	22109
842.385	22063
842.522	22295
842.659	21987
842.796	22090
842.933	22067
843.069	22063
843.206	22093
843.343	22101
843.479	22093
843.616	22124
843.752	21888
843.889	21835
844.025	22013
844.162	21831
844.298	22002
844.435	21922
844.571	21797
844.708	21873
844.844	21949
844.98	21968
845.117	21934
845.253	21747
845.389	21637
845.525	21762
845.661	21732
845.798	21553
845.934	21622
846.07	21648
846.206	21679
846.342	21698
846.478	21511
846.614	21405
846.75	21264
846.886	21317
847.022	21523
847.158	21245
847.294	21408
847.429	21321
847.565	21154
847.701	21492
847.837	21032
847.972	20998
848.108	21184
848.244	21100
848.379	20830
848.515	20823
848.65	20838
848.786	20800
848.921	20845
849.057	20960
849.192	20921
849.328	20807
849.463	20883
849.598	20872
849.734	20731
849.869	20796
850.004	20537
850.14	20636
850.275	20560
850.41	20530
850.545	20617
850.68	20632
850.815	20560
850.95	20674
851.085	20720
851.22	20716
851.355	20587
851.49	20518
851.625	20602
851.76	20552
851.895	20454
852.03	20404
852.165	20575
852.299	20640
852.434	20579
852.569	20678
852.703	20530
852.838	20648
852.973	20758
853.107	20632
853.242	20629
853.376	20545
853.511	20263
853.645	20336
853.78	20533
853.914	20442
854.048	20469
854.183	20389
854.317	20237
854.451	20530
854.585	20389
854.72	20431
854.854	20423
854.988	20408
855.122	20298
855.256	20221
855.39	20377
855.524	20480
855.658	20461
855.792	20332
855.926	20351
856.06	20389
856.194	20465
856.327	20336
856.461	20339
856.595	20412
856.729	20317
856.862	20507
856.996	20408
857.13	20461
857.263	20511
857.397	20408
857.53	20442
857.664	20431
857.797	20393
857.931	20499
858.064	20355
858.197	20457
858.331	20339
858.464	20358
858.597	20328
858.731	20282
858.864	20370
858.997	20282
859.13	20343
859.263	20324
859.396	20336
859.529	20336
859.662	20259
859.795	20271
859.928	20324
860.061	20370
860.194	20587
860.327	20374
860.46	20122
860.592	20465
860.725	20404
860.858	20343
860.99	20480
861.123	20134
861.256	20309
861.388	20339
861.521	20982
861.653	20176
861.786	20214
861.918	20240
862.05	20263
862.183	20389
862.315	20362
862.447	20393
862.58	20320
862.712	20043
862.844	20069
862.976	20206
863.108	20058
863.24	20366
863.372	20031
863.504	20096
863.636	20020
863.768	19997
863.9	20069
864.032	20005
864.164	19936
864.296	20005
864.428	20062
864.559	20100
864.691	20149
864.823	19974
864.954	20012
865.086	19993
865.217	20046
865.349	19807
865.48	19944
865.612	19986
865.743	20027
865.875	19879
866.006	19833
866.137	19955
866.269	19947
866.4	19982
866.531	19849
866.662	19784
866.793	19887
866.924	19830
867.055	19852
867.186	19856
867.317	19845
867.448	19738
867.579	19795
867.71	19822
867.841	19795
867.972	19837
868.103	19887
868.233	19887
868.364	19879
868.495	19947
868.625	20020
868.756	20225
868.886	20050
869.017	20039
869.147	20202
869.278	20233
869.408	20180
869.539	20149
869.669	20214
869.799	20164
869.929	20237
870.06	20221
870.19	20499
870.32	20347
870.45	20499
870.58	20358
870.71	20598
870.84	20708
870.97	20408
871.1	20427
871.23	20705
871.36	20705
871.489	20590
871.619	20625
871.749	20705
871.879	20781
872.008	20834
872.138	20674
872.267	20773
872.397	20537
872.526	20568
872.656	20499
872.785	20412
872.915	20804
873.044	20781
873.173	20712
873.303	20716
873.432	20716
873.561	20773
873.69	20678
873.819	20781
873.948	20754
874.077	20731
874.206	20625
874.335	20701
874.464	20750
874.593	20956
874.722	20834
874.851	20956
874.979	21062
875.108	21062
875.237	20872
875.365	20963
875.494	20857
875.623	21096
875.751	20986
875.88	21028
876.008	21077
876.136	21241
876.265	21416
876.393	21515
876.521	21355
876.65	21340
876.778	21313
876.906	21264
877.034	21199
877.162	21355
877.29	21233
877.418	21256
877.546	21401
877.674	21374
877.802	21374
877.93	21431
878.058	21275
878.185	21138
878.313	21325
878.441	21378
878.568	21203
878.696	21245
878.824	21450
878.951	21329
879.079	21568
879.206	21606
879.333	21523
879.461	21416
879.588	21405
879.715	21610
879.842	21538
879.97	21329
880.097	21150
880.224	21123
880.351	21214
880.478	21142
880.605	21081
880.732	21161
880.859	21199
880.986	21123
881.112	21154
881.239	20998
881.366	20727
881.493	20823
881.619	20754
881.746	20804
881.872	20815
881.999	20724
882.125	20724
882.252	20720
882.378	20712
882.505	20849
882.631	20556
882.757	20511
882.883	20606
883.01	20522
883.136	20476
883.262	20282
883.388	20290
883.514	20507
883.64	20400
883.766	20362
883.892	20225
884.018	20225
884.143	20434
884.269	20484
884.395	20290
884.52	20031
884.646	20195
884.772	20031
884.897	20012
885.023	20119
885.148	20168
885.274	20221
885.399	20263
885.524	20134
885.65	20081
885.775	20107
885.9	20077
886.025	20214
886.15	20183
886.275	20058
886.4	20031
886.525	20039
886.65	20016
886.775	20153
886.9	20157
887.025	20309
887.149	20012
887.274	19883
887.399	19909
887.523	19989
887.648	19765
887.773	19700
887.897	19898
888.021	20008
888.146	19856
888.27	19989
888.395	20039
888.519	19887
888.643	19944
888.767	19852
888.891	19818
889.015	19727
889.139	19750
889.263	19708
889.387	19841
889.511	19894
889.635	19883
889.759	19628
889.883	19685
890.006	19776
890.13	19769
890.254	19548
890.377	19563
890.501	19419
890.624	19297
890.748	19373
890.871	19362
890.995	19194
891.118	19198
891.241	19255
891.364	19232
891.488	19358
891.611	19293
891.734	19259
891.857	19297
891.98	19240
892.103	19327
892.226	19343
892.349	19206
892.471	18996
892.594	19088
892.717	19179
892.839	19213
892.962	19141
893.085	19266
893.207	19080
893.33	19122
893.452	19076
893.575	19099
893.697	19133
893.819	19396
893.941	19388
894.064	19217
894.186	19209
894.308	19065
894.43	19312
894.552	19293
894.674	19244
894.796	19072
894.918	19270
895.04	19129
895.161	19244
895.283	19194
895.405	19103
895.526	19236
895.648	19072
895.769	19183
895.891	19251
896.012	19350
896.134	19240
896.255	19358
896.376	19137
896.498	19129
896.619	19289
896.74	19331
896.861	19327
896.982	19632
897.103	19731
897.224	19540
897.345	19384
897.466	19430
897.587	19430
897.708	19552
897.828	19415
897.949	19320
898.07	19297
898.19	19350
898.311	19552
898.431	19384
898.552	19453
898.672	19460
898.792	19537
898.913	19445
899.033	19274
899.153	19183
899.273	19141
899.393	19187
899.513	19228
899.633	19202
899.753	19110
899.873	19107
899.993	19072
900.113	19069
900.232	19228
900.352	19084
900.472	19050
900.591	18943
900.711	19004
900.83	18905
900.95	19110
901.069	18905
901.189	18932
901.308	18608
901.427	18547
901.546	18631
901.665	18696
901.784	18604
901.904	18410
902.023	18235
902.141	18171
902.26	18098
902.379	18114
902.498	18098
902.617	18007
902.735	18155
902.854	17988
902.973	18041
903.091	17771
903.21	17752
903.328	17687
903.446	17680
903.565	17562
903.683	17611
903.801	17474
903.919	17497
904.038	17490
904.156	17387
904.274	17402
904.392	17273
904.51	17337
904.627	17330
904.745	17315
904.863	17330
904.981	17124
905.098	17045
905.216	16930
905.334	17128
905.451	17041
905.569	16930
905.686	16976
905.803	16927
905.921	16812
906.038	16999
906.155	16767
906.272	16698
906.389	16767
906.506	16508
906.623	16459
906.74	16402
906.857	16462
906.974	16470
907.091	16637
907.208	16596
907.324	16607
907.441	16375
907.557	16329
907.674	16306
907.79	16162
907.907	16249
908.023	16303
908.139	16280
908.256	16139
908.372	16017
908.488	16029
908.604	16002
908.72	15873
908.836	16063
908.952	15854
909.068	15968
909.184	16017
909.3	15949
909.415	15972
909.531	15865
909.647	15717
909.762	15591
909.878	15568
909.993	15663
910.108	15515
910.224	15641
910.339	15675
910.454	15458
910.57	15420
910.685	15348
910.8	15637
910.915	15690
911.03	15481
911.145	15351
911.259	15275
911.374	15294
911.489	15207
911.604	15138
911.718	14956
911.833	14952
911.947	14857
912.062	14800
912.176	14914
912.291	15013
912.405	14941
912.519	15154
912.633	15077
912.748	15020
912.862	14861
912.976	14868
913.09	14663
913.204	14701
913.318	14781
913.431	14975
913.545	14895
913.659	14914
913.772	14826
913.886	14670
914	14537
914.113	14716
914.226	14655
914.34	14613
914.453	14556
914.566	14727
914.68	14514
914.793	14511
914.906	14294
915.019	14305
915.132	14119
915.245	14164
915.358	14313
915.47	14267
915.583	14252
915.696	14324
915.809	14339
915.921	14366
916.034	14176
916.146	14229
916.259	14115
916.371	14240
916.483	14225
916.595	14020
916.708	14145
916.82	14103
916.932	13993
917.044	14088
917.156	14046
917.268	13894
917.38	13890
917.491	13947
917.603	14008
917.715	14069
917.826	13997
917.938	13852
918.049	13841
918.161	13936
918.272	14024
918.384	13932
918.495	13833
918.606	13753
918.717	13609
918.828	13738
918.939	13791
919.05	13666
919.161	13696
919.272	13464
919.383	13529
919.494	13750
919.604	13845
919.715	13757
919.826	13533
919.936	13609
920.047	13685
920.157	13666
920.267	13875
920.378	13658
920.488	13620
920.598	13814
920.708	13932
920.818	13959
920.928	13776
921.038	13970
921.148	13883
921.258	13704
921.368	13567
921.477	13445
921.587	13403
921.697	13263
921.806	13384
921.916	13304
922.025	13065
922.134	13084
922.244	12996
922.353	13034
922.462	12958
922.571	12806
922.68	12711
922.789	12620
922.898	12658
923.007	12722
923.116	12738
923.224	12665
923.333	12654
923.442	12544
923.55	12582
923.659	12540
923.767	12635
923.876	12448
923.984	12570
924.092	12498
924.201	12528
924.309	12486
924.417	12399
924.525	12388
924.633	12384
924.741	13091
924.849	12205
924.956	12399
925.064	12205
925.172	12110
925.279	12190
925.387	12178
925.494	12171
925.602	12350
925.709	12281
925.816	12034
925.924	12079
926.031	12270
926.138	12072
926.245	12155
926.352	12015
926.459	12167
926.566	12163
926.673	12072
926.779	11988
926.886	11984
926.993	11737
927.099	11733
927.206	11722
927.312	11722
927.419	11794
927.525	11821
927.631	11748
927.737	11661
927.843	11623
927.95	11509
928.056	11577
928.162	11562
928.267	11630
928.373	12087
928.479	11668
928.585	11471
928.69	11573
928.796	11627
928.901	11429
929.007	11349
929.112	11448
929.218	11364
929.323	11364
929.428	11288
929.533	11421
929.638	11311
929.743	11273
929.848	11360
929.953	11223
930.058	11231
930.163	11003
930.267	11025
930.372	11124
930.477	11090
930.581	11246
930.685	11113
930.79	10862
930.894	10927
930.998	10892
931.103	11037
931.207	10679
931.311	10580
931.415	10398
931.519	10325
931.623	10333
