Data from test_V78500241_89.txt Node
Date: Fri Mar 25 15:10:28 CST 2022
User: usil
Spectrometer: V785-0024
Trigger mode: 0
Integration Time (sec): 4.000000E-1
Scans to average: 1
Nonlinearity correction enabled: false
Boxcar width: 0
Storing dark spectrum: false
XAxis mode: Wavelengths
Number of Pixels in Spectrum: 1024
>>>>>Begin Spectral Data<<<<<
801.071	28447
801.214	28371
801.356	28238
801.499	28105
801.641	28101
801.783	28029
801.926	28204
802.068	28185
802.211	27876
802.353	27865
802.496	27709
802.638	27755
802.78	27690
802.923	27564
803.065	27507
803.208	27523
803.35	27701
803.492	27747
803.635	27819
803.777	27603
803.919	27739
804.061	27876
804.204	27854
804.346	27648
804.488	27713
804.63	27641
804.773	27568
804.915	27709
805.057	27793
805.199	27477
805.341	27739
805.483	27713
805.626	27778
805.768	27827
805.91	27903
806.052	27804
806.194	27679
806.336	27934
806.478	27797
806.62	27698
806.762	27793
806.904	28029
807.046	28348
807.188	28230
807.33	28169
807.472	28215
807.614	28128
807.756	28021
807.898	27941
808.04	27953
808.182	28010
808.324	27991
808.465	27907
808.607	28135
808.749	28177
808.891	28360
809.033	28401
809.174	28390
809.316	28322
809.458	28261
809.6	28318
809.741	28337
809.883	28356
810.025	28470
810.166	28535
810.308	28645
810.45	28596
810.591	28459
810.733	28166
810.875	28265
811.016	28135
811.158	28074
811.299	28242
811.441	28284
811.582	28436
811.724	28219
811.865	28219
812.007	28223
812.148	28272
812.29	28474
812.431	28421
812.573	28485
812.714	28812
812.855	28812
812.997	28744
813.138	28957
813.279	28873
813.421	28713
813.562	28710
813.703	28455
813.845	28371
813.986	27998
814.127	27930
814.268	27899
814.41	27789
814.551	27945
814.692	27945
814.833	27880
814.974	27667
815.115	27816
815.256	27591
815.397	27675
815.539	27701
815.68	27568
815.821	27424
815.962	27671
816.103	27629
816.244	27427
816.385	27340
816.526	27272
816.666	27188
816.807	27116
816.948	26963
817.089	27138
817.23	27089
817.371	27100
817.512	27017
817.653	26998
817.793	27032
817.934	27062
818.075	26994
818.216	26933
818.356	26921
818.497	26746
818.638	26750
818.778	26804
818.919	26583
819.06	26750
819.2	26689
819.341	26921
819.481	26842
819.622	27085
819.762	27252
819.903	27161
820.043	27077
820.184	26963
820.324	26906
820.465	27032
820.605	27013
820.746	26963
820.886	26937
821.026	26948
821.167	26785
821.307	27024
821.447	27020
821.588	26815
821.728	26651
821.868	26587
822.008	26286
822.149	26404
822.289	26290
822.429	26062
822.569	26145
822.709	25852
822.849	25822
822.99	25772
823.13	25765
823.27	25830
823.41	25556
823.55	25571
823.69	25666
823.83	25578
823.97	25544
824.11	25346
824.25	25362
824.389	25373
824.529	25559
824.669	25464
824.809	25540
824.949	25525
825.089	25548
825.228	25403
825.368	25240
825.508	25126
825.648	25244
825.787	25228
825.927	25373
826.067	25289
826.206	25141
826.346	25190
826.485	25232
826.625	25183
826.765	25228
826.904	25179
827.044	24837
827.183	24894
827.323	24890
827.462	24890
827.601	24901
827.741	24867
827.88	24817
828.02	24787
828.159	24776
828.298	24867
828.437	24795
828.577	24802
828.716	24958
828.855	24700
828.994	24707
829.134	24563
829.273	24555
829.412	24608
829.551	24407
829.69	24616
829.829	24486
829.968	24654
830.107	24597
830.246	24483
830.385	24395
830.524	24319
830.663	24395
830.802	24205
830.941	24072
831.08	24102
831.219	24323
831.357	24247
831.496	24357
831.635	24114
831.774	23874
831.913	23904
832.051	23935
832.19	23996
832.329	23965
832.467	23790
832.606	23817
832.744	23665
832.883	23824
833.022	23703
833.16	23707
833.299	23798
833.437	23748
833.576	23802
833.714	23657
833.852	23851
833.991	23809
834.129	23859
834.267	23783
834.406	23687
834.544	23779
834.682	23908
834.821	23699
834.959	23954
835.097	23703
835.235	23813
835.373	23566
835.511	23691
835.65	23676
835.788	23566
835.926	23486
836.064	23231
836.202	23516
836.34	23642
836.478	23710
836.615	23516
836.753	23531
836.891	23627
837.029	23589
837.167	23566
837.305	23516
837.443	23417
837.58	23269
837.718	23379
837.856	23436
837.993	23223
838.131	23341
838.269	23345
838.406	23349
838.544	23086
838.681	22995
838.819	22927
838.956	22858
839.094	22706
839.231	22763
839.369	23014
839.506	23105
839.643	23029
839.781	22752
839.918	22736
840.055	22782
840.193	22759
840.33	22782
840.467	22588
840.604	22588
840.742	23014
840.879	22626
841.016	22542
841.153	22588
841.29	22683
841.427	22599
841.564	22755
841.701	22611
841.838	22626
841.975	22542
842.112	22565
842.249	22508
842.385	22356
842.522	22584
842.659	22421
842.796	22360
842.933	22375
843.069	22188
843.206	22379
843.343	22318
843.479	22375
843.616	22344
843.752	22181
843.889	22090
844.025	22356
844.162	22105
844.298	22246
844.435	22116
844.571	22059
844.708	22158
844.844	22348
844.98	22173
845.117	22276
845.253	22105
845.389	21903
845.525	21911
845.661	21983
845.798	21823
845.934	21869
846.07	21835
846.206	21892
846.342	21911
846.478	21876
846.614	21652
846.75	21557
846.886	21545
847.022	21717
847.158	21686
847.294	21648
847.429	21553
847.565	21656
847.701	21774
847.837	21275
847.972	21294
848.108	21401
848.244	21325
848.379	21096
848.515	20990
848.65	21260
848.786	21096
848.921	21131
849.057	21378
849.192	21264
849.328	21093
849.463	21192
849.598	21116
849.734	21043
849.869	20982
850.004	20876
850.14	20948
850.275	20853
850.41	20769
850.545	20746
850.68	20769
850.815	20918
850.95	20739
851.085	21104
851.22	20986
851.355	20887
851.49	20944
851.625	20792
851.76	20762
851.895	20811
852.03	20750
852.165	20800
852.299	20921
852.434	20842
852.569	20929
852.703	20777
852.838	20880
852.973	20872
853.107	20929
853.242	20667
853.376	20655
853.511	20499
853.645	20682
853.78	20758
853.914	20689
854.048	20587
854.183	20625
854.317	20686
854.451	20891
854.585	20724
854.72	20613
854.854	20746
854.988	20594
855.122	20640
855.256	20530
855.39	20701
855.524	20800
855.658	20644
855.792	20667
855.926	20720
856.06	20697
856.194	20705
856.327	20686
856.461	20587
856.595	20526
856.729	20556
856.862	20739
856.996	20583
857.13	20712
857.263	20697
857.397	20655
857.53	20613
857.664	20693
857.797	20720
857.931	20682
858.064	20708
858.197	20750
858.331	20629
858.464	20522
858.597	20495
858.731	20609
858.864	20579
858.997	20480
859.13	20629
859.263	20655
859.396	20659
859.529	20575
859.662	20560
859.795	20495
859.928	20560
860.061	20571
860.194	20845
860.327	20579
860.46	20514
860.592	20705
860.725	20651
860.858	20568
860.99	20488
861.123	20404
861.256	20442
861.388	20571
861.521	21180
861.653	20495
861.786	20442
861.918	20473
862.05	20571
862.183	20636
862.315	20640
862.447	20621
862.58	20590
862.712	20396
862.844	20233
862.976	20465
863.108	20317
863.24	20762
863.372	20294
863.504	20252
863.636	20313
863.768	20210
863.9	20252
864.032	20218
864.164	20176
864.296	20271
864.428	20351
864.559	20252
864.691	20343
864.823	20324
864.954	20210
865.086	20202
865.217	19997
865.349	20119
865.48	20103
865.612	20218
865.743	20244
865.875	20046
866.006	20195
866.137	20218
866.269	20256
866.4	20145
866.531	20267
866.662	19963
866.793	20088
866.924	20191
867.055	20187
867.186	20100
867.317	20062
867.448	20107
867.579	20001
867.71	19871
867.841	20027
867.972	20069
868.103	20119
868.233	20069
868.364	20024
868.495	20149
868.625	20317
868.756	20507
868.886	20320
869.017	20164
869.147	20465
869.278	20362
869.408	20358
869.539	20389
869.669	20507
869.799	20419
869.929	20454
870.06	20374
870.19	20587
870.32	20655
870.45	20701
870.58	20632
870.71	20872
870.84	20876
870.97	20834
871.1	20602
871.23	20769
871.36	20857
871.489	20735
871.619	20823
871.749	21028
871.879	20929
872.008	21066
872.138	20925
872.267	20929
872.397	20792
872.526	20807
872.656	20838
872.785	20682
872.915	20982
873.044	21028
873.173	20929
873.303	20895
873.432	21028
873.561	21028
873.69	20895
873.819	20929
873.948	20899
874.077	20960
874.206	20876
874.335	20872
874.464	21013
874.593	21192
874.722	21138
874.851	21249
874.979	21340
875.108	21249
875.237	21157
875.365	21081
875.494	21176
875.623	21260
875.751	21077
875.88	21199
876.008	21310
876.136	21374
876.265	21538
876.393	21663
876.521	21656
876.65	21717
876.778	21622
876.906	21458
877.034	21496
877.162	21572
877.29	21553
877.418	21424
877.546	21618
877.674	21580
877.802	21523
877.93	21332
878.058	21386
878.185	21389
878.313	21580
878.441	21553
878.568	21321
878.696	21439
878.824	21618
878.951	21614
879.079	21625
879.206	21831
879.333	21732
879.461	21614
879.588	21736
879.715	21724
879.842	21800
879.97	21675
880.097	21344
880.224	21389
880.351	21416
880.478	21359
880.605	21367
880.732	21428
880.859	21603
880.986	21462
881.112	21367
881.239	21313
881.366	21150
881.493	20914
881.619	20982
881.746	20963
881.872	20982
881.999	20998
882.125	20845
882.252	20990
882.378	20944
882.505	21058
882.631	20781
882.757	20819
882.883	20792
883.01	20731
883.136	20689
883.262	20598
883.388	20556
883.514	20644
883.64	20811
883.766	20708
883.892	20438
884.018	20450
884.143	20644
884.269	20815
884.395	20275
884.52	20431
884.646	20377
884.772	20290
884.897	20328
885.023	20377
885.148	20415
885.274	20488
885.399	20339
885.524	20442
885.65	20476
885.775	20374
885.9	20237
886.025	20480
886.15	20400
886.275	20275
886.4	20202
886.525	20301
886.65	20263
886.775	20275
886.9	20324
887.025	20469
887.149	20290
887.274	20111
887.399	20142
887.523	20157
887.648	19970
887.773	19944
887.897	20157
888.021	20168
888.146	19978
888.27	20218
888.395	20191
888.519	20058
888.643	20119
888.767	19970
888.891	19955
889.015	19849
889.139	19967
889.263	19826
889.387	19906
889.511	20111
889.635	19898
889.759	19746
889.883	19909
890.006	19814
890.13	19871
890.254	19738
890.377	19807
890.501	19620
890.624	19567
890.748	19594
890.871	19441
890.995	19415
891.118	19407
891.241	19537
891.364	19499
891.488	19544
891.611	19369
891.734	19430
891.857	19506
891.98	19449
892.103	19597
892.226	19403
892.349	19377
892.471	19232
892.594	19460
892.717	19400
892.839	19407
892.962	19274
893.085	19487
893.207	19316
893.33	19244
893.452	19339
893.575	19438
893.697	19453
893.819	19537
893.941	19544
894.064	19491
894.186	19377
894.308	19221
894.43	19358
894.552	19411
894.674	19472
894.796	19297
894.918	19392
895.04	19422
895.161	19407
895.283	19407
895.405	19354
895.526	19263
895.648	19381
895.769	19441
895.891	19392
896.012	19518
896.134	19400
896.255	19419
896.376	19377
896.498	19422
896.619	19548
896.74	19377
896.861	19563
896.982	19845
897.103	19997
897.224	19742
897.345	19609
897.466	19670
897.587	19559
897.708	19811
897.828	19689
897.949	19559
898.07	19403
898.19	19518
898.311	19750
898.431	19540
898.552	19639
898.672	19681
898.792	19651
898.913	19556
899.033	19445
899.153	19438
899.273	19194
899.393	19282
899.513	19312
899.633	19206
899.753	19331
899.873	19278
899.993	19422
900.113	19289
900.232	19331
900.352	19156
900.472	19126
900.591	19000
900.711	19099
900.83	18977
900.95	19308
901.069	19244
901.189	19076
901.308	18814
901.427	18684
901.546	18661
901.665	18783
901.784	18825
901.904	18745
902.023	18555
902.141	18327
902.26	18182
902.379	18277
902.498	18296
902.617	18167
902.735	18285
902.854	18068
902.973	18190
903.091	17813
903.21	17863
903.328	17859
903.446	17824
903.565	17745
903.683	17775
903.801	17630
903.919	17638
904.038	17657
904.156	17452
904.274	17551
904.392	17573
904.51	17440
904.627	17463
904.745	17543
904.863	17440
904.981	17356
905.098	17227
905.216	17185
905.334	17166
905.451	17242
905.569	17052
905.686	17151
905.803	17140
905.921	16968
906.038	17121
906.155	16896
906.272	16957
906.389	16927
906.506	16725
906.623	16759
906.74	16717
906.857	16546
906.974	16683
907.091	16698
907.208	16835
907.324	16797
907.441	16637
907.557	16398
907.674	16375
907.79	16333
907.907	16390
908.023	16379
908.139	16371
908.256	16303
908.372	16280
908.488	16325
908.604	16139
908.72	16116
908.836	16086
908.952	15994
909.068	16032
909.184	16093
909.3	16002
909.415	16082
909.531	16040
909.647	15823
909.762	15823
909.878	15656
909.993	15751
910.108	15629
910.224	15736
910.339	15816
910.454	15641
910.57	15675
910.685	15549
910.8	15800
910.915	15762
911.03	15538
911.145	15454
911.259	15428
911.374	15469
911.489	15317
911.604	15195
911.718	15077
911.833	15093
911.947	15005
912.062	14982
912.176	15116
912.291	15077
912.405	15173
912.519	15157
912.633	15256
912.748	15077
912.862	15104
912.976	14921
913.09	14788
913.204	14853
913.318	14963
913.431	15005
913.545	15032
913.659	15093
913.772	14826
913.886	14678
914	14823
914.113	14861
914.226	14872
914.34	14842
914.453	14587
914.566	14823
914.68	14686
914.793	14526
914.906	14457
915.019	14366
915.132	14336
915.245	14286
915.358	14419
915.47	14457
915.583	14381
915.696	14434
915.809	14564
915.921	14434
916.034	14355
916.146	14221
916.259	14240
916.371	14294
916.483	14328
916.595	14229
916.708	14172
916.82	14206
916.932	14199
917.044	14214
917.156	14138
917.268	13951
917.38	14065
917.491	14107
917.603	13963
917.715	14161
917.826	14218
917.938	13989
918.049	13963
918.161	14092
918.272	14035
918.384	14115
918.495	13921
918.606	13837
918.717	13727
918.828	13875
918.939	13814
919.05	13685
919.161	13791
919.272	13597
919.383	13658
919.494	13784
919.604	13963
919.715	13731
919.826	13788
919.936	13818
920.047	13837
920.157	13818
920.267	13955
920.378	13833
920.488	13700
920.598	13944
920.708	13993
920.818	13894
920.928	13928
921.038	14096
921.148	14062
921.258	13628
921.368	13677
921.477	13457
921.587	13472
921.697	13285
921.806	13495
921.916	13354
922.025	13187
922.134	13190
922.244	13107
922.353	13095
922.462	13065
922.571	12928
922.68	12787
922.789	12738
922.898	12802
923.007	12703
923.116	12829
923.224	12776
923.333	12749
923.442	12696
923.55	12593
923.659	12616
923.767	12574
923.876	12585
923.984	12677
924.092	12532
924.201	12540
924.309	12551
924.417	12574
924.525	12467
924.633	12517
924.741	13244
924.849	12273
924.956	12414
925.064	12205
925.172	12152
925.279	12209
925.387	12258
925.494	12190
925.602	12410
925.709	12273
925.816	12125
925.924	12254
926.031	12330
926.138	12182
926.245	12361
926.352	12106
926.459	12251
926.566	12228
926.673	12136
926.779	12110
926.886	12030
926.993	11904
927.099	11863
927.206	11783
927.312	11824
927.419	11882
927.525	11870
927.631	11908
927.737	11741
927.843	11703
927.95	11558
928.056	11646
928.162	11653
928.267	11722
928.373	12273
928.479	11764
928.585	11554
928.69	11608
928.796	11627
928.901	11585
929.007	11387
929.112	11490
929.218	11570
929.323	11406
929.428	11486
929.533	11497
929.638	11254
929.743	11349
929.848	11356
929.953	11429
930.058	11292
930.163	11128
930.267	11052
930.372	11288
930.477	11022
930.581	11254
930.685	11117
930.79	11014
930.894	11014
930.998	10949
931.103	11113
931.207	10729
931.311	10717
931.415	10622
931.519	10436
931.623	10363
