Data from test_V78500241_2940.txt Node
Date: Fri Mar 25 15:30:19 CST 2022
User: usil
Spectrometer: V785-0024
Trigger mode: 0
Integration Time (sec): 4.000000E-1
Scans to average: 1
Nonlinearity correction enabled: false
Boxcar width: 0
Storing dark spectrum: false
XAxis mode: Wavelengths
Number of Pixels in Spectrum: 1024
>>>>>Begin Spectral Data<<<<<
801.071	27344
801.214	27176
801.356	26952
801.499	26868
801.641	26861
801.783	26872
801.926	26899
802.068	26883
802.211	26765
802.353	26769
802.496	26552
802.638	26469
802.78	26385
802.923	26446
803.065	26301
803.208	26259
803.35	26358
803.492	26655
803.635	26518
803.777	26419
803.919	26686
804.061	26937
804.204	26632
804.346	26632
804.488	26518
804.63	26625
804.773	26457
804.915	26571
805.057	26686
805.199	26507
805.341	26697
805.483	26861
805.626	26731
805.768	26674
805.91	26788
806.052	26693
806.194	26697
806.336	26906
806.478	26621
806.62	26712
806.762	26830
806.904	26960
807.046	27207
807.188	27199
807.33	27127
807.472	27264
807.614	27036
807.756	26986
807.898	26769
808.04	26705
808.182	26963
808.324	26967
808.465	26906
808.607	27256
808.749	27363
808.891	27291
809.033	27477
809.174	27382
809.316	27329
809.458	27195
809.6	27142
809.741	27439
809.883	27340
810.025	27694
810.166	27656
810.308	27603
810.45	27397
810.591	27420
810.733	27488
810.875	27317
811.016	27317
811.158	27245
811.299	27485
811.441	27481
811.582	27545
811.724	27321
811.865	27294
812.007	27359
812.148	27275
812.29	27256
812.431	27481
812.573	27686
812.714	27728
812.855	27770
812.997	27987
813.138	28078
813.279	27736
813.421	27812
813.562	27789
813.703	27713
813.845	27599
813.986	27135
814.127	27074
814.268	27013
814.41	26925
814.551	26933
814.692	27047
814.833	26971
814.974	26979
815.115	27005
815.256	27005
815.397	26842
815.539	26823
815.68	26762
815.821	26739
815.962	26804
816.103	26663
816.244	26560
816.385	26579
816.526	26495
816.666	26244
816.807	26309
816.948	26248
817.089	26214
817.23	26332
817.371	26263
817.512	26153
817.653	26183
817.793	26138
817.934	26305
818.075	26244
818.216	26278
818.356	26180
818.497	26115
818.638	25944
818.778	26020
818.919	25982
819.06	26058
819.2	26168
819.341	26225
819.481	26206
819.622	26328
819.762	26556
819.903	26590
820.043	26305
820.184	26336
820.324	26286
820.465	26419
820.605	26267
820.746	26320
820.886	26111
821.026	26161
821.167	26195
821.307	26415
821.447	26275
821.588	26176
821.728	26005
821.868	25791
822.008	25715
822.149	25548
822.289	25601
822.429	25396
822.569	25388
822.709	25327
822.849	25164
822.99	25148
823.13	25221
823.27	25137
823.41	25095
823.55	24859
823.69	25099
823.83	25042
823.97	24932
824.11	24734
824.25	24795
824.389	24757
824.529	24981
824.669	24909
824.809	25019
824.949	24894
825.089	24894
825.228	24779
825.368	24627
825.508	24623
825.648	24593
825.787	24688
825.927	24817
826.067	24620
826.206	24684
826.346	24791
826.485	24783
826.625	24623
826.765	24772
826.904	24764
827.044	24532
827.183	24429
827.323	24414
827.462	24365
827.601	24350
827.741	24350
827.88	24452
828.02	24201
828.159	24220
828.298	24467
828.437	24376
828.577	24224
828.716	24399
828.855	24319
828.994	24011
829.134	24129
829.273	24152
829.412	24121
829.551	23980
829.69	24133
829.829	24015
829.968	24140
830.107	24125
830.246	24057
830.385	24015
830.524	23999
830.663	23908
830.802	23813
830.941	23691
831.08	23512
831.219	23866
831.357	23714
831.496	23908
831.635	23581
831.774	23589
831.913	23566
832.051	23425
832.19	23482
832.329	23455
832.467	23360
832.606	23410
832.744	23216
832.883	23185
833.022	23220
833.16	23368
833.299	23368
833.437	23463
833.576	23425
833.714	23421
833.852	23383
833.991	23376
834.129	23516
834.267	23406
834.406	23429
834.544	23379
834.682	23406
834.821	23296
834.959	23592
835.097	23322
835.235	23463
835.373	23372
835.511	23379
835.65	23166
835.788	23254
835.926	23204
836.064	23075
836.202	23102
836.34	23307
836.478	23315
836.615	23193
836.753	23231
836.891	23273
837.029	23231
837.167	23162
837.305	23117
837.443	23071
837.58	23037
837.718	23090
837.856	23113
837.993	22957
838.131	22991
838.269	22949
838.406	22965
838.544	22908
838.681	22782
838.819	22759
838.956	22497
839.094	22626
839.231	22573
839.369	22622
839.506	22873
839.643	22687
839.781	22546
839.918	22436
840.055	22599
840.193	22523
840.33	22413
840.467	22565
840.604	22531
840.742	22755
840.879	22363
841.016	22394
841.153	22363
841.29	22497
841.427	22466
841.564	22554
841.701	22485
841.838	22246
841.975	22329
842.112	22352
842.249	22337
842.385	22268
842.522	22478
842.659	22272
842.796	22242
842.933	22272
843.069	22036
843.206	22059
843.343	22223
843.479	22219
843.616	22219
843.752	22059
843.889	22021
844.025	22196
844.162	21949
844.298	21994
844.435	22002
844.571	22078
844.708	22029
844.844	22070
844.98	22116
845.117	22166
845.253	21842
845.389	21846
845.525	21934
845.661	21793
845.798	21705
845.934	21838
846.07	21720
846.206	21812
846.342	21899
846.478	21717
846.614	21504
846.75	21397
846.886	21488
847.022	21477
847.158	21625
847.294	21458
847.429	21435
847.565	21473
847.701	21736
847.837	21241
847.972	21146
848.108	21313
848.244	21226
848.379	21100
848.515	21077
848.65	21135
848.786	20982
848.921	21058
849.057	21062
849.192	21199
849.328	21024
849.463	21032
849.598	21066
849.734	21017
849.869	20941
850.004	20914
850.14	20792
850.275	20948
850.41	20743
850.545	20765
850.68	20781
850.815	20739
850.95	20853
851.085	20982
851.22	20963
851.355	20960
851.49	20937
851.625	20781
851.76	20804
851.895	20773
852.03	20785
852.165	20811
852.299	20872
852.434	20899
852.569	20823
852.703	20785
852.838	20883
852.973	20952
853.107	21001
853.242	20807
853.376	20762
853.511	20545
853.645	20632
853.78	20826
853.914	20632
854.048	20629
854.183	20689
854.317	20625
854.451	20857
854.585	20571
854.72	20636
854.854	20701
854.988	20609
855.122	20712
855.256	20507
855.39	20651
855.524	20648
855.658	20708
855.792	20575
855.926	20686
856.06	20701
856.194	20735
856.327	20750
856.461	20552
856.595	20598
856.729	20632
856.862	20811
856.996	20621
857.13	20644
857.263	20773
857.397	20697
857.53	20678
857.664	20651
857.797	20686
857.931	20750
858.064	20682
858.197	20785
858.331	20758
858.464	20674
858.597	20602
858.731	20705
858.864	20625
858.997	20617
859.13	20621
859.263	20621
859.396	20727
859.529	20674
859.662	20632
859.795	20625
859.928	20648
860.061	20861
860.194	20899
860.327	20659
860.46	20712
860.592	20724
860.725	20701
860.858	20819
860.99	20518
861.123	20651
861.256	20651
861.388	20670
861.521	21203
861.653	20522
861.786	20454
861.918	20454
862.05	20533
862.183	20644
862.315	20651
862.447	20651
862.58	20659
862.712	20358
862.844	20492
862.976	20423
863.108	20511
863.24	20895
863.372	20343
863.504	20355
863.636	20415
863.768	20423
863.9	20339
864.032	20237
864.164	20282
864.296	20389
864.428	20442
864.559	20355
864.691	20412
864.823	20454
864.954	20263
865.086	20313
865.217	20313
865.349	20199
865.48	20210
865.612	20263
865.743	20480
865.875	20347
866.006	20248
866.137	20347
866.269	20347
866.4	20195
866.531	20233
866.662	20195
866.793	20168
866.924	20122
867.055	20275
867.186	20187
867.317	20187
867.448	20157
867.579	20161
867.71	20172
867.841	20218
867.972	20240
868.103	20294
868.233	20199
868.364	20290
868.495	20381
868.625	20427
868.756	20434
868.886	20389
869.017	20533
869.147	20579
869.278	20579
869.408	20473
869.539	20400
869.669	20537
869.799	20412
869.929	20583
870.06	20590
870.19	20743
870.32	20785
870.45	20708
870.58	20979
870.71	21001
870.84	20849
870.97	20678
871.1	20849
871.23	21138
871.36	20986
871.489	20963
871.619	21085
871.749	21100
871.879	21108
872.008	21192
872.138	21039
872.267	21039
872.397	20891
872.526	20994
872.656	20906
872.785	20944
872.915	21089
873.044	21112
873.173	21108
873.303	21108
873.432	21188
873.561	21180
873.69	21123
873.819	21017
873.948	21013
874.077	21089
874.206	21154
874.335	21096
874.464	21214
874.593	21268
874.722	21306
874.851	21306
874.979	21291
875.108	21393
875.237	21237
875.365	21199
875.494	21275
875.623	21401
875.751	21260
875.88	21447
876.008	21447
876.136	21545
876.265	21698
876.393	21816
876.521	21694
876.65	21778
876.778	21816
876.906	21720
877.034	21747
877.162	21713
877.29	21652
877.418	21774
877.546	21614
877.674	21797
877.802	21644
877.93	21728
878.058	21614
878.185	21534
878.313	21686
878.441	21785
878.568	21447
878.696	21675
878.824	21724
878.951	21774
879.079	21911
879.206	21972
879.333	21865
879.461	21705
879.588	21846
879.715	21831
879.842	21998
879.97	21842
880.097	21477
880.224	21477
880.351	21500
880.478	21500
880.605	21511
880.732	21462
880.859	21732
880.986	21576
881.112	21663
881.239	21389
881.366	21138
881.493	21077
881.619	21093
881.746	21173
881.872	21039
881.999	20967
882.125	20918
882.252	21142
882.378	20967
882.505	21195
882.631	20899
882.757	20724
882.883	20811
883.01	20735
883.136	20689
883.262	20644
883.388	20552
883.514	20762
883.64	20872
883.766	20609
883.892	20541
884.018	20621
884.143	20762
884.269	20708
884.395	20533
884.52	20374
884.646	20385
884.772	20355
884.897	20240
885.023	20404
885.148	20442
885.274	20522
885.399	20480
885.524	20438
885.65	20526
885.775	20381
885.9	20259
886.025	20484
886.15	20579
886.275	20339
886.4	20347
886.525	20400
886.65	20385
886.775	20328
886.9	20560
887.025	20629
887.149	20423
887.274	20301
887.399	20084
887.523	20191
887.648	20134
887.773	20153
887.897	20233
888.021	20183
888.146	20008
888.27	20286
888.395	20290
888.519	20218
888.643	20134
888.767	20240
888.891	20142
889.015	20046
889.139	20027
889.263	19947
889.387	20122
889.511	20168
889.635	20183
889.759	20008
889.883	20024
890.006	20031
890.13	20027
890.254	19925
890.377	19989
890.501	19826
890.624	19750
890.748	19818
890.871	19613
890.995	19525
891.118	19453
891.241	19586
891.364	19601
891.488	19746
891.611	19567
891.734	19518
891.857	19620
891.98	19700
892.103	19537
892.226	19613
892.349	19441
892.471	19502
892.594	19567
892.717	19510
892.839	19510
892.962	19533
893.085	19586
893.207	19506
893.33	19476
893.452	19483
893.575	19495
893.697	19445
893.819	19681
893.941	19776
894.064	19632
894.186	19438
894.308	19460
894.43	19601
894.552	19685
894.674	19681
894.796	19422
894.918	19525
895.04	19518
895.161	19590
895.283	19605
895.405	19464
895.526	19487
895.648	19483
895.769	19354
895.891	19441
896.012	19624
896.134	19499
896.255	19605
896.376	19491
896.498	19544
896.619	19613
896.74	19540
896.861	19594
896.982	19704
897.103	19833
897.224	19791
897.345	19670
897.466	19719
897.587	19757
897.708	19871
897.828	19845
897.949	19753
898.07	19643
898.19	19651
898.311	19814
898.431	19696
898.552	19738
898.672	19715
898.792	19807
898.913	19780
899.033	19639
899.153	19624
899.273	19419
899.393	19666
899.513	19518
899.633	19487
899.753	19529
899.873	19510
899.993	19655
900.113	19392
900.232	19529
900.352	19308
900.472	19354
900.591	19263
900.711	19373
900.83	19362
900.95	19472
901.069	19358
901.189	19217
901.308	19012
901.427	18856
901.546	18939
901.665	18966
901.784	19023
901.904	18772
902.023	18734
902.141	18536
902.26	18467
902.379	18608
902.498	18410
902.617	18338
902.735	18464
902.854	18414
902.973	18308
903.091	18224
903.21	18197
903.328	18060
903.446	17992
903.565	17992
903.683	17840
903.801	17817
903.919	18030
904.038	17863
904.156	17733
904.274	17718
904.392	17684
904.51	17684
904.627	17619
904.745	17649
904.863	17649
904.981	17501
905.098	17353
905.216	17334
905.334	17353
905.451	17337
905.569	17303
905.686	17185
905.803	17364
905.921	17189
906.038	17280
906.155	17128
906.272	17056
906.389	17045
906.506	16881
906.623	16824
906.74	16824
906.857	16729
906.974	16774
907.091	16911
907.208	17022
907.324	16873
907.441	16725
907.557	16615
907.674	16611
907.79	16558
907.907	16493
908.023	16607
908.139	16675
908.256	16569
908.372	16641
908.488	16474
908.604	16318
908.72	16272
908.836	16390
908.952	16371
909.068	16405
909.184	16459
909.3	16337
909.415	16318
909.531	16421
909.647	16116
909.762	16032
909.878	15949
909.993	16036
910.108	15945
910.224	15979
910.339	15956
910.454	15888
910.57	15842
910.685	15808
910.8	16010
910.915	15915
911.03	15812
911.145	15701
911.259	15584
911.374	15755
911.489	15599
911.604	15469
911.718	15405
911.833	15405
911.947	15306
912.062	15279
912.176	15416
912.291	15477
912.405	15526
912.519	15644
912.633	15553
912.748	15485
912.862	15317
912.976	15218
913.09	15104
913.204	15138
913.318	15233
913.431	15321
913.545	15374
913.659	15313
913.772	15199
913.886	15112
914	14994
914.113	15055
914.226	15055
914.34	15093
914.453	14861
914.566	15024
914.68	14887
914.793	14777
914.906	14727
915.019	14632
915.132	14560
915.245	14621
915.358	14594
915.47	14659
915.583	14583
915.696	14545
915.809	14705
915.921	14762
916.034	14587
916.146	14541
916.259	14552
916.371	14621
916.483	14617
916.595	14499
916.708	14476
916.82	14476
916.932	14484
917.044	14461
917.156	14396
917.268	14301
917.38	14309
917.491	14248
917.603	14336
917.715	14355
917.826	14465
917.938	14191
918.049	14103
918.161	14286
918.272	14499
918.384	14298
918.495	14286
918.606	14157
918.717	14039
918.828	14138
918.939	14081
919.05	13898
919.161	14008
919.272	13909
919.383	13917
919.494	14115
919.604	14229
919.715	14077
919.826	13902
919.936	14043
920.047	14107
920.157	14073
920.267	14180
920.378	14073
920.488	14103
920.598	14172
920.708	14446
920.818	14153
920.928	14062
921.038	14358
921.148	14278
921.258	13909
921.368	13909
921.477	13833
921.587	13864
921.697	13708
921.806	13757
921.916	13609
922.025	13529
922.134	13438
922.244	13403
922.353	13495
922.462	13251
922.571	13278
922.68	13114
922.789	13076
922.898	13122
923.007	13107
923.116	13137
923.224	13076
923.333	13038
923.442	12996
923.55	12928
923.659	12966
923.767	13046
923.876	12802
923.984	12993
924.092	12817
924.201	12829
924.309	12878
924.417	12791
924.525	12768
924.633	12772
924.741	13685
924.849	12604
924.956	12787
925.064	12589
925.172	12486
925.279	12460
925.387	12612
925.494	12521
925.602	12707
925.709	12585
925.816	12490
925.924	12536
926.031	12665
926.138	12479
926.245	12498
926.352	12426
926.459	12563
926.566	12662
926.673	12448
926.779	12384
926.886	12327
926.993	12140
927.099	12171
927.206	12079
927.312	12076
927.419	12194
927.525	12232
927.631	12125
927.737	12038
927.843	11984
927.95	11931
928.056	12041
928.162	11931
928.267	12053
928.373	12612
928.479	12064
928.585	11817
928.69	12007
928.796	12049
928.901	11805
929.007	11821
929.112	11939
929.218	11832
929.323	11821
929.428	11767
929.533	11786
929.638	11699
929.743	11707
929.848	11752
929.953	11695
930.058	11558
930.163	11402
930.267	11505
930.372	11592
930.477	11368
930.581	11646
930.685	11493
930.79	11360
930.894	11341
930.998	11341
931.103	11414
931.207	11121
931.311	10965
931.415	10873
931.519	10740
931.623	10710
