Data from test_V78500241_833.txt Node
Date: Fri Mar 25 15:15:39 CST 2022
User: usil
Spectrometer: V785-0024
Trigger mode: 0
Integration Time (sec): 4.000000E-1
Scans to average: 1
Nonlinearity correction enabled: false
Boxcar width: 0
Storing dark spectrum: false
XAxis mode: Wavelengths
Number of Pixels in Spectrum: 1024
>>>>>Begin Spectral Data<<<<<
801.071	28348
801.214	28291
801.356	28048
801.499	28036
801.641	27800
801.783	27774
801.926	28013
802.068	27774
802.211	27759
802.353	27751
802.496	27450
802.638	27481
802.78	27561
802.923	27473
803.065	27500
803.208	27622
803.35	27572
803.492	27762
803.635	27816
803.777	27736
803.919	27781
804.061	28002
804.204	27808
804.346	27663
804.488	27603
804.63	27595
804.773	27675
804.915	27739
805.057	27911
805.199	27663
805.341	27812
805.483	27937
805.626	27793
805.768	27694
805.91	27926
806.052	27914
806.194	27819
806.336	28082
806.478	27956
806.62	27918
806.762	28017
806.904	28219
807.046	28352
807.188	28337
807.33	28405
807.472	28371
807.614	28379
807.756	28303
807.898	28196
808.04	28226
808.182	28059
808.324	28196
808.465	28211
808.607	28424
808.749	28710
808.891	28721
809.033	28660
809.174	28569
809.316	28542
809.458	28596
809.6	28611
809.741	28634
809.883	28748
810.025	28919
810.166	29041
810.308	28793
810.45	28797
810.591	28908
810.733	28584
810.875	28611
811.016	28504
811.158	28485
811.299	28599
811.441	28717
811.582	28691
811.724	28538
811.865	28497
812.007	28626
812.148	28596
812.29	28580
812.431	28873
812.573	28972
812.714	28987
812.855	29128
812.997	29417
813.138	29505
813.279	29231
813.421	29193
813.562	29083
813.703	28946
813.845	28839
813.986	28523
814.127	28405
814.268	28173
814.41	28272
814.551	28196
814.692	28512
814.833	28280
814.974	28299
815.115	28394
815.256	28147
815.397	28238
815.539	28196
815.68	28147
815.821	28025
815.962	28059
816.103	28044
816.244	27998
816.385	27972
816.526	27937
816.666	27675
816.807	27671
816.948	27728
817.089	27835
817.23	27667
817.371	27519
817.512	27610
817.653	27557
817.793	27526
817.934	27610
818.075	27504
818.216	27648
818.356	27694
818.497	27534
818.638	27397
818.778	27264
818.919	27302
819.06	27374
819.2	27580
819.341	27583
819.481	27648
819.622	27873
819.762	27812
819.903	27823
820.043	27633
820.184	27705
820.324	27709
820.465	27873
820.605	27854
820.746	27557
820.886	27679
821.026	27682
821.167	27637
821.307	27755
821.447	27660
821.588	27663
821.728	27420
821.868	27405
822.008	27173
822.149	27150
822.289	27028
822.429	26842
822.569	26655
822.709	26648
822.849	26712
822.99	26617
823.13	26579
823.27	26762
823.41	26389
823.55	26351
823.69	26377
823.83	26400
823.97	26362
824.11	26244
824.25	26142
824.389	26183
824.529	26347
824.669	26180
824.809	26381
824.949	26267
825.089	26294
825.228	26214
825.368	25959
825.508	26134
825.648	26092
825.787	26130
825.927	26122
826.067	26126
826.206	26115
826.346	26221
826.485	26115
826.625	26039
826.765	26233
826.904	26054
827.044	26027
827.183	26077
827.323	25826
827.462	25807
827.601	25890
827.741	25814
827.88	25830
828.02	25761
828.159	25795
828.298	25898
828.437	25845
828.577	25715
828.716	25890
828.855	25658
828.994	25521
829.134	25647
829.273	25575
829.412	25609
829.551	25510
829.69	25594
829.829	25468
829.968	25628
830.107	25639
830.246	25476
830.385	25533
830.524	25388
830.663	25308
830.802	25247
830.941	25168
831.08	25072
831.219	25206
831.357	25312
831.496	25407
831.635	25088
831.774	25053
831.913	25069
832.051	25015
832.19	24867
832.329	25000
832.467	24852
832.606	24837
832.744	24726
832.883	24779
833.022	24844
833.16	24779
833.299	24787
833.437	24810
833.576	24928
833.714	24806
833.852	24875
833.991	24985
834.129	25091
834.267	24897
834.406	24894
834.544	24852
834.682	24810
834.821	24916
834.959	25042
835.097	24703
835.235	24924
835.373	24867
835.511	24886
835.65	24700
835.788	24711
835.926	24578
836.064	24563
836.202	24475
836.34	24768
836.478	24620
836.615	24631
836.753	24684
836.891	24681
837.029	24722
837.167	24749
837.305	24566
837.443	24540
837.58	24395
837.718	24593
837.856	24589
837.993	24483
838.131	24532
838.269	24422
838.406	24467
838.544	24350
838.681	24068
838.819	24155
838.956	24030
839.094	24068
839.231	24068
839.369	24144
839.506	24403
839.643	24209
839.781	24133
839.918	23980
840.055	23958
840.193	23984
840.33	23950
840.467	23843
840.604	23992
840.742	24125
840.879	23752
841.016	23805
841.153	23832
841.29	24053
841.427	23901
841.564	23897
841.701	23863
841.838	23771
841.975	23783
842.112	23710
842.249	23676
842.385	23649
842.522	23790
842.659	23710
842.796	23642
842.933	23722
843.069	23638
843.206	23741
843.343	23653
843.479	23767
843.616	23657
843.752	23398
843.889	23566
844.025	23608
844.162	23436
844.298	23539
844.435	23337
844.571	23512
844.708	23467
844.844	23520
844.98	23573
845.117	23600
845.253	23406
845.389	23250
845.525	23429
845.661	23159
845.798	23197
845.934	23178
846.07	23189
846.206	23121
846.342	23326
846.478	23151
846.614	23060
846.75	22774
846.886	22889
847.022	22995
847.158	22816
847.294	22816
847.429	22968
847.565	22938
847.701	23193
847.837	22672
847.972	22577
848.108	22793
848.244	22687
848.379	22630
848.515	22664
848.65	22489
848.786	22379
848.921	22531
849.057	22592
849.192	22508
849.328	22641
849.463	22481
849.598	22428
849.734	22402
849.869	22375
850.004	22299
850.14	22276
850.275	22390
850.41	22177
850.545	22135
850.68	22223
850.815	22177
850.95	22303
851.085	22295
851.22	22371
851.355	22314
851.49	22272
851.625	22223
851.76	22223
851.895	22188
852.03	22139
852.165	22128
852.299	22310
852.434	22287
852.569	22246
852.703	22303
852.838	22375
852.973	22344
853.107	22287
853.242	22238
853.376	22063
853.511	22025
853.645	22025
853.78	22162
853.914	22181
854.048	22074
854.183	22032
854.317	22135
854.451	22303
854.585	22192
854.72	21991
854.854	22131
854.988	22078
855.122	22196
855.256	21979
855.39	22135
855.524	22211
855.658	22002
855.792	22200
855.926	22090
856.06	22223
856.194	22109
856.327	22086
856.461	22002
856.595	22105
856.729	22059
856.862	22166
856.996	21987
857.13	22090
857.263	22078
857.397	22280
857.53	22090
857.664	22063
857.797	22181
857.931	22025
858.064	22207
858.197	22215
858.331	21983
858.464	21994
858.597	21991
858.731	21994
858.864	22063
858.997	22063
859.13	22059
859.263	22090
859.396	22169
859.529	22067
859.662	22032
859.795	21994
859.928	21979
860.061	22257
860.194	22192
860.327	22181
860.46	22154
860.592	22128
860.725	22230
860.858	22238
860.99	22063
861.123	22067
861.256	22017
861.388	22048
861.521	22782
861.653	21953
861.786	21964
861.918	21774
862.05	21979
862.183	22021
862.315	21979
862.447	22173
862.58	21960
862.712	21660
862.844	21686
862.976	21857
863.108	21899
863.24	22120
863.372	21865
863.504	21732
863.636	21827
863.768	21793
863.9	21766
864.032	21656
864.164	21846
864.296	21835
864.428	21823
864.559	21873
864.691	21903
864.823	21606
864.954	21789
865.086	21823
865.217	21720
865.349	21603
865.48	21732
865.612	21564
865.743	21846
865.875	21583
866.006	21610
866.137	21629
866.269	21739
866.4	21622
866.531	21660
866.662	21633
866.793	21519
866.924	21568
867.055	21576
867.186	21637
867.317	21549
867.448	21504
867.579	21557
867.71	21408
867.841	21663
867.972	21656
868.103	21443
868.233	21587
868.364	21663
868.495	21690
868.625	21781
868.756	21865
868.886	21831
869.017	21747
869.147	21888
869.278	21892
869.408	21835
869.539	21835
869.669	21922
869.799	21953
869.929	21964
870.06	21953
870.19	22200
870.32	22162
870.45	22139
870.58	22230
870.71	22257
870.84	22284
870.97	22185
871.1	22158
871.23	22531
871.36	22409
871.489	22459
871.619	22413
871.749	22318
871.879	22447
872.008	22516
872.138	22459
872.267	22371
872.397	22276
872.526	22265
872.656	22150
872.785	22223
872.915	22390
873.044	22455
873.173	22436
873.303	22436
873.432	22424
873.561	22508
873.69	22493
873.819	22485
873.948	22573
874.077	22470
874.206	22436
874.335	22402
874.464	22542
874.593	22759
874.722	22634
874.851	22736
874.979	22603
875.108	22618
875.237	22630
875.365	22538
875.494	22725
875.623	22736
875.751	22557
875.88	22710
876.008	22786
876.136	22866
876.265	22976
876.393	23064
876.521	23090
876.65	23124
876.778	23162
876.906	22881
877.034	22957
877.162	23014
877.29	22904
877.418	23056
877.546	23075
877.674	22995
877.802	22949
877.93	22915
878.058	22866
878.185	22889
878.313	22850
878.441	22904
878.568	22839
878.696	22866
878.824	23052
878.951	23037
879.079	23239
879.206	23265
879.333	23052
879.461	23079
879.588	23079
879.715	23056
879.842	23341
879.97	22984
880.097	22778
880.224	22820
880.351	22839
880.478	22866
880.605	22744
880.732	22847
880.859	22999
880.986	22668
881.112	22774
881.239	22854
881.366	22424
881.493	22459
881.619	22268
881.746	22497
881.872	22284
881.999	22322
882.125	22299
882.252	22417
882.378	22352
882.505	22394
882.631	22287
882.757	22147
882.883	22120
883.01	22029
883.136	22063
883.262	21850
883.388	21880
883.514	22128
883.64	22082
883.766	21880
883.892	21854
884.018	21804
884.143	21960
884.269	22029
884.395	21831
884.52	21759
884.646	21701
884.772	21606
884.897	21580
885.023	21728
885.148	21857
885.274	21732
885.399	21827
885.524	21770
885.65	21739
885.775	21633
885.9	21671
886.025	21675
886.15	21778
886.275	21622
886.4	21641
886.525	21530
886.65	21515
886.775	21610
886.9	21808
887.025	21819
887.149	21576
887.274	21488
887.399	21447
887.523	21397
887.648	21424
887.773	21424
887.897	21595
888.021	21397
888.146	21321
888.27	21428
888.395	21660
888.519	21583
888.643	21530
888.767	21485
888.891	21370
889.015	21154
889.139	21325
889.263	21211
889.387	21230
889.511	21477
889.635	21378
889.759	21283
889.883	21252
890.006	21176
890.13	21477
890.254	21252
890.377	21146
890.501	21131
890.624	21085
890.748	21055
890.871	20861
890.995	20842
891.118	20785
891.241	20750
891.364	20697
891.488	20975
891.611	20864
891.734	20845
891.857	20899
891.98	20758
892.103	20880
892.226	20819
892.349	20716
892.471	20545
892.594	20621
892.717	20754
892.839	20659
892.962	20842
893.085	20739
893.207	20689
893.33	20731
893.452	20545
893.575	20765
893.697	20678
893.819	20838
893.941	20895
894.064	20788
894.186	20621
894.308	20617
894.43	20769
894.552	20819
894.674	20743
894.796	20609
894.918	20648
895.04	20602
895.161	20712
895.283	20659
895.405	20568
895.526	20769
895.648	20697
895.769	20686
895.891	20724
896.012	20769
896.134	20743
896.255	20720
896.376	20587
896.498	20701
896.619	20830
896.74	20765
896.861	20674
896.982	20967
897.103	21138
897.224	20918
897.345	20937
897.466	20773
897.587	20845
897.708	21062
897.828	20918
897.949	20864
898.07	20693
898.19	20933
898.311	20937
898.431	20811
898.552	20868
898.672	20944
898.792	21093
898.913	20982
899.033	20731
899.153	20598
899.273	20571
899.393	20579
899.513	20667
899.633	20587
899.753	20712
899.873	20511
899.993	20705
900.113	20693
900.232	20488
900.352	20579
900.472	20461
900.591	20400
900.711	20419
900.83	20309
900.95	20412
901.069	20442
901.189	20233
901.308	20039
901.427	19928
901.546	19887
901.665	19887
901.784	19959
901.904	19795
902.023	19750
902.141	19491
902.26	19616
902.379	19563
902.498	19430
902.617	19483
902.735	19510
902.854	19487
902.973	19384
903.091	19293
903.21	19133
903.328	19160
903.446	19095
903.565	19019
903.683	18897
903.801	18787
903.919	18894
904.038	18829
904.156	18722
904.274	18776
904.392	18677
904.51	18631
904.627	18578
904.745	18684
904.863	18722
904.981	18384
905.098	18422
905.216	18410
905.334	18426
905.451	18422
905.569	18346
905.686	18525
905.803	18281
905.921	18239
906.038	18254
906.155	18095
906.272	18091
906.389	18114
906.506	17977
906.623	17908
906.74	17935
906.857	17745
906.974	17771
907.091	17885
907.208	17988
907.324	17908
907.441	17790
907.557	17676
907.674	17634
907.79	17562
907.907	17459
908.023	17608
908.139	17608
908.256	17566
908.372	17623
908.488	17524
908.604	17474
908.72	17303
908.836	17436
908.952	17376
909.068	17349
909.184	17364
909.3	17227
909.415	17337
909.531	17216
909.647	17029
909.762	17033
909.878	17075
909.993	17022
910.108	17010
910.224	16976
910.339	17018
910.454	16885
910.57	16919
910.685	16847
910.8	17075
910.915	16957
911.03	16824
911.145	16744
911.259	16592
911.374	16565
911.489	16565
911.604	16405
911.718	16417
911.833	16375
911.947	16253
912.062	16162
912.176	16310
912.291	16375
912.405	16402
912.519	16577
912.633	16580
912.748	16394
912.862	16360
912.976	16226
913.09	16093
913.204	16143
913.318	16109
913.431	16318
913.545	16204
913.659	16295
913.772	16078
913.886	16044
914	15956
914.113	16029
914.226	16013
914.34	16086
914.453	15854
914.566	16055
914.68	15812
914.793	15850
914.906	15576
915.019	15633
915.132	15500
915.245	15584
915.358	15595
915.47	15690
915.583	15515
915.696	15644
915.809	15755
915.921	15713
916.034	15412
916.146	15511
916.259	15481
916.371	15523
916.483	15454
916.595	15450
916.708	15481
916.82	15370
916.932	15340
917.044	15393
917.156	15321
917.268	15199
917.38	15283
917.491	15233
917.603	15173
917.715	15169
917.826	15169
917.938	15157
918.049	15062
918.161	15108
918.272	15188
918.384	15260
918.495	15169
918.606	14990
918.717	14895
918.828	15013
918.939	14914
919.05	14914
919.161	14941
919.272	14765
919.383	14663
919.494	14937
919.604	15142
919.715	14933
919.826	14781
919.936	14887
920.047	14937
920.157	14933
920.267	15093
920.378	15024
920.488	14906
920.598	15032
920.708	15116
920.818	15100
920.928	15039
921.038	15192
921.148	15146
921.258	14807
921.368	14667
921.477	14651
921.587	14568
921.697	14499
921.806	14655
921.916	14541
922.025	14218
922.134	14267
922.244	14229
922.353	14256
922.462	14180
922.571	14103
922.68	13967
922.789	13845
922.898	13860
923.007	13811
923.116	13856
923.224	13917
923.333	13879
923.442	13791
923.55	13723
923.659	13761
923.767	13693
923.876	13708
923.984	13803
924.092	13662
924.201	13727
924.309	13605
924.417	13658
924.525	13464
924.633	13605
924.741	14450
924.849	13285
924.956	13453
925.064	13320
925.172	13228
925.279	13266
925.387	13282
925.494	13278
925.602	13419
925.709	13422
925.816	13126
925.924	13259
926.031	13221
926.138	13263
926.245	13278
926.352	13110
926.459	13335
926.566	13282
926.673	13175
926.779	13019
926.886	13031
926.993	12951
927.099	12890
927.206	12894
927.312	12791
927.419	12916
927.525	12814
927.631	12890
927.737	12829
927.843	12612
927.95	12555
928.056	12612
928.162	12677
928.267	12783
928.373	13331
928.479	12715
928.585	12498
928.69	12601
928.796	12589
928.901	12517
929.007	12460
929.112	12456
929.218	12486
929.323	12350
929.428	12426
929.533	12460
929.638	12270
929.743	12308
929.848	12437
929.953	12319
930.058	12232
930.163	12159
930.267	12072
930.372	12239
930.477	12019
930.581	12224
930.685	12159
930.79	11969
930.894	11961
930.998	11973
931.103	12121
931.207	11714
931.311	11596
931.415	11493
931.519	11433
931.623	11311
