Data from test_V78500241_618.txt Node
Date: Fri Mar 25 15:14:09 CST 2022
User: usil
Spectrometer: V785-0024
Trigger mode: 0
Integration Time (sec): 4.000000E-1
Scans to average: 1
Nonlinearity correction enabled: false
Boxcar width: 0
Storing dark spectrum: false
XAxis mode: Wavelengths
Number of Pixels in Spectrum: 1024
>>>>>Begin Spectral Data<<<<<
801.071	27690
801.214	27743
801.356	27405
801.499	27443
801.641	27252
801.783	27370
801.926	27283
802.068	27298
802.211	27009
802.353	27184
802.496	26925
802.638	26967
802.78	26872
802.923	26918
803.065	26758
803.208	26758
803.35	26891
803.492	27013
803.635	27066
803.777	26796
803.919	27055
804.061	27214
804.204	27005
804.346	26845
804.488	26891
804.63	26986
804.773	26952
804.915	27020
805.057	27252
805.199	26910
805.341	27085
805.483	27283
805.626	27226
805.768	26990
805.91	27203
806.052	27165
806.194	27173
806.336	27382
806.478	27093
806.62	27116
806.762	27249
806.904	27458
807.046	27831
807.188	27660
807.33	27800
807.472	27709
807.614	27587
807.756	27583
807.898	27359
808.04	27302
808.182	27420
808.324	27496
808.465	27500
808.607	27572
808.749	27766
808.891	27793
809.033	27926
809.174	27865
809.316	27934
809.458	27937
809.6	27720
809.741	27945
809.883	27983
810.025	28135
810.166	28040
810.308	28101
810.45	28070
810.591	28166
810.733	27960
810.875	27724
811.016	27591
811.158	27865
811.299	27861
811.441	28169
811.582	27892
811.724	27857
811.865	27720
812.007	27899
812.148	27705
812.29	27869
812.431	28055
812.573	28135
812.714	28337
812.855	28367
812.997	28436
813.138	28592
813.279	28546
813.421	28371
813.562	28287
813.703	28417
813.845	28040
813.986	27778
814.127	27549
814.268	27492
814.41	27549
814.551	27507
814.692	27637
814.833	27310
814.974	27405
815.115	27564
815.256	27348
815.397	27416
815.539	27389
815.68	27275
815.821	27241
815.962	27214
816.103	27245
816.244	27176
816.385	27157
816.526	27165
816.666	26944
816.807	26762
816.948	26902
817.089	26876
817.23	26918
817.371	26864
817.512	26845
817.653	26670
817.793	26693
817.934	26743
818.075	26727
818.216	26826
818.356	26792
818.497	26670
818.638	26552
818.778	26476
818.919	26640
819.06	26568
819.2	26701
819.341	26716
819.481	26887
819.622	27032
819.762	27161
819.903	26990
820.043	26956
820.184	26933
820.324	27081
820.465	26910
820.605	27051
820.746	26876
820.886	26857
821.026	26830
821.167	26857
821.307	26956
821.447	26914
821.588	26705
821.728	26552
821.868	26522
822.008	26301
822.149	26351
822.289	26355
822.429	25902
822.569	25955
822.709	25936
822.849	25826
822.99	25818
823.13	25674
823.27	25769
823.41	25537
823.55	25457
823.69	25658
823.83	25590
823.97	25586
824.11	25396
824.25	25266
824.389	25434
824.529	25514
824.669	25476
824.809	25533
824.949	25616
825.089	25476
825.228	25510
825.368	25282
825.508	25259
825.648	25278
825.787	25206
825.927	25415
826.067	25084
826.206	25312
826.346	25244
826.485	25327
826.625	25293
826.765	25510
826.904	25316
827.044	24943
827.183	25145
827.323	25015
827.462	24924
827.601	24977
827.741	24886
827.88	24943
828.02	24833
828.159	24985
828.298	25038
828.437	25133
828.577	24878
828.716	25202
828.855	24939
828.994	24692
829.134	24677
829.273	24817
829.412	24722
829.551	24646
829.69	24871
829.829	24760
829.968	24772
830.107	24833
830.246	24642
830.385	24696
830.524	24536
830.663	24525
830.802	24513
830.941	24315
831.08	24330
831.219	24486
831.357	24323
831.496	24574
831.635	24194
831.774	24178
831.913	24235
832.051	24091
832.19	24121
832.329	24106
832.467	24053
832.606	24003
832.744	24003
832.883	24072
833.022	23969
833.16	24068
833.299	24026
833.437	24049
833.576	24057
833.714	23965
833.852	24186
833.991	24209
834.129	24159
834.267	24167
834.406	24057
834.544	24140
834.682	24057
834.821	23904
834.959	24213
835.097	23965
835.235	24095
835.373	24079
835.511	24022
835.65	23859
835.788	23935
835.926	23752
836.064	23646
836.202	23802
836.34	23920
836.478	23939
836.615	23893
836.753	23878
836.891	24003
837.029	23931
837.167	23901
837.305	23813
837.443	23684
837.58	23710
837.718	23870
837.856	23718
837.993	23638
838.131	23745
838.269	23573
838.406	23570
838.544	23463
838.681	23379
838.819	23296
838.956	23303
839.094	23090
839.231	23337
839.369	23398
839.506	23615
839.643	23398
839.781	23075
839.918	23033
840.055	23216
840.193	23261
840.33	23166
840.467	22999
840.604	23288
840.742	23436
840.879	23037
841.016	23033
841.153	23094
841.29	23189
841.427	23098
841.564	23162
841.701	23090
841.838	23162
841.975	23010
842.112	23033
842.249	22892
842.385	22930
842.522	22987
842.659	23060
842.796	22862
842.933	22919
843.069	22885
843.206	22957
843.343	22911
843.479	22873
843.616	22847
843.752	22653
843.889	22607
844.025	22740
844.162	22675
844.298	22641
844.435	22717
844.571	22611
844.708	22664
844.844	22683
844.98	22752
845.117	22805
845.253	22542
845.389	22398
845.525	22573
845.661	22577
845.798	22451
845.934	22424
846.07	22390
846.206	22447
846.342	22470
846.478	22348
846.614	22177
846.75	22169
846.886	22196
847.022	22226
847.158	22185
847.294	22154
847.429	22166
847.565	21975
847.701	22310
847.837	21781
847.972	21781
848.108	21918
848.244	21892
848.379	21694
848.515	21713
848.65	21599
848.786	21610
848.921	21656
849.057	21816
849.192	21804
849.328	21762
849.463	21755
849.598	21652
849.734	21686
849.869	21583
850.004	21515
850.14	21458
850.275	21641
850.41	21291
850.545	21466
850.68	21397
850.815	21572
850.95	21450
851.085	21698
851.22	21591
851.355	21511
851.49	21492
851.625	21542
851.76	21473
851.895	21416
852.03	21412
852.165	21488
852.299	21485
852.434	21473
852.569	21564
852.703	21530
852.838	21641
852.973	21500
853.107	21549
853.242	21469
853.376	21428
853.511	21298
853.645	21355
853.78	21412
853.914	21428
854.048	21317
854.183	21359
854.317	21306
854.451	21614
854.585	21279
854.72	21313
854.854	21344
854.988	21180
855.122	21291
855.256	21138
855.39	21397
855.524	21424
855.658	21367
855.792	21416
855.926	21237
856.06	21325
856.194	21378
856.327	21211
856.461	21310
856.595	21230
856.729	21241
856.862	21439
856.996	21431
857.13	21515
857.263	21481
857.397	21359
857.53	21378
857.664	21424
857.797	21370
857.931	21416
858.064	21420
858.197	21344
858.331	21386
858.464	21226
858.597	21241
858.731	21401
858.864	21279
858.997	21294
859.13	21306
859.263	21378
859.396	21428
859.529	21203
859.662	21310
859.795	21469
859.928	21370
860.061	21473
860.194	21568
860.327	21382
860.46	21370
860.592	21431
860.725	21523
860.858	21488
860.99	21336
861.123	21176
861.256	21298
861.388	21237
861.521	22112
861.653	21203
861.786	21051
861.918	21089
862.05	21150
862.183	21184
862.315	21272
862.447	21199
862.58	21245
862.712	21051
862.844	21089
862.976	21157
863.108	21085
863.24	21477
863.372	21005
863.504	21009
863.636	20960
863.768	21081
863.9	21058
864.032	21020
864.164	20990
864.296	21009
864.428	21226
864.559	21150
864.691	21116
864.823	21020
864.954	21085
865.086	21009
865.217	20948
865.349	20960
865.48	20887
865.612	20944
865.743	21062
865.875	21020
866.006	20998
866.137	20914
866.269	20876
866.4	20868
866.531	20918
866.662	20777
866.793	20941
866.924	20887
867.055	20830
867.186	20853
867.317	20811
867.448	20765
867.579	20743
867.71	20746
867.841	20697
867.972	20979
868.103	20739
868.233	20849
868.364	20921
868.495	20944
868.625	21157
868.756	21222
868.886	21055
869.017	21138
869.147	21135
869.278	21161
869.408	21184
869.539	21096
869.669	21154
869.799	21203
869.929	21222
870.06	21169
870.19	21393
870.32	21492
870.45	21389
870.58	21424
870.71	21572
870.84	21622
870.97	21507
871.1	21511
871.23	21603
871.36	21656
871.489	21637
871.619	21660
871.749	21690
871.879	21701
872.008	21762
872.138	21641
872.267	21671
872.397	21625
872.526	21561
872.656	21553
872.785	21469
872.915	21762
873.044	21789
873.173	21656
873.303	21736
873.432	21797
873.561	21865
873.69	21732
873.819	21793
873.948	21903
874.077	21686
874.206	21713
874.335	21736
874.464	21827
874.593	21945
874.722	21812
874.851	21987
874.979	22063
875.108	21956
875.237	21838
875.365	21869
875.494	21945
875.623	22044
875.751	21884
875.88	22006
876.008	22051
876.136	22055
876.265	22440
876.393	22432
876.521	22379
876.65	22337
876.778	22341
876.906	22375
877.034	22253
877.162	22272
877.29	22268
877.418	22299
877.546	22253
877.674	22405
877.802	22287
877.93	22306
878.058	22219
878.185	22246
878.313	22200
878.441	22196
878.568	22173
878.696	22223
878.824	22284
878.951	22428
879.079	22405
879.206	22554
879.333	22489
879.461	22329
879.588	22405
879.715	22398
879.842	22550
879.97	22318
880.097	22185
880.224	22265
880.351	22017
880.478	22002
880.605	22067
880.732	22067
880.859	22337
880.986	22215
881.112	22147
881.239	21888
881.366	21899
881.493	21827
881.619	21622
881.746	21595
881.872	21625
881.999	21625
882.125	21492
882.252	21637
882.378	21641
882.505	21766
882.631	21458
882.757	21469
882.883	21519
883.01	21473
883.136	21256
883.262	21275
883.388	21249
883.514	21363
883.64	21378
883.766	21462
883.892	21119
884.018	21123
884.143	21294
884.269	21473
884.395	21154
884.52	21028
884.646	21093
884.772	20872
884.897	20941
885.023	21066
885.148	21150
885.274	21233
885.399	21028
885.524	21093
885.65	21150
885.775	21036
885.9	21055
886.025	21165
886.15	21146
886.275	21013
886.4	20918
886.525	21154
886.65	20990
886.775	21036
886.9	21043
887.025	21268
887.149	20975
887.274	20804
887.399	20720
887.523	20834
887.648	20659
887.773	20746
887.897	20906
888.021	20883
888.146	20735
888.27	20880
888.395	20845
888.519	20830
888.643	20758
888.767	20777
888.891	20811
889.015	20625
889.139	20670
889.263	20735
889.387	20648
889.511	20777
889.635	20689
889.759	20625
889.883	20651
890.006	20594
890.13	20720
890.254	20488
890.377	20492
890.501	20309
890.624	20355
890.748	20415
890.871	20237
890.995	20126
891.118	20100
891.241	20092
891.364	20225
891.488	20259
891.611	20157
891.734	20206
891.857	20259
891.98	20111
892.103	20252
892.226	20134
892.349	20088
892.471	19890
892.594	20130
892.717	20115
892.839	20039
892.962	20183
893.085	20214
893.207	20130
893.33	19997
893.452	19978
893.575	20077
893.697	19989
893.819	20259
893.941	20263
894.064	20115
894.186	19902
894.308	20084
894.43	20164
894.552	20301
894.674	20119
894.796	19989
894.918	19951
895.04	20005
895.161	20130
895.283	20069
895.405	19852
895.526	20035
895.648	20096
895.769	20122
895.891	20157
896.012	20081
896.134	20096
896.255	20100
896.376	20001
896.498	20153
896.619	20088
896.74	20050
896.861	20134
896.982	20275
897.103	20571
897.224	20400
897.345	20161
897.466	20256
897.587	20377
897.708	20377
897.828	20259
897.949	20202
898.07	20119
898.19	20168
898.311	20404
898.431	20157
898.552	20324
898.672	20419
898.792	20195
898.913	20301
899.033	20115
899.153	20111
899.273	20054
899.393	20008
899.513	20081
899.633	19989
899.753	19955
899.873	19902
899.993	20145
900.113	19963
900.232	20005
900.352	19860
900.472	19788
900.591	19890
900.711	19822
900.83	19723
900.95	19909
901.069	19864
901.189	19685
901.308	19464
901.427	19362
901.546	19381
901.665	19460
901.784	19476
901.904	19282
902.023	19266
902.141	19012
902.26	18954
902.379	18977
902.498	18920
902.617	18913
902.735	18985
902.854	18901
902.973	18882
903.091	18616
903.21	18486
903.328	18658
903.446	18475
903.565	18342
903.683	18350
903.801	18365
903.919	18334
904.038	18330
904.156	18174
904.274	18277
904.392	18026
904.51	18098
904.627	18110
904.745	18171
904.863	18197
904.981	17988
905.098	17790
905.216	17760
905.334	17843
905.451	17863
905.569	17741
905.686	17809
905.803	17821
905.921	17543
906.038	17790
906.155	17592
906.272	17459
906.389	17520
906.506	17433
906.623	17349
906.74	17311
906.857	17292
906.974	17231
907.091	17436
907.208	17452
907.324	17436
907.441	17288
907.557	17048
907.674	17170
907.79	17029
907.907	17060
908.023	17071
908.139	17113
908.256	17098
908.372	16927
908.488	16968
908.604	16911
908.72	16664
908.836	16850
908.952	16858
909.068	16820
909.184	16942
909.3	16889
909.415	16782
909.531	16839
909.647	16527
909.762	16497
909.878	16382
909.993	16409
910.108	16481
910.224	16466
910.339	16538
910.454	16481
910.57	16360
910.685	16249
910.8	16565
910.915	16535
911.03	16261
911.145	16105
911.259	16166
911.374	16074
911.489	15991
911.604	16021
911.718	15873
911.833	15869
911.947	15755
912.062	15675
912.176	15842
912.291	15781
912.405	15778
912.519	16013
912.633	16036
912.748	15880
912.862	15739
912.976	15709
913.09	15549
913.204	15625
913.318	15690
913.431	15816
913.545	15785
913.659	15717
913.772	15557
913.886	15523
914	15458
914.113	15534
914.226	15568
914.34	15549
914.453	15218
914.566	15549
914.68	15344
914.793	15245
914.906	15123
915.019	15005
915.132	14937
915.245	15154
915.358	15013
915.47	15017
915.583	15112
915.696	15074
915.809	15165
915.921	15169
916.034	15123
916.146	15013
916.259	15043
916.371	15066
916.483	15001
916.595	14845
916.708	14872
916.82	14998
916.932	14971
917.044	14819
917.156	14853
917.268	14765
917.38	14731
917.491	14720
917.603	14765
917.715	14819
917.826	14792
917.938	14659
918.049	14640
918.161	14701
918.272	14842
918.384	14838
918.495	14670
918.606	14499
918.717	14434
918.828	14446
918.939	14541
919.05	14374
919.161	14431
919.272	14332
919.383	14309
919.494	14560
919.604	14571
919.715	14469
919.826	14404
919.936	14381
920.047	14587
920.157	14412
920.267	14678
920.378	14511
920.488	14431
920.598	14549
920.708	14758
920.818	14556
920.928	14530
921.038	14663
921.148	14670
921.258	14423
921.368	14404
921.477	14183
921.587	14149
921.697	14005
921.806	14062
921.916	14062
922.025	13917
922.134	13731
922.244	13814
922.353	13761
922.462	13753
922.571	13689
922.68	13468
922.789	13411
922.898	13457
923.007	13472
923.116	13506
923.224	13518
923.333	13441
923.442	13293
923.55	13346
923.659	13335
923.767	13426
923.876	13289
923.984	13358
924.092	13236
924.201	13175
924.309	13194
924.417	13247
924.525	13152
924.633	13114
924.741	13837
924.849	12996
924.956	13095
925.064	13008
925.172	12757
925.279	12856
925.387	12901
925.494	12829
925.602	13042
925.709	12932
925.816	12768
925.924	12802
926.031	12909
926.138	12913
926.245	12871
926.352	12779
926.459	12913
926.566	12909
926.673	12703
926.779	12650
926.886	12616
926.993	12452
927.099	12483
927.206	12448
927.312	12426
927.419	12486
927.525	12441
927.631	12456
927.737	12429
927.843	12262
927.95	12201
928.056	12308
928.162	12285
928.267	12399
928.373	12878
928.479	12361
928.585	12175
928.69	12216
928.796	12308
928.901	12083
929.007	11942
929.112	12182
929.218	12064
929.323	12038
929.428	12022
929.533	12136
929.638	11920
929.743	12038
929.848	11927
929.953	11935
930.058	11923
930.163	11752
930.267	11771
930.372	11783
930.477	11726
930.581	11901
930.685	11809
930.79	11589
930.894	11630
930.998	11592
931.103	11596
931.207	11269
931.311	11223
931.415	11162
931.519	10987
931.623	11029
