Data from test_V78500241_449.txt Node
Date: Fri Mar 25 15:12:59 CST 2022
User: usil
Spectrometer: V785-0024
Trigger mode: 0
Integration Time (sec): 4.000000E-1
Scans to average: 1
Nonlinearity correction enabled: false
Boxcar width: 0
Storing dark spectrum: false
XAxis mode: Wavelengths
Number of Pixels in Spectrum: 1024
>>>>>Begin Spectral Data<<<<<
801.071	27135
801.214	27203
801.356	26899
801.499	26956
801.641	26705
801.783	26750
801.926	26990
802.068	26750
802.211	26568
802.353	26571
802.496	26374
802.638	26336
802.78	26438
802.923	26336
803.065	26324
803.208	26366
803.35	26313
803.492	26423
803.635	26499
803.777	26393
803.919	26499
804.061	26902
804.204	26492
804.346	26473
804.488	26404
804.63	26434
804.773	26320
804.915	26583
805.057	26579
805.199	26431
805.341	26533
805.483	26708
805.626	26526
805.768	26355
805.91	26663
806.052	26609
806.194	26644
806.336	26788
806.478	26602
806.62	26408
806.762	26815
806.904	27036
807.046	27180
807.188	27081
807.33	26910
807.472	27066
807.614	26990
807.756	26914
807.898	26929
808.04	26830
808.182	26937
808.324	26876
808.465	26842
808.607	27108
808.749	27100
808.891	27340
809.033	27294
809.174	27233
809.316	27142
809.458	27161
809.6	27116
809.741	27218
809.883	27287
810.025	27481
810.166	27374
810.308	27572
810.45	27473
810.591	27367
810.733	27306
810.875	27195
811.016	27089
811.158	27074
811.299	27321
811.441	27321
811.582	27325
811.724	27192
811.865	27051
812.007	27283
812.148	27112
812.29	27188
812.431	27412
812.573	27629
812.714	27614
812.855	27713
812.997	27793
813.138	27983
813.279	27892
813.421	27755
813.562	27698
813.703	27530
813.845	27447
813.986	27188
814.127	26975
814.268	26804
814.41	26792
814.551	26956
814.692	26994
814.833	26781
814.974	26819
815.115	26853
815.256	26663
815.397	26632
815.539	26807
815.68	26644
815.821	26693
815.962	26739
816.103	26693
816.244	26579
816.385	26431
816.526	26442
816.666	26267
816.807	26142
816.948	26115
817.089	26237
817.23	26309
817.371	26126
817.512	26054
817.653	26138
817.793	26077
817.934	25993
818.075	26168
818.216	26214
818.356	26111
818.497	26005
818.638	25826
818.778	25902
818.919	25833
819.06	25894
819.2	26012
819.341	26126
819.481	26157
819.622	26328
819.762	26499
819.903	26442
820.043	26328
820.184	26233
820.324	26210
820.465	26180
820.605	26286
820.746	26332
820.886	26214
821.026	26267
821.167	26221
821.307	26324
821.447	26199
821.588	26081
821.728	25830
821.868	25772
822.008	25712
822.149	25571
822.289	25712
822.429	25377
822.569	25198
822.709	25388
822.849	25129
822.99	24973
823.13	25133
823.27	25019
823.41	24916
823.55	24757
823.69	24817
823.83	24882
823.97	24795
824.11	24734
824.25	24726
824.389	24734
824.529	24856
824.669	24688
824.809	24890
824.949	24772
825.089	24886
825.228	24776
825.368	24555
825.508	24639
825.648	24555
825.787	24658
825.927	24745
826.067	24582
826.206	24483
826.346	24540
826.485	24692
826.625	24684
826.765	24734
826.904	24509
827.044	24407
827.183	24384
827.323	24254
827.462	24315
827.601	24479
827.741	24311
827.88	24334
828.02	24243
828.159	24232
828.298	24388
828.437	24429
828.577	24304
828.716	24323
828.855	24171
828.994	24129
829.134	24163
829.273	24015
829.412	24064
829.551	24106
829.69	24034
829.829	24117
829.968	24174
830.107	24155
830.246	24072
830.385	24076
830.524	23996
830.663	23828
830.802	23813
830.941	23615
831.08	23573
831.219	23646
831.357	23817
831.496	23958
831.635	23703
831.774	23638
831.913	23592
832.051	23421
832.19	23417
832.329	23440
832.467	23395
832.606	23356
832.744	23216
832.883	23326
833.022	23261
833.16	23414
833.299	23345
833.437	23402
833.576	23372
833.714	23360
833.852	23433
833.991	23425
834.129	23440
834.267	23459
834.406	23402
834.544	23387
834.682	23395
834.821	23379
834.959	23600
835.097	23421
835.235	23630
835.373	23341
835.511	23364
835.65	23197
835.788	23280
835.926	23147
836.064	23166
836.202	23075
836.34	23280
836.478	23212
836.615	23155
836.753	23334
836.891	23379
837.029	23227
837.167	23292
837.305	23105
837.443	23208
837.58	23105
837.718	23056
837.856	23124
837.993	22949
838.131	23098
838.269	22957
838.406	22961
838.544	22987
838.681	22809
838.819	22786
838.956	22664
839.094	22531
839.231	22637
839.369	22672
839.506	22896
839.643	22904
839.781	22523
839.918	22615
840.055	22588
840.193	22603
840.33	22447
840.467	22409
840.604	22622
840.742	22801
840.879	22238
841.016	22413
841.153	22390
841.29	22565
841.427	22497
841.564	22592
841.701	22432
841.838	22497
841.975	22462
842.112	22493
842.249	22436
842.385	22303
842.522	22637
842.659	22443
842.796	22299
842.933	22306
843.069	22249
843.206	22310
843.343	22352
843.479	22268
843.616	22360
843.752	22150
843.889	22013
844.025	22188
844.162	22166
844.298	22234
844.435	22124
844.571	22040
844.708	22010
844.844	22185
844.98	22162
845.117	22150
845.253	21915
845.389	21884
845.525	22074
845.661	21895
845.798	21816
845.934	21835
846.07	21850
846.206	21907
846.342	21819
846.478	21846
846.614	21660
846.75	21523
846.886	21568
847.022	21732
847.158	21587
847.294	21511
847.429	21633
847.565	21564
847.701	21808
847.837	21317
847.972	21230
848.108	21488
848.244	21245
848.379	21169
848.515	21116
848.65	21146
848.786	21116
848.921	21165
849.057	21302
849.192	21268
849.328	21146
849.463	21211
849.598	21112
849.734	21001
849.869	20941
850.004	20788
850.14	20857
850.275	20807
850.41	20830
850.545	20823
850.68	20823
850.815	20902
850.95	20861
851.085	21001
851.22	20937
851.355	20921
851.49	20815
851.625	20880
851.76	20777
851.895	20842
852.03	20842
852.165	20902
852.299	20963
852.434	21020
852.569	20891
852.703	21051
852.838	20967
852.973	21100
853.107	20994
853.242	20708
853.376	20800
853.511	20617
853.645	20651
853.78	20849
853.914	20777
854.048	20686
854.183	20678
854.317	20739
854.451	20902
854.585	20609
854.72	20674
854.854	20807
854.988	20537
855.122	20727
855.256	20590
855.39	20731
855.524	20849
855.658	20712
855.792	20765
855.926	20697
856.06	20678
856.194	20777
856.327	20651
856.461	20598
856.595	20682
856.729	20632
856.862	20746
856.996	20651
857.13	20746
857.263	20773
857.397	20727
857.53	20823
857.664	20864
857.797	20750
857.931	20777
858.064	20773
858.197	20781
858.331	20788
858.464	20724
858.597	20682
858.731	20701
858.864	20632
858.997	20659
859.13	20731
859.263	20632
859.396	20826
859.529	20686
859.662	20750
859.795	20693
859.928	20765
860.061	20693
860.194	20906
860.327	20804
860.46	20705
860.592	20731
860.725	20880
860.858	20868
860.99	20648
861.123	20743
861.256	20590
861.388	20796
861.521	21439
861.653	20617
861.786	20518
861.918	20545
862.05	20636
862.183	20625
862.315	20663
862.447	20663
862.58	20644
862.712	20419
862.844	20328
862.976	20454
863.108	20469
863.24	20864
863.372	20385
863.504	20457
863.636	20438
863.768	20492
863.9	20377
864.032	20332
864.164	20313
864.296	20423
864.428	20507
864.559	20514
864.691	20412
864.823	20450
864.954	20419
865.086	20442
865.217	20343
865.349	20339
865.48	20317
865.612	20446
865.743	20450
865.875	20336
866.006	20263
866.137	20343
866.269	20366
866.4	20328
866.531	20195
866.662	20153
866.793	20381
866.924	20202
867.055	20305
867.186	20381
867.317	20225
867.448	20298
867.579	20298
867.71	20248
867.841	20290
867.972	20377
868.103	20328
868.233	20309
868.364	20301
868.495	20427
868.625	20431
868.756	20682
868.886	20488
869.017	20587
869.147	20556
869.278	20621
869.408	20545
869.539	20522
869.669	20476
869.799	20602
869.929	20724
870.06	20609
870.19	20868
870.32	20777
870.45	20895
870.58	20971
870.71	20910
870.84	21032
870.97	20857
871.1	20849
871.23	21081
871.36	21192
871.489	20982
871.619	20971
871.749	21161
871.879	21100
872.008	21146
872.138	20925
872.267	21199
872.397	20971
872.526	21055
872.656	20910
872.785	20975
872.915	21214
873.044	21180
873.173	21157
873.303	21142
873.432	21150
873.561	21226
873.69	21245
873.819	21036
873.948	21192
874.077	21188
874.206	21104
874.335	21272
874.464	21161
874.593	21511
874.722	21450
874.851	21549
874.979	21378
875.108	21450
875.237	21340
875.365	21325
875.494	21435
875.623	21389
875.751	21306
875.88	21382
876.008	21462
876.136	21587
876.265	21713
876.393	22002
876.521	21888
876.65	21797
876.778	21736
876.906	21656
877.034	21736
877.162	21823
877.29	21686
877.418	21618
877.546	21846
877.674	21705
877.802	21728
877.93	21739
878.058	21614
878.185	21660
878.313	21739
878.441	21705
878.568	21500
878.696	21610
878.824	21724
878.951	21717
879.079	21915
879.206	21930
879.333	21873
879.461	21861
879.588	21819
879.715	21873
879.842	22029
879.97	21690
880.097	21625
880.224	21591
880.351	21633
880.478	21568
880.605	21462
880.732	21542
880.859	21755
880.986	21519
881.112	21557
881.239	21435
881.366	21378
881.493	21131
881.619	21192
881.746	21195
881.872	21123
881.999	21089
882.125	20975
882.252	21222
882.378	21222
882.505	21116
882.631	20960
882.757	20914
882.883	20838
883.01	20849
883.136	20785
883.262	20781
883.388	20705
883.514	20975
883.64	20838
883.766	20773
883.892	20530
884.018	20632
884.143	20853
884.269	20823
884.395	20556
884.52	20431
884.646	20507
884.772	20522
884.897	20457
885.023	20484
885.148	20568
885.274	20682
885.399	20629
885.524	20617
885.65	20423
885.775	20450
885.9	20541
886.025	20545
886.15	20507
886.275	20480
886.4	20305
886.525	20400
886.65	20374
886.775	20415
886.9	20507
887.025	20712
887.149	20476
887.274	20408
887.399	20301
887.523	20218
887.648	20275
887.773	20073
887.897	20317
888.021	20267
888.146	20244
888.27	20393
888.395	20499
888.519	20282
888.643	20381
888.767	20355
888.891	20191
889.015	20191
889.139	20168
889.263	20016
889.387	20100
889.511	20271
889.635	20176
889.759	19982
889.883	19928
890.006	20130
890.13	20031
890.254	19955
890.377	19917
890.501	19750
890.624	19799
890.748	19845
890.871	19765
890.995	19586
891.118	19567
891.241	19662
891.364	19609
891.488	19655
891.611	19635
891.734	19655
891.857	19776
891.98	19677
892.103	19655
892.226	19556
892.349	19529
892.471	19502
892.594	19643
892.717	19605
892.839	19533
892.962	19525
893.085	19609
893.207	19480
893.33	19407
893.452	19491
893.575	19689
893.697	19548
893.819	19742
893.941	19784
894.064	19620
894.186	19400
894.308	19495
894.43	19761
894.552	19632
894.674	19559
894.796	19377
894.918	19529
895.04	19441
895.161	19620
895.283	19693
895.405	19647
895.526	19571
895.648	19510
895.769	19457
895.891	19609
896.012	19696
896.134	19548
896.255	19529
896.376	19567
896.498	19521
896.619	19544
896.74	19605
896.861	19677
896.982	19830
897.103	19963
897.224	19807
897.345	19818
897.466	19769
897.587	19753
897.708	19849
897.828	19814
897.949	19685
898.07	19662
898.19	19731
898.311	19959
898.431	19765
898.552	19757
898.672	19818
898.792	19997
898.913	19780
899.033	19674
899.153	19594
899.273	19575
899.393	19468
899.513	19601
899.633	19613
899.753	19563
899.873	19556
899.993	19651
900.113	19537
900.232	19483
900.352	19392
900.472	19453
900.591	19365
900.711	19335
900.83	19255
900.95	19430
901.069	19335
901.189	19103
901.308	18981
901.427	18943
901.546	18958
901.665	18798
901.784	19000
901.904	18707
902.023	18677
902.141	18517
902.26	18365
902.379	18563
902.498	18403
902.617	18471
902.735	18429
902.854	18494
902.973	18403
903.091	18068
903.21	18129
903.328	18121
903.446	18053
903.565	17927
903.683	18003
903.801	17771
903.919	17863
904.038	17885
904.156	17615
904.274	17817
904.392	17600
904.51	17646
904.627	17741
904.745	17771
904.863	17817
904.981	17600
905.098	17383
905.216	17356
905.334	17463
905.451	17372
905.569	17387
905.686	17368
905.803	17410
905.921	17155
906.038	17258
906.155	17269
906.272	17128
906.389	17265
906.506	17003
906.623	16965
906.74	17003
906.857	16771
906.974	16782
907.091	17010
907.208	17113
907.324	17006
907.441	16862
907.557	16713
907.674	16774
907.79	16733
907.907	16641
908.023	16694
908.139	16645
908.256	16664
908.372	16679
908.488	16558
908.604	16409
908.72	16390
908.836	16554
908.952	16356
909.068	16325
909.184	16512
909.3	16447
909.415	16455
909.531	16440
909.647	16135
909.762	16211
909.878	16067
909.993	16143
910.108	16131
910.224	16055
910.339	16078
910.454	15972
910.57	15934
910.685	15922
910.8	16063
910.915	16143
911.03	16010
911.145	15720
911.259	15705
911.374	15751
911.489	15713
911.604	15572
911.718	15500
911.833	15572
911.947	15310
912.062	15287
912.176	15424
912.291	15469
912.405	15462
912.519	15660
912.633	15625
912.748	15447
912.862	15477
912.976	15195
913.09	15233
913.204	15169
913.318	15370
913.431	15389
913.545	15310
913.659	15355
913.772	15207
913.886	15138
914	15127
914.113	15131
914.226	15283
914.34	15195
914.453	14941
914.566	15043
914.68	15066
914.793	14948
914.906	14834
915.019	14758
915.132	14754
915.245	14735
915.358	14701
915.47	14777
915.583	14701
915.696	14750
915.809	14781
915.921	14838
916.034	14632
916.146	14579
916.259	14575
916.371	14697
916.483	14651
916.595	14579
916.708	14575
916.82	14522
916.932	14480
917.044	14480
917.156	14385
917.268	14377
917.38	14438
917.491	14450
917.603	14332
917.715	14446
917.826	14434
917.938	14396
918.049	14252
918.161	14267
918.272	14454
918.384	14377
918.495	14362
918.606	14187
918.717	14164
918.828	14168
918.939	14271
919.05	14016
919.161	14180
919.272	13944
919.383	14046
919.494	14267
919.604	14339
919.715	14077
919.826	14092
919.936	14115
920.047	14229
920.157	14111
920.267	14195
920.378	14145
920.488	14073
920.598	14298
920.708	14469
920.818	14278
920.928	14244
921.038	14442
921.148	14396
921.258	14107
921.368	14035
921.477	13925
921.587	13871
921.697	13738
921.806	13879
921.916	13746
922.025	13514
922.134	13540
922.244	13506
922.353	13559
922.462	13384
922.571	13297
922.68	13198
922.789	13145
922.898	13103
923.007	13061
923.116	13232
923.224	13213
923.333	13046
923.442	13015
923.55	13091
923.659	12985
923.767	13065
923.876	12913
923.984	13050
924.092	12897
924.201	12920
924.309	12935
924.417	12913
924.525	12882
924.633	12734
924.741	13784
924.849	12627
924.956	12741
925.064	12578
925.172	12563
925.279	12616
925.387	12646
925.494	12662
925.602	12707
925.709	12662
925.816	12540
925.924	12566
926.031	12654
926.138	12635
926.245	12585
926.352	12460
926.459	12525
926.566	12616
926.673	12437
926.779	12395
926.886	12376
926.993	12292
927.099	12266
927.206	12171
927.312	12087
927.419	12159
927.525	12140
927.631	12254
927.737	12064
927.843	12049
927.95	11882
928.056	12045
928.162	12060
928.267	12072
928.373	12745
928.479	12133
928.585	11847
928.69	11980
928.796	11961
928.901	11908
929.007	11707
929.112	11847
929.218	11779
929.323	11771
929.428	11756
929.533	11939
929.638	11729
929.743	11653
929.848	11657
929.953	11653
930.058	11619
930.163	11433
930.267	11505
930.372	11627
930.477	11421
930.581	11600
930.685	11493
930.79	11353
930.894	11402
930.998	11372
931.103	11436
931.207	11090
931.311	11014
931.415	10965
931.519	10714
931.623	10679
