Data from test_V78500241_731.txt Node
Date: Fri Mar 25 15:14:56 CST 2022
User: usil
Spectrometer: V785-0024
Trigger mode: 0
Integration Time (sec): 4.000000E-1
Scans to average: 1
Nonlinearity correction enabled: false
Boxcar width: 0
Storing dark spectrum: false
XAxis mode: Wavelengths
Number of Pixels in Spectrum: 1024
>>>>>Begin Spectral Data<<<<<
801.071	27724
801.214	27743
801.356	27599
801.499	27450
801.641	27374
801.783	27477
801.926	27412
802.068	27294
802.211	27192
802.353	27192
802.496	27058
802.638	26998
802.78	26986
802.923	26982
803.065	27142
803.208	26963
803.35	27108
803.492	26971
803.635	27230
803.777	26952
803.919	27233
804.061	27435
804.204	27226
804.346	27211
804.488	27116
804.63	27146
804.773	27104
804.915	27207
805.057	27378
805.199	27180
805.341	27363
805.483	27279
805.626	27249
805.768	27180
805.91	27408
806.052	27260
806.194	27256
806.336	27382
806.478	27344
806.62	27439
806.762	27507
806.904	27614
807.046	27800
807.188	27625
807.33	27724
807.472	27724
807.614	27755
807.756	27637
807.898	27561
808.04	27500
808.182	27603
808.324	27568
808.465	27679
808.607	27770
808.749	27937
808.891	28006
809.033	28120
809.174	28124
809.316	27979
809.458	28067
809.6	28162
809.741	28143
809.883	28181
810.025	28356
810.166	28192
810.308	28341
810.45	28276
810.591	28246
810.733	27903
810.875	28025
811.016	27934
811.158	27922
811.299	28002
811.441	28158
811.582	28249
811.724	27835
811.865	27876
812.007	27914
812.148	27968
812.29	27812
812.431	28067
812.573	28329
812.714	28310
812.855	28622
812.997	28656
813.138	28694
813.279	28588
813.421	28599
813.562	28519
813.703	28341
813.845	28169
813.986	27960
814.127	27880
814.268	27671
814.41	27682
814.551	27690
814.692	27682
814.833	27667
814.974	27618
815.115	27713
815.256	27561
815.397	27561
815.539	27606
815.68	27507
815.821	27427
815.962	27492
816.103	27382
816.244	27302
816.385	27363
816.526	27298
816.666	27032
816.807	26929
816.948	27096
817.089	27085
817.23	26933
817.371	26921
817.512	26895
817.653	26914
817.793	26804
817.934	27146
818.075	26853
818.216	26849
818.356	26921
818.497	26769
818.638	26800
818.778	26648
818.919	26727
819.06	26754
819.2	26979
819.341	26971
819.481	26895
819.622	27013
819.762	27226
819.903	27306
820.043	27169
820.184	26929
820.324	27131
820.465	27062
820.605	27157
820.746	26982
820.886	26956
821.026	27116
821.167	27047
821.307	27135
821.447	26914
821.588	26868
821.728	26796
821.868	26587
822.008	26366
822.149	26389
822.289	26427
822.429	25982
822.569	26001
822.709	26027
822.849	25940
822.99	26012
823.13	25925
823.27	25902
823.41	25765
823.55	25601
823.69	25788
823.83	25864
823.97	25757
824.11	25616
824.25	25472
824.389	25616
824.529	25765
824.669	25495
824.809	25776
824.949	25685
825.089	25662
825.228	25696
825.368	25578
825.508	25499
825.648	25521
825.787	25506
825.927	25476
826.067	25377
826.206	25460
826.346	25468
826.485	25403
826.625	25510
826.765	25597
826.904	25525
827.044	25289
827.183	25213
827.323	25171
827.462	25274
827.601	25129
827.741	25126
827.88	25141
828.02	25095
828.159	25289
828.298	25110
828.437	25148
828.577	25179
828.716	25148
828.855	25122
828.994	24791
829.134	24913
829.273	24985
829.412	24760
829.551	24715
829.69	24833
829.829	24814
829.968	24833
830.107	24913
830.246	24840
830.385	24661
830.524	24700
830.663	24722
830.802	24582
830.941	24403
831.08	24350
831.219	24540
831.357	24563
831.496	24684
831.635	24551
831.774	24418
831.913	24384
832.051	24399
832.19	24182
832.329	24277
832.467	24064
832.606	23927
832.744	24114
832.883	24076
833.022	24171
833.16	24171
833.299	24235
833.437	24144
833.576	24216
833.714	24239
833.852	24235
833.991	24155
834.129	24323
834.267	24178
834.406	24167
834.544	24167
834.682	24194
834.821	24251
834.959	24445
835.097	24057
835.235	24213
835.373	24190
835.511	24159
835.65	24030
835.788	24087
835.926	23817
836.064	23851
836.202	23851
836.34	24091
836.478	23996
836.615	24114
836.753	24072
836.891	24194
837.029	24015
837.167	23977
837.305	23912
837.443	23901
837.58	23897
837.718	24034
837.856	23813
837.993	23722
838.131	23920
838.269	23680
838.406	23737
838.544	23676
838.681	23497
838.819	23505
838.956	23277
839.094	23178
839.231	23326
839.369	23383
839.506	23684
839.643	23604
839.781	23322
839.918	23353
840.055	23372
840.193	23235
840.33	23204
840.467	23231
840.604	23280
840.742	23512
840.879	23151
841.016	23159
841.153	23113
841.29	23265
841.427	23246
841.564	23235
841.701	23337
841.838	23124
841.975	23216
842.112	23151
842.249	23067
842.385	22900
842.522	23265
842.659	22953
842.796	22896
842.933	22915
843.069	23014
843.206	22904
843.343	23094
843.479	23006
843.616	23079
843.752	22771
843.889	22797
844.025	22946
844.162	22877
844.298	22850
844.435	22767
844.571	22862
844.708	22843
844.844	22793
844.98	22896
845.117	22984
845.253	22820
845.389	22611
845.525	22687
845.661	22653
845.798	22519
845.934	22588
846.07	22497
846.206	22451
846.342	22637
846.478	22466
846.614	22341
846.75	22135
846.886	22173
847.022	22344
847.158	22310
847.294	22261
847.429	22333
847.565	22188
847.701	22527
847.837	22021
847.972	21865
848.108	22055
848.244	22067
848.379	21869
848.515	21766
848.65	21880
848.786	21880
848.921	21918
849.057	22021
849.192	22006
849.328	21804
849.463	21781
849.598	21743
849.734	21652
849.869	21759
850.004	21591
850.14	21587
850.275	21583
850.41	21420
850.545	21469
850.68	21530
850.815	21614
850.95	21656
851.085	21724
851.22	21686
851.355	21648
851.49	21652
851.625	21564
851.76	21591
851.895	21488
852.03	21424
852.165	21564
852.299	21667
852.434	21614
852.569	21698
852.703	21679
852.838	21663
852.973	21846
853.107	21800
853.242	21542
853.376	21545
853.511	21355
853.645	21420
853.78	21549
853.914	21317
854.048	21500
854.183	21386
854.317	21496
854.451	21637
854.585	21424
854.72	21340
854.854	21462
854.988	21382
855.122	21386
855.256	21310
855.39	21424
855.524	21492
855.658	21431
855.792	21435
855.926	21367
856.06	21416
856.194	21549
856.327	21348
856.461	21450
856.595	21313
856.729	21469
856.862	21450
856.996	21450
857.13	21454
857.263	21549
857.397	21485
857.53	21447
857.664	21477
857.797	21545
857.931	21526
858.064	21564
858.197	21481
858.331	21355
858.464	21310
858.597	21188
858.731	21408
858.864	21359
858.997	21344
859.13	21382
859.263	21431
859.396	21447
859.529	21443
859.662	21397
859.795	21329
859.928	21424
860.061	21564
860.194	21633
860.327	21405
860.46	21431
860.592	21469
860.725	21515
860.858	21500
860.99	21435
861.123	21230
861.256	21378
861.388	21401
861.521	22204
861.653	21207
861.786	21077
861.918	21275
862.05	21287
862.183	21348
862.315	21298
862.447	21317
862.58	21233
862.712	21077
862.844	21108
862.976	21157
863.108	21260
863.24	21500
863.372	21081
863.504	21096
863.636	21176
863.768	21161
863.9	21093
864.032	21138
864.164	21077
864.296	21074
864.428	21298
864.559	21268
864.691	21142
864.823	21135
864.954	21192
865.086	21142
865.217	21017
865.349	20990
865.48	21005
865.612	21009
865.743	21165
865.875	21077
866.006	20921
866.137	20963
866.269	20998
866.4	21051
866.531	20956
866.662	20902
866.793	20891
866.924	20918
867.055	21036
867.186	20876
867.317	20921
867.448	20895
867.579	20895
867.71	20880
867.841	20826
867.972	20941
868.103	20952
868.233	20876
868.364	20872
868.495	21055
868.625	21264
868.756	21336
868.886	21081
869.017	21081
869.147	21279
869.278	21359
869.408	21161
869.539	21157
869.669	21287
869.799	21157
869.929	21348
870.06	21207
870.19	21382
870.32	21477
870.45	21492
870.58	21576
870.71	21762
870.84	21766
870.97	21599
871.1	21591
871.23	21682
871.36	21747
871.489	21660
871.619	21781
871.749	21732
871.879	21789
872.008	21736
872.138	21812
872.267	21781
872.397	21629
872.526	21675
872.656	21633
872.785	21576
872.915	21736
873.044	21869
873.173	21800
873.303	21816
873.432	21823
873.561	21884
873.69	21675
873.819	21804
873.948	21846
874.077	21800
874.206	21739
874.335	21747
874.464	21880
874.593	22010
874.722	21934
874.851	22040
874.979	21998
875.108	21937
875.237	21987
875.365	21926
875.494	21964
875.623	22070
875.751	22040
875.88	21991
876.008	22131
876.136	22215
876.265	22344
876.393	22516
876.521	22527
876.65	22497
876.778	22360
876.906	22405
877.034	22459
877.162	22333
877.29	22405
877.418	22398
877.546	22310
877.674	22382
877.802	22329
877.93	22249
878.058	22295
878.185	22310
878.313	22215
878.441	22337
878.568	22101
878.696	22226
878.824	22367
878.951	22375
879.079	22500
879.206	22573
879.333	22409
879.461	22398
879.588	22634
879.715	22516
879.842	22698
879.97	22318
880.097	22124
880.224	22169
880.351	22242
880.478	22284
880.605	22112
880.732	22158
880.859	22382
880.986	22188
881.112	22276
881.239	22059
881.366	21922
881.493	21759
881.619	21690
881.746	21720
881.872	21797
881.999	21827
882.125	21656
882.252	21766
882.378	21686
882.505	21831
882.631	21580
882.757	21507
882.883	21523
883.01	21519
883.136	21496
883.262	21370
883.388	21192
883.514	21492
883.64	21576
883.766	21363
883.892	21382
884.018	21298
884.143	21412
884.269	21473
884.395	21249
884.52	21138
884.646	21226
884.772	21070
884.897	21074
885.023	21146
885.148	21245
885.274	21241
885.399	21272
885.524	21112
885.65	21070
885.775	21249
885.9	21093
886.025	21252
886.15	21199
886.275	21055
886.4	21001
886.525	21180
886.65	21085
886.775	21024
886.9	21211
887.025	21264
887.149	21089
887.274	20937
887.399	21024
887.523	20941
887.648	20899
887.773	20823
887.897	20929
888.021	20857
888.146	20804
888.27	21001
888.395	20941
888.519	20982
888.643	20918
888.767	20933
888.891	20804
889.015	20845
889.139	20788
889.263	20724
889.387	20845
889.511	20971
889.635	20743
889.759	20670
889.883	20731
890.006	20678
890.13	20838
890.254	20606
890.377	20667
890.501	20396
890.624	20404
890.748	20404
890.871	20324
890.995	20301
891.118	20237
891.241	20343
891.364	20370
891.488	20499
891.611	20301
891.734	20351
891.857	20351
891.98	20240
892.103	20355
892.226	20271
892.349	20267
892.471	20122
892.594	20225
892.717	20149
892.839	20229
892.962	20077
893.085	20351
893.207	20142
893.33	20024
893.452	20126
893.575	20244
893.697	20103
893.819	20244
893.941	20381
894.064	20256
894.186	20073
894.308	20134
894.43	20233
894.552	20256
894.674	20282
894.796	20046
894.918	20225
895.04	20138
895.161	20199
895.283	20199
895.405	20088
895.526	20229
895.648	20161
895.769	20294
895.891	20290
896.012	20324
896.134	20168
896.255	20191
896.376	20153
896.498	20145
896.619	20142
896.74	20176
896.861	20168
896.982	20514
897.103	20648
897.224	20336
897.345	20355
897.466	20377
897.587	20366
897.708	20476
897.828	20309
897.949	20328
898.07	20240
898.19	20301
898.311	20488
898.431	20336
898.552	20518
898.672	20495
898.792	20438
898.913	20377
899.033	20370
899.153	20172
899.273	20103
899.393	20088
899.513	20142
899.633	20157
899.753	20081
899.873	20062
899.993	20172
900.113	20062
900.232	20092
900.352	19986
900.472	20069
900.591	19917
900.711	19997
900.83	19879
900.95	19963
901.069	19906
901.189	19856
901.308	19670
901.427	19540
901.546	19495
901.665	19388
901.784	19529
901.904	19464
902.023	19251
902.141	19133
902.26	19031
902.379	19099
902.498	19118
902.617	18897
902.735	19095
902.854	18905
902.973	18882
903.091	18681
903.21	18650
903.328	18700
903.446	18502
903.565	18391
903.683	18544
903.801	18437
903.919	18464
904.038	18452
904.156	18296
904.274	18319
904.392	18197
904.51	18254
904.627	18197
904.745	18350
904.863	18220
904.981	18171
905.098	17984
905.216	17973
905.334	17992
905.451	17916
905.569	17889
905.686	17863
905.803	17882
905.921	17638
906.038	17714
906.155	17684
906.272	17630
906.389	17695
906.506	17528
906.623	17532
906.74	17440
906.857	17433
906.974	17459
907.091	17486
907.208	17600
907.324	17364
907.441	17178
907.557	17193
907.674	17143
907.79	17109
907.907	17067
908.023	17265
908.139	17227
908.256	17140
908.372	17025
908.488	17090
908.604	16946
908.72	16862
908.836	16987
908.952	16900
909.068	16942
909.184	16946
909.3	16930
909.415	17022
909.531	16706
909.647	16573
909.762	16637
909.878	16634
909.993	16596
910.108	16618
910.224	16558
910.339	16493
910.454	16421
910.57	16318
910.685	16284
910.8	16497
910.915	16523
911.03	16424
911.145	16226
911.259	16257
911.374	16211
911.489	16207
911.604	16051
911.718	15922
911.833	15873
911.947	15854
912.062	15812
912.176	15975
912.291	15819
912.405	15949
912.519	16082
912.633	16048
912.748	15949
912.862	15983
912.976	15842
913.09	15652
913.204	15633
913.318	15717
913.431	15857
913.545	15873
913.659	15827
913.772	15686
913.886	15534
914	15481
914.113	15545
914.226	15728
914.34	15603
914.453	15462
914.566	15610
914.68	15428
914.793	15378
914.906	15207
915.019	15188
915.132	15066
915.245	15188
915.358	15214
915.47	15211
915.583	15100
915.696	15176
915.809	15306
915.921	15401
916.034	15085
916.146	15112
916.259	15032
916.371	15135
916.483	15195
916.595	14948
916.708	15028
916.82	15017
916.932	14952
917.044	15001
917.156	14929
917.268	14849
917.38	14861
917.491	14864
917.603	14842
917.715	14910
917.826	14963
917.938	14796
918.049	14678
918.161	14731
918.272	14902
918.384	14830
918.495	14720
918.606	14632
918.717	14514
918.828	14602
918.939	14590
919.05	14499
919.161	14625
919.272	14282
919.383	14396
919.494	14655
919.604	14849
919.715	14575
919.826	14381
919.936	14415
920.047	14545
920.157	14514
920.267	14625
920.378	14526
920.488	14499
920.598	14659
920.708	14982
920.818	14644
920.928	14655
921.038	14887
921.148	14762
921.258	14526
921.368	14313
921.477	14278
921.587	14362
921.697	14100
921.806	14218
921.916	14126
922.025	13849
922.134	13784
922.244	13841
922.353	13940
922.462	13761
922.571	13715
922.68	13639
922.789	13529
922.898	13594
923.007	13540
923.116	13571
923.224	13556
923.333	13525
923.442	13457
923.55	13346
923.659	13453
923.767	13487
923.876	13358
923.984	13354
924.092	13236
924.201	13350
924.309	13293
924.417	13282
924.525	13198
924.633	13236
924.741	13940
924.849	13084
924.956	13164
925.064	13057
925.172	12901
925.279	12909
925.387	12996
925.494	13019
925.602	13122
925.709	13015
925.816	12863
925.924	12894
926.031	12996
926.138	12924
926.245	12916
926.352	12825
926.459	12993
926.566	13008
926.673	12829
926.779	12852
926.886	12688
926.993	12525
927.099	12559
927.206	12601
927.312	12528
927.419	12540
927.525	12513
927.631	12483
927.737	12414
927.843	12361
927.95	12281
928.056	12315
928.162	12376
928.267	12403
928.373	13023
928.479	12426
928.585	12209
928.69	12384
928.796	12315
928.901	12247
929.007	12106
929.112	12232
929.218	12190
929.323	12110
929.428	12079
929.533	12121
929.638	12083
929.743	12045
929.848	12053
929.953	12038
930.058	11912
930.163	11714
930.267	11794
930.372	11821
930.477	11745
930.581	11950
930.685	11901
930.79	11676
930.894	11733
930.998	11672
931.103	11752
931.207	11387
931.311	11353
931.415	11318
931.519	11071
931.623	11022
