Data from test_V78500241_3046.txt Node
Date: Fri Mar 25 15:31:04 CST 2022
User: usil
Spectrometer: V785-0024
Trigger mode: 0
Integration Time (sec): 4.000000E-1
Scans to average: 1
Nonlinearity correction enabled: false
Boxcar width: 0
Storing dark spectrum: false
XAxis mode: Wavelengths
Number of Pixels in Spectrum: 1024
>>>>>Begin Spectral Data<<<<<
801.071	27306
801.214	27237
801.356	26944
801.499	26918
801.641	26800
801.783	26838
801.926	26956
802.068	26773
802.211	26705
802.353	26720
802.496	26560
802.638	26518
802.78	26427
802.923	26339
803.065	26229
803.208	26366
803.35	26294
803.492	26377
803.635	26507
803.777	26457
803.919	26602
804.061	26826
804.204	26625
804.346	26514
804.488	26457
804.63	26632
804.773	26461
804.915	26575
805.057	26762
805.199	26606
805.341	26571
805.483	26571
805.626	26693
805.768	26522
805.91	26575
806.052	26575
806.194	26549
806.336	26796
806.478	26644
806.62	26644
806.762	26792
806.904	26861
807.046	27195
807.188	26952
807.33	27211
807.472	27230
807.614	26918
807.756	27154
807.898	26883
808.04	26963
808.182	26952
808.324	26952
808.465	26895
808.607	27165
808.749	27268
808.891	27420
809.033	27393
809.174	27348
809.316	27355
809.458	27260
809.6	27180
809.741	27416
809.883	27355
810.025	27481
810.166	27545
810.308	27603
810.45	27644
810.591	27420
810.733	27245
810.875	27226
811.016	27131
811.158	27131
811.299	27321
811.441	27443
811.582	27412
811.724	27332
811.865	27325
812.007	27142
812.148	27165
812.29	27268
812.431	27454
812.573	27644
812.714	27606
812.855	27622
812.997	27835
813.138	27941
813.279	27842
813.421	27861
813.562	27694
813.703	27618
813.845	27329
813.986	27165
814.127	26990
814.268	27001
814.41	26948
814.551	26906
814.692	26967
814.833	26773
814.974	26918
815.115	26914
815.256	26785
815.397	26796
815.539	26724
815.68	26613
815.821	26621
815.962	26689
816.103	26697
816.244	26549
816.385	26305
816.526	26298
816.666	26210
816.807	26142
816.948	26180
817.089	26309
817.23	26092
817.371	26183
817.512	26202
817.653	26172
817.793	26161
817.934	26225
818.075	26164
818.216	26214
818.356	26138
818.497	26054
818.638	25871
818.778	25871
818.919	25738
819.06	25993
819.2	26214
819.341	26191
819.481	26107
819.622	26309
819.762	26473
819.903	26434
820.043	26412
820.184	26259
820.324	26267
820.465	26313
820.605	26259
820.746	26328
820.886	26191
821.026	26278
821.167	26176
821.307	26339
821.447	26210
821.588	26111
821.728	26035
821.868	25635
822.008	25632
822.149	25719
822.289	25738
822.429	25479
822.569	25354
822.709	25411
822.849	25236
822.99	25118
823.13	25027
823.27	25088
823.41	25015
823.55	24962
823.69	24992
823.83	25000
823.97	24909
824.11	24669
824.25	24707
824.389	24734
824.529	24779
824.669	24734
824.809	24814
824.949	24798
825.089	24875
825.228	24753
825.368	24620
825.508	24566
825.648	24673
825.787	24745
825.927	24722
826.067	24521
826.206	24802
826.346	24722
826.485	24779
826.625	24639
826.765	24734
826.904	24722
827.044	24407
827.183	24426
827.323	24334
827.462	24395
827.601	24395
827.741	24376
827.88	24391
828.02	24300
828.159	24334
828.298	24437
828.437	24376
828.577	24224
828.716	24361
828.855	24209
828.994	24144
829.134	24038
829.273	24064
829.412	23977
829.551	24026
829.69	23927
829.829	24167
829.968	24163
830.107	24091
830.246	24053
830.385	24072
830.524	23897
830.663	24011
830.802	23764
830.941	23737
831.08	23703
831.219	23642
831.357	23813
831.496	23802
831.635	23653
831.774	23695
831.913	23387
832.051	23440
832.19	23486
832.329	23425
832.467	23379
832.606	23311
832.744	23296
832.883	23288
833.022	23360
833.16	23265
833.299	23368
833.437	23398
833.576	23501
833.714	23417
833.852	23368
833.991	23387
834.129	23429
834.267	23337
834.406	23459
834.544	23364
834.682	23383
834.821	23372
834.959	23596
835.097	23425
835.235	23444
835.373	23383
835.511	23330
835.65	23178
835.788	23307
835.926	23223
836.064	23003
836.202	23083
836.34	23334
836.478	23296
836.615	23166
836.753	23200
836.891	23345
837.029	23204
837.167	23178
837.305	23140
837.443	23136
837.58	23003
837.718	23223
837.856	23132
837.993	22991
838.131	23014
838.269	22866
838.406	22984
838.544	22911
838.681	22672
838.819	22634
838.956	22592
839.094	22615
839.231	22660
839.369	22607
839.506	22930
839.643	22812
839.781	22561
839.918	22466
840.055	22557
840.193	22474
840.33	22478
840.467	22535
840.604	22618
840.742	22790
840.879	22322
841.016	22436
841.153	22299
841.29	22596
841.427	22470
841.564	22523
841.701	22535
841.838	22348
841.975	22306
842.112	22325
842.249	22287
842.385	22295
842.522	22527
842.659	22367
842.796	22234
842.933	22234
843.069	22211
843.206	22116
843.343	22352
843.479	22306
843.616	22303
843.752	22074
843.889	21964
844.025	22021
844.162	21888
844.298	22055
844.435	21968
844.571	21991
844.708	21994
844.844	22105
844.98	22188
845.117	22230
845.253	21949
845.389	21759
845.525	21865
845.661	21846
845.798	21694
845.934	21899
846.07	21743
846.206	21652
846.342	21846
846.478	21732
846.614	21504
846.75	21488
846.886	21561
847.022	21526
847.158	21561
847.294	21469
847.429	21591
847.565	21454
847.701	21759
847.837	21325
847.972	21150
848.108	21405
848.244	21294
848.379	21135
848.515	21066
848.65	21093
848.786	21074
848.921	20963
849.057	21283
849.192	21199
849.328	21081
849.463	21070
849.598	20967
849.734	20876
849.869	20861
850.004	20758
850.14	20872
850.275	20864
850.41	20804
850.545	20842
850.68	20891
850.815	20777
850.95	20849
851.085	20979
851.22	20895
851.355	20838
851.49	20762
851.625	20796
851.76	20861
851.895	20819
852.03	20902
852.165	20781
852.299	20773
852.434	20811
852.569	20948
852.703	20861
852.838	20777
852.973	20994
853.107	20842
853.242	20769
853.376	20598
853.511	20549
853.645	20602
853.78	20667
853.914	20701
854.048	20629
854.183	20579
854.317	20594
854.451	20876
854.585	20575
854.72	20655
854.854	20750
854.988	20617
855.122	20708
855.256	20564
855.39	20640
855.524	20682
855.658	20598
855.792	20625
855.926	20693
856.06	20667
856.194	20720
856.327	20644
856.461	20689
856.595	20602
856.729	20678
856.862	20762
856.996	20777
857.13	20712
857.263	20845
857.397	20731
857.53	20720
857.664	20670
857.797	20788
857.931	20804
858.064	20735
858.197	20731
858.331	20583
858.464	20587
858.597	20568
858.731	20693
858.864	20617
858.997	20609
859.13	20682
859.263	20682
859.396	20724
859.529	20739
859.662	20579
859.795	20545
859.928	20606
860.061	20834
860.194	20902
860.327	20785
860.46	20686
860.592	20697
860.725	20792
860.858	20727
860.99	20682
861.123	20499
861.256	20686
861.388	20644
861.521	21249
861.653	20629
861.786	20347
861.918	20457
862.05	20560
862.183	20568
862.315	20556
862.447	20609
862.58	20514
862.712	20412
862.844	20419
862.976	20393
863.108	20549
863.24	20838
863.372	20275
863.504	20347
863.636	20320
863.768	20473
863.9	20393
864.032	20328
864.164	20271
864.296	20393
864.428	20366
864.559	20377
864.691	20412
864.823	20256
864.954	20263
865.086	20431
865.217	20351
865.349	20244
865.48	20305
865.612	20301
865.743	20522
865.875	20488
866.006	20183
866.137	20244
866.269	20263
866.4	20221
866.531	20187
866.662	20275
866.793	20100
866.924	20218
867.055	20278
867.186	20259
867.317	20233
867.448	20176
867.579	20267
867.71	20130
867.841	20115
867.972	20221
868.103	20145
868.233	20240
868.364	20145
868.495	20305
868.625	20465
868.756	20499
868.886	20408
869.017	20362
869.147	20602
869.278	20552
869.408	20454
869.539	20454
869.669	20488
869.799	20461
869.929	20530
870.06	20686
870.19	20853
870.32	20678
870.45	20781
870.58	20750
870.71	20963
870.84	20941
870.97	20861
871.1	20967
871.23	21085
871.36	20986
871.489	20937
871.619	20986
871.749	21085
871.879	21161
872.008	21150
872.138	21207
872.267	20967
872.397	21020
872.526	20826
872.656	20902
872.785	20849
872.915	21135
873.044	21123
873.173	21123
873.303	21138
873.432	21173
873.561	21119
873.69	21123
873.819	21009
873.948	21169
874.077	21119
874.206	21081
874.335	21127
874.464	21188
874.593	21321
874.722	21313
874.851	21329
874.979	21313
875.108	21313
875.237	21138
875.365	21294
875.494	21462
875.623	21332
875.751	21439
875.88	21443
876.008	21420
876.136	21591
876.265	21781
876.393	21857
876.521	21705
876.65	21854
876.778	21785
876.906	21701
877.034	21610
877.162	21595
877.29	21591
877.418	21728
877.546	21705
877.674	21797
877.802	21713
877.93	21682
878.058	21610
878.185	21568
878.313	21595
878.441	21728
878.568	21439
878.696	21595
878.824	21762
878.951	21717
879.079	21804
879.206	21987
879.333	21736
879.461	21739
879.588	21724
879.715	21785
879.842	22006
879.97	21770
880.097	21420
880.224	21572
880.351	21622
880.478	21549
880.605	21511
880.732	21412
880.859	21781
880.986	21538
881.112	21485
881.239	21344
881.366	21268
881.493	21142
881.619	21062
881.746	21173
881.872	21089
881.999	20967
882.125	20963
882.252	21180
882.378	21017
882.505	21138
882.631	21043
882.757	20800
882.883	20838
883.01	20880
883.136	20792
883.262	20708
883.388	20629
883.514	20777
883.64	20834
883.766	20716
883.892	20473
884.018	20545
884.143	20823
884.269	20849
884.395	20454
884.52	20465
884.646	20454
884.772	20396
884.897	20385
885.023	20419
885.148	20587
885.274	20518
885.399	20499
885.524	20412
885.65	20514
885.775	20385
885.9	20461
886.025	20461
886.15	20465
886.275	20343
886.4	20358
886.525	20351
886.65	20294
886.775	20412
886.9	20499
887.025	20727
887.149	20393
887.274	20187
887.399	20031
887.523	20100
887.648	20206
887.773	20195
887.897	20263
888.021	20164
888.146	20256
888.27	20267
888.395	20332
888.519	20191
888.643	20145
888.767	20263
888.891	20142
889.015	20050
889.139	20122
889.263	20035
889.387	20183
889.511	20214
889.635	20043
889.759	20043
889.883	20054
890.006	20081
890.13	20092
890.254	19970
890.377	19909
890.501	19830
890.624	19734
890.748	19898
890.871	19723
890.995	19586
891.118	19559
891.241	19567
891.364	19578
891.488	19639
891.611	19480
891.734	19620
891.857	19632
891.98	19594
892.103	19639
892.226	19578
892.349	19613
892.471	19403
892.594	19571
892.717	19571
892.839	19415
892.962	19529
893.085	19582
893.207	19434
893.33	19320
893.452	19422
893.575	19563
893.697	19449
893.819	19620
893.941	19769
894.064	19647
894.186	19468
894.308	19457
894.43	19518
894.552	19575
894.674	19628
894.796	19480
894.918	19628
895.04	19544
895.161	19491
895.283	19521
895.405	19518
895.526	19514
895.648	19609
895.769	19487
895.891	19514
896.012	19521
896.134	19620
896.255	19518
896.376	19457
896.498	19556
896.619	19521
896.74	19590
896.861	19632
896.982	19883
897.103	19959
897.224	19814
897.345	19814
897.466	19670
897.587	19727
897.708	19875
897.828	19883
897.949	19674
898.07	19537
898.19	19685
898.311	19772
898.431	19833
898.552	19841
898.672	19811
898.792	19883
898.913	19753
899.033	19651
899.153	19510
899.273	19419
899.393	19521
899.513	19491
899.633	19419
899.753	19544
899.873	19499
899.993	19548
900.113	19457
900.232	19502
900.352	19502
900.472	19354
900.591	19282
900.711	19392
900.83	19244
900.95	19240
901.069	19320
901.189	19259
901.308	19046
901.427	18901
901.546	18916
901.665	18844
901.784	18951
901.904	18810
902.023	18650
902.141	18589
902.26	18422
902.379	18604
902.498	18426
902.617	18467
902.735	18441
902.854	18410
902.973	18323
903.091	18159
903.21	18076
903.328	18019
903.446	18007
903.565	17870
903.683	17885
903.801	17805
903.919	17889
904.038	17855
904.156	17619
904.274	17771
904.392	17623
904.51	17718
904.627	17570
904.745	17726
904.863	17695
904.981	17482
905.098	17280
905.216	17349
905.334	17417
905.451	17288
905.569	17376
905.686	17277
905.803	17334
905.921	17155
906.038	17299
906.155	17159
906.272	17029
906.389	17067
906.506	16847
906.623	16980
906.74	16934
906.857	16862
906.974	16847
907.091	16892
907.208	16991
907.324	16869
907.441	16733
907.557	16653
907.674	16645
907.79	16618
907.907	16653
908.023	16691
908.139	16577
908.256	16493
908.372	16466
908.488	16500
908.604	16303
908.72	16341
908.836	16234
908.952	16272
909.068	16341
909.184	16478
909.3	16265
909.415	16459
909.531	16341
909.647	16025
909.762	16010
909.878	15998
909.993	16040
910.108	15975
910.224	16013
910.339	16010
910.454	15880
910.57	15876
910.685	15846
910.8	16017
910.915	15972
911.03	15800
911.145	15675
911.259	15652
911.374	15625
911.489	15606
911.604	15572
911.718	15416
911.833	15485
911.947	15359
912.062	15211
912.176	15526
912.291	15492
912.405	15454
912.519	15587
912.633	15511
912.748	15325
912.862	15367
912.976	15237
913.09	15081
913.204	15104
913.318	15233
913.431	15218
913.545	15252
913.659	15329
913.772	15256
913.886	15032
914	15017
914.113	15112
914.226	15100
914.34	15070
914.453	14998
914.566	15051
914.68	14902
914.793	14933
914.906	14712
915.019	14511
915.132	14579
915.245	14697
915.358	14712
915.47	14602
915.583	14556
915.696	14556
915.809	14758
915.921	14842
916.034	14560
916.146	14492
916.259	14488
916.371	14594
916.483	14575
916.595	14374
916.708	14446
916.82	14492
916.932	14412
917.044	14473
917.156	14332
917.268	14332
917.38	14324
917.491	14252
917.603	14187
917.715	14366
917.826	14358
917.938	14180
918.049	14142
918.161	14240
918.272	14427
918.384	14362
918.495	14248
918.606	14153
918.717	14103
918.828	14088
918.939	14073
919.05	14005
919.161	14020
919.272	13868
919.383	13883
919.494	14115
919.604	14180
919.715	13997
919.826	14016
919.936	14058
920.047	14115
920.157	14058
920.267	14168
920.378	13997
920.488	14073
920.598	14180
920.708	14351
920.818	14107
920.928	14267
921.038	14278
921.148	14343
921.258	13963
921.368	13940
921.477	13772
921.587	13868
921.697	13647
921.806	13879
921.916	13658
922.025	13483
922.134	13449
922.244	13487
922.353	13571
922.462	13396
922.571	13221
922.68	13114
922.789	13145
922.898	13183
923.007	13042
923.116	13080
923.224	13141
923.333	13061
923.442	13046
923.55	12890
923.659	12886
923.767	12939
923.876	12840
923.984	12981
924.092	12768
924.201	12989
924.309	12882
924.417	12932
924.525	12844
924.633	12882
924.741	13677
924.849	12635
924.956	12738
925.064	12532
925.172	12555
925.279	12422
925.387	12528
925.494	12578
925.602	12627
925.709	12578
925.816	12399
925.924	12479
926.031	12585
926.138	12559
926.245	12555
926.352	12399
926.459	12601
926.566	12623
926.673	12353
926.779	12319
926.886	12251
926.993	12152
927.099	12102
927.206	12148
927.312	12083
927.419	12205
927.525	12106
927.631	12121
927.737	12049
927.843	11984
927.95	11897
928.056	11961
928.162	11996
928.267	11977
928.373	12692
928.479	12022
928.585	11817
928.69	11946
928.796	11984
928.901	11813
929.007	11695
929.112	11752
929.218	11840
929.323	11783
929.428	11733
929.533	11805
929.638	11608
929.743	11615
929.848	11657
929.953	11638
930.058	11501
930.163	11406
930.267	11318
930.372	11566
930.477	11326
930.581	11596
930.685	11425
930.79	11356
930.894	11273
930.998	11288
931.103	11356
931.207	11025
931.311	10934
931.415	10854
931.519	10634
931.623	10717
