Data from test_V78500241_3377.txt Node
Date: Fri Mar 25 15:33:22 CST 2022
User: usil
Spectrometer: V785-0024
Trigger mode: 0
Integration Time (sec): 4.000000E-1
Scans to average: 1
Nonlinearity correction enabled: false
Boxcar width: 0
Storing dark spectrum: false
XAxis mode: Wavelengths
Number of Pixels in Spectrum: 1024
>>>>>Begin Spectral Data<<<<<
801.071	27184
801.214	27146
801.356	27043
801.499	26944
801.641	26838
801.783	26769
801.926	26872
802.068	26823
802.211	26762
802.353	26701
802.496	26434
802.638	26629
802.78	26434
802.923	26275
803.065	26206
803.208	26290
803.35	26461
803.492	26606
803.635	26583
803.777	26495
803.919	26686
804.061	27104
804.204	26720
804.346	26533
804.488	26549
804.63	26568
804.773	26442
804.915	26602
805.057	26670
805.199	26617
805.341	26674
805.483	26697
805.626	26629
805.768	26598
805.91	26701
806.052	26678
806.194	26609
806.336	26731
806.478	26625
806.62	26750
806.762	26773
806.904	26861
807.046	27077
807.188	27207
807.33	27135
807.472	27089
807.614	27074
807.756	27051
807.898	26792
808.04	26754
808.182	26906
808.324	26975
808.465	27001
808.607	27089
808.749	27367
808.891	27291
809.033	27462
809.174	27325
809.316	27161
809.458	27131
809.6	27211
809.741	27325
809.883	27492
810.025	27427
810.166	27519
810.308	27644
810.45	27622
810.591	27477
810.733	27382
810.875	27272
811.016	27146
811.158	27226
811.299	27298
811.441	27291
811.582	27325
811.724	27298
811.865	27256
812.007	27146
812.148	27245
812.29	27370
812.431	27431
812.573	27523
812.714	27679
812.855	27732
812.997	27835
813.138	27895
813.279	27785
813.421	27857
813.562	27633
813.703	27595
813.845	27435
813.986	27112
814.127	26975
814.268	27020
814.41	27028
814.551	26952
814.692	26807
814.833	26826
814.974	26788
815.115	26891
815.256	26701
815.397	26765
815.539	26727
815.68	26651
815.821	26613
815.962	26686
816.103	26682
816.244	26526
816.385	26530
816.526	26377
816.666	26290
816.807	26088
816.948	26206
817.089	26366
817.23	26317
817.371	26107
817.512	26172
817.653	26130
817.793	26107
817.934	26092
818.075	26191
818.216	26077
818.356	26122
818.497	26065
818.638	25753
818.778	25906
818.919	25883
819.06	25966
819.2	25925
819.341	26210
819.481	26252
819.622	26275
819.762	26575
819.903	26457
820.043	26366
820.184	26237
820.324	26400
820.465	26434
820.605	26168
820.746	26195
820.886	26172
821.026	26183
821.167	26164
821.307	26206
821.447	26240
821.588	26008
821.728	26012
821.868	25761
822.008	25658
822.149	25685
822.289	25628
822.429	25327
822.569	25297
822.709	25247
822.849	25228
822.99	25129
823.13	25141
823.27	25088
823.41	24992
823.55	24859
823.69	24977
823.83	24924
823.97	24958
824.11	24791
824.25	24711
824.389	24772
824.529	24859
824.669	24779
824.809	24935
824.949	24859
825.089	24848
825.228	24863
825.368	24547
825.508	24525
825.648	24738
825.787	24658
825.927	24646
826.067	24719
826.206	24700
826.346	24726
826.485	24821
826.625	24646
826.765	24806
826.904	24593
827.044	24483
827.183	24429
827.323	24422
827.462	24429
827.601	24338
827.741	24353
827.88	24422
828.02	24239
828.159	24277
828.298	24403
828.437	24395
828.577	24289
828.716	24361
828.855	24296
828.994	24148
829.134	24022
829.273	24224
829.412	23954
829.551	23984
829.69	24057
829.829	24117
829.968	24182
830.107	24129
830.246	24079
830.385	23992
830.524	24011
830.663	23901
830.802	23790
830.941	23718
831.08	23741
831.219	23851
831.357	23729
831.496	23901
831.635	23687
831.774	23672
831.913	23467
832.051	23501
832.19	23547
832.329	23509
832.467	23490
832.606	23452
832.744	23269
832.883	23474
833.022	23379
833.16	23315
833.299	23429
833.437	23474
833.576	23531
833.714	23387
833.852	23642
833.991	23543
834.129	23455
834.267	23573
834.406	23463
834.544	23520
834.682	23471
834.821	23497
834.959	23600
835.097	23284
835.235	23429
835.373	23429
835.511	23452
835.65	23379
835.788	23246
835.926	23113
836.064	23159
836.202	23178
836.34	23356
836.478	23554
836.615	23220
836.753	23265
836.891	23322
837.029	23376
837.167	23261
837.305	23227
837.443	23124
837.58	23128
837.718	23098
837.856	23124
837.993	22919
838.131	23121
838.269	23048
838.406	23052
838.544	23140
838.681	22987
838.819	22752
838.956	22668
839.094	22649
839.231	22668
839.369	22801
839.506	22889
839.643	22866
839.781	22546
839.918	22698
840.055	22733
840.193	22550
840.33	22546
840.467	22508
840.604	22557
840.742	22820
840.879	22344
841.016	22478
841.153	22276
841.29	22634
841.427	22497
841.564	22599
841.701	22679
841.838	22561
841.975	22436
842.112	22322
842.249	22363
842.385	22348
842.522	22649
842.659	22333
842.796	22424
842.933	22341
843.069	22333
843.206	22261
843.343	22451
843.479	22223
843.616	22344
843.752	22211
843.889	22101
844.025	22116
844.162	22082
844.298	22200
844.435	22097
844.571	22074
844.708	22120
844.844	22322
844.98	22185
845.117	22177
845.253	22002
845.389	21994
845.525	22036
845.661	21869
845.798	21785
845.934	21831
846.07	21705
846.206	21899
846.342	21975
846.478	21892
846.614	21831
846.75	21542
846.886	21530
847.022	21679
847.158	21511
847.294	21492
847.429	21629
847.565	21603
847.701	21797
847.837	21264
847.972	21222
848.108	21344
848.244	21469
848.379	21180
848.515	21051
848.65	21089
848.786	21203
848.921	21157
849.057	21169
849.192	21222
849.328	21138
849.463	21127
849.598	21077
849.734	21135
849.869	21047
850.004	20963
850.14	20941
850.275	20929
850.41	20887
850.545	20823
850.68	20929
850.815	20895
850.95	20891
851.085	21157
851.22	21058
851.355	21051
851.49	20895
851.625	20838
851.76	20921
851.895	20811
852.03	20921
852.165	20933
852.299	20986
852.434	21066
852.569	21013
852.703	20887
852.838	20967
852.973	21043
853.107	20979
853.242	20845
853.376	20830
853.511	20541
853.645	20773
853.78	20838
853.914	20773
854.048	20720
854.183	20754
854.317	20762
854.451	21032
854.585	20823
854.72	20686
854.854	20815
854.988	20697
855.122	20743
855.256	20590
855.39	20762
855.524	20823
855.658	20853
855.792	20834
855.926	20686
856.06	20902
856.194	20765
856.327	20705
856.461	20750
856.595	20754
856.729	20590
856.862	20743
856.996	20739
857.13	20876
857.263	20842
857.397	20834
857.53	20750
857.664	20765
857.797	20811
857.931	20864
858.064	20674
858.197	20902
858.331	20727
858.464	20708
858.597	20556
858.731	20735
858.864	20651
858.997	20659
859.13	20861
859.263	20727
859.396	20785
859.529	20727
859.662	20708
859.795	20697
859.928	20823
860.061	20864
860.194	20861
860.327	20842
860.46	20765
860.592	20769
860.725	20960
860.858	20845
860.99	20735
861.123	20724
861.256	20678
861.388	20750
861.521	21481
861.653	20613
861.786	20469
861.918	20762
862.05	20587
862.183	20720
862.315	20667
862.447	20674
862.58	20564
862.712	20575
862.844	20358
862.976	20549
863.108	20644
863.24	20826
863.372	20385
863.504	20484
863.636	20469
863.768	20549
863.9	20518
864.032	20343
864.164	20488
864.296	20522
864.428	20583
864.559	20636
864.691	20533
864.823	20450
864.954	20404
865.086	20454
865.217	20450
865.349	20324
865.48	20343
865.612	20336
865.743	20488
865.875	20457
866.006	20294
866.137	20469
866.269	20419
866.4	20267
866.531	20309
866.662	20225
866.793	20256
866.924	20324
867.055	20263
867.186	20298
867.317	20210
867.448	20263
867.579	20126
867.71	20210
867.841	20256
867.972	20377
868.103	20336
868.233	20328
868.364	20282
868.495	20408
868.625	20514
868.756	20644
868.886	20568
869.017	20541
869.147	20758
869.278	20636
869.408	20701
869.539	20492
869.669	20651
869.799	20682
869.929	20705
870.06	20568
870.19	20868
870.32	20952
870.45	20861
870.58	20948
870.71	20998
870.84	21100
870.97	21039
871.1	20944
871.23	21142
871.36	21195
871.489	20944
871.619	21074
871.749	21066
871.879	21127
872.008	21165
872.138	21203
872.267	21180
872.397	21184
872.526	21055
872.656	21013
872.785	20956
872.915	21252
873.044	21321
873.173	21157
873.303	21279
873.432	21195
873.561	21283
873.69	21241
873.819	21184
873.948	21287
874.077	21184
874.206	21154
874.335	21230
874.464	21359
874.593	21447
874.722	21443
874.851	21428
874.979	21485
875.108	21481
875.237	21405
875.365	21283
875.494	21408
875.623	21572
875.751	21336
875.88	21428
876.008	21450
876.136	21610
876.265	21876
876.393	21960
876.521	21949
876.65	21892
876.778	21911
876.906	21774
877.034	21755
877.162	21800
877.29	21713
877.418	21873
877.546	21774
877.674	21739
877.802	21728
877.93	21808
878.058	21739
878.185	21663
878.313	21781
878.441	21739
878.568	21610
878.696	21770
878.824	21751
878.951	21884
879.079	21915
879.206	22093
879.333	21854
879.461	21785
879.588	21873
879.715	22067
879.842	22147
879.97	21846
880.097	21568
880.224	21663
880.351	21709
880.478	21633
880.605	21469
880.732	21515
880.859	21899
880.986	21637
881.112	21614
881.239	21511
881.366	21412
881.493	21203
881.619	21317
881.746	21131
881.872	21195
881.999	21169
882.125	21127
882.252	21146
882.378	21230
882.505	21218
882.631	21028
882.757	20906
882.883	20979
883.01	20918
883.136	20891
883.262	20838
883.388	20701
883.514	20975
883.64	20963
883.766	20708
883.892	20594
884.018	20629
884.143	20781
884.269	20876
884.395	20659
884.52	20503
884.646	20686
884.772	20552
884.897	20476
885.023	20457
885.148	20701
885.274	20575
885.399	20705
885.524	20651
885.65	20461
885.775	20579
885.9	20507
886.025	20549
886.15	20609
886.275	20598
886.4	20473
886.525	20476
886.65	20533
886.775	20522
886.9	20701
887.025	20750
887.149	20598
887.274	20396
887.399	20309
887.523	20358
887.648	20294
887.773	20275
887.897	20377
888.021	20667
888.146	20237
888.27	20385
888.395	20393
888.519	20313
888.643	20351
888.767	20294
888.891	20275
889.015	20092
889.139	20130
889.263	20126
889.387	20149
889.511	20309
889.635	20153
889.759	20119
889.883	20077
890.006	20126
890.13	20187
890.254	20027
890.377	19993
890.501	19860
890.624	19868
890.748	19986
890.871	19738
890.995	19552
891.118	19613
891.241	19704
891.364	19693
891.488	19757
891.611	19723
891.734	19700
891.857	19776
891.98	19700
892.103	19837
892.226	19757
892.349	19712
892.471	19491
892.594	19628
892.717	19666
892.839	19544
892.962	19620
893.085	19708
893.207	19597
893.33	19540
893.452	19548
893.575	19609
893.697	19616
893.819	19753
893.941	19841
894.064	19788
894.186	19590
894.308	19533
894.43	19734
894.552	19795
894.674	19742
894.796	19464
894.918	19559
895.04	19586
895.161	19700
895.283	19658
895.405	19559
895.526	19620
895.648	19544
895.769	19647
895.891	19594
896.012	19708
896.134	19670
896.255	19696
896.376	19586
896.498	19601
896.619	19693
896.74	19639
896.861	19651
896.982	19947
897.103	20069
897.224	19871
897.345	19795
897.466	19795
897.587	19788
897.708	20001
897.828	20016
897.949	19776
898.07	19643
898.19	19788
898.311	19928
898.431	19791
898.552	19826
898.672	19955
898.792	19989
898.913	19849
899.033	19879
899.153	19605
899.273	19571
899.393	19468
899.513	19620
899.633	19662
899.753	19620
899.873	19506
899.993	19666
900.113	19609
900.232	19609
900.352	19506
900.472	19411
900.591	19354
900.711	19377
900.83	19373
900.95	19453
901.069	19457
901.189	19160
901.308	19061
901.427	18966
901.546	18863
901.665	19050
901.784	19103
901.904	18802
902.023	18711
902.141	18627
902.26	18490
902.379	18555
902.498	18479
902.617	18479
902.735	18540
902.854	18490
902.973	18330
903.091	18136
903.21	18133
903.328	18213
903.446	18232
903.565	17996
903.683	18015
903.801	17866
903.919	17961
904.038	17908
904.156	17726
904.274	17828
904.392	17695
904.51	17783
904.627	17771
904.745	17836
904.863	17756
904.981	17512
905.098	17459
905.216	17406
905.334	17486
905.451	17463
905.569	17383
905.686	17520
905.803	17459
905.921	17178
906.038	17410
906.155	17227
906.272	17071
906.389	17212
906.506	16923
906.623	16938
906.74	16934
906.857	16771
906.974	16805
907.091	16999
907.208	16995
907.324	17018
907.441	16923
907.557	16672
907.674	16691
907.79	16523
907.907	16577
908.023	16668
908.139	16721
908.256	16641
908.372	16634
908.488	16462
908.604	16409
908.72	16390
908.836	16489
908.952	16455
909.068	16516
909.184	16478
909.3	16325
909.415	16417
909.531	16371
909.647	16143
909.762	16226
909.878	16051
909.993	16124
910.108	15953
910.224	16090
910.339	16109
910.454	16025
910.57	15983
910.685	15865
910.8	16143
910.915	16093
911.03	15949
911.145	15774
911.259	15698
911.374	15728
911.489	15652
911.604	15667
911.718	15682
911.833	15488
911.947	15428
912.062	15279
912.176	15549
912.291	15553
912.405	15500
912.519	15610
912.633	15755
912.748	15553
912.862	15416
912.976	15389
913.09	15150
913.204	15241
913.318	15374
913.431	15325
913.545	15386
913.659	15435
913.772	15233
913.886	15097
914	15157
914.113	15211
914.226	15207
914.34	15116
914.453	14937
914.566	15020
914.68	15047
914.793	15017
914.906	14781
915.019	14727
915.132	14659
915.245	14773
915.358	14777
915.47	14830
915.583	14678
915.696	14765
915.809	14788
915.921	14929
916.034	14644
916.146	14613
916.259	14606
916.371	14682
916.483	14579
916.595	14629
916.708	14556
916.82	14598
916.932	14495
917.044	14530
917.156	14492
917.268	14415
917.38	14469
917.491	14423
917.603	14480
917.715	14480
917.826	14454
917.938	14324
918.049	14328
918.161	14278
918.272	14522
918.384	14454
918.495	14355
918.606	14187
918.717	14058
918.828	14161
918.939	14229
919.05	14081
919.161	14107
919.272	13947
919.383	14031
919.494	14161
919.604	14339
919.715	14149
919.826	13921
919.936	14084
920.047	14214
920.157	14115
920.267	14317
920.378	14210
920.488	14096
920.598	14313
920.708	14465
920.818	14202
920.928	14252
921.038	14404
921.148	14332
921.258	14065
921.368	13993
921.477	13750
921.587	13925
921.697	13674
921.806	13925
921.916	13666
922.025	13533
922.134	13597
922.244	13434
922.353	13502
922.462	13396
922.571	13324
922.68	13129
922.789	13129
922.898	13164
923.007	13099
923.116	13236
923.224	13133
923.333	13080
923.442	13050
923.55	13027
923.659	12996
923.767	13088
923.876	12920
923.984	13004
924.092	12886
924.201	12890
924.309	12882
924.417	12973
924.525	12848
924.633	12920
924.741	13765
924.849	12604
924.956	12749
925.064	12608
925.172	12551
925.279	12574
925.387	12639
925.494	12620
925.602	12711
925.709	12711
925.816	12418
925.924	12506
926.031	12601
926.138	12700
926.245	12593
926.352	12517
926.459	12551
926.566	12642
926.673	12521
926.779	12334
926.886	12357
926.993	12289
927.099	12190
927.206	12095
927.312	12144
927.419	12251
927.525	12209
927.631	12243
927.737	12064
927.843	12060
927.95	11958
928.056	11996
928.162	12076
928.267	12053
928.373	12642
928.479	12102
928.585	11764
928.69	11813
928.796	12022
928.901	11912
929.007	11695
929.112	11878
929.218	11767
929.323	11756
929.428	11699
929.533	11863
929.638	11767
929.743	11729
929.848	11680
929.953	11630
930.058	11551
930.163	11478
930.267	11467
930.372	11573
930.477	11471
930.581	11596
930.685	11478
930.79	11368
930.894	11383
930.998	11349
931.103	11417
931.207	11075
931.311	11025
931.415	10915
931.519	10782
931.623	10774
