Data from test_V78500241_385.txt Node
Date: Fri Mar 25 15:12:32 CST 2022
User: usil
Spectrometer: V785-0024
Trigger mode: 0
Integration Time (sec): 4.000000E-1
Scans to average: 1
Nonlinearity correction enabled: false
Boxcar width: 0
Storing dark spectrum: false
XAxis mode: Wavelengths
Number of Pixels in Spectrum: 1024
>>>>>Begin Spectral Data<<<<<
801.071	26823
801.214	26876
801.356	26613
801.499	26659
801.641	26446
801.783	26404
801.926	26659
802.068	26492
802.211	26412
802.353	26499
802.496	26248
802.638	26225
802.78	26126
802.923	26092
803.065	26142
803.208	26069
803.35	26035
803.492	26328
803.635	26267
803.777	26069
803.919	26252
804.061	26590
804.204	26225
804.346	26092
804.488	26138
804.63	26248
804.773	26187
804.915	26381
805.057	26404
805.199	26183
805.341	26199
805.483	26438
805.626	26480
805.768	26263
805.91	26339
806.052	26336
806.194	26256
806.336	26552
806.478	26275
806.62	26469
806.762	26575
806.904	26762
807.046	26883
807.188	26659
807.33	26788
807.472	26777
807.614	26727
807.756	26823
807.898	26568
808.04	26461
808.182	26533
808.324	26564
808.465	26716
808.607	26682
808.749	26834
808.891	27051
809.033	27070
809.174	27039
809.316	26819
809.458	26956
809.6	26994
809.741	27043
809.883	26804
810.025	27264
810.166	27131
810.308	27150
810.45	27070
810.591	27146
810.733	26883
810.875	27047
811.016	26758
811.158	26705
811.299	26963
811.441	26994
811.582	27001
811.724	26895
811.865	26853
812.007	26925
812.148	26838
812.29	27032
812.431	27043
812.573	27214
812.714	27298
812.855	27500
812.997	27496
813.138	27663
813.279	27641
813.421	27542
813.562	27462
813.703	27321
813.845	27108
813.986	26868
814.127	26617
814.268	26503
814.41	26590
814.551	26568
814.692	26552
814.833	26526
814.974	26575
815.115	26579
815.256	26290
815.397	26377
815.539	26461
815.68	26339
815.821	26218
815.962	26267
816.103	26294
816.244	26244
816.385	26020
816.526	26081
816.666	26062
816.807	25837
816.948	26020
817.089	26012
817.23	25940
817.371	25780
817.512	25776
817.653	25883
817.793	25738
817.934	25970
818.075	25826
818.216	25795
818.356	25822
818.497	25696
818.638	25563
818.778	25575
818.919	25689
819.06	25632
819.2	25856
819.341	25727
819.481	25776
819.622	25906
819.762	26187
819.903	26081
820.043	25997
820.184	26008
820.324	26008
820.465	25913
820.605	25978
820.746	25811
820.886	25742
821.026	25818
821.167	25883
821.307	25925
821.447	25906
821.588	25750
821.728	25628
821.868	25479
822.008	25266
822.149	25308
822.289	25327
822.429	24996
822.569	24913
822.709	25008
822.849	24825
822.99	24817
823.13	24692
823.27	24821
823.41	24646
823.55	24517
823.69	24566
823.83	24681
823.97	24604
824.11	24475
824.25	24388
824.389	24445
824.529	24547
824.669	24551
824.809	24578
824.949	24513
825.089	24555
825.228	24509
825.368	24220
825.508	24296
825.648	24357
825.787	24273
825.927	24372
826.067	24285
826.206	24292
826.346	24251
826.485	24232
826.625	24258
826.765	24391
826.904	24372
827.044	24018
827.183	24003
827.323	23969
827.462	24041
827.601	24015
827.741	23863
827.88	24038
828.02	23840
828.159	23988
828.298	24041
828.437	24015
828.577	23935
828.716	24045
828.855	23939
828.994	23859
829.134	23760
829.273	23779
829.412	23843
829.551	23779
829.69	23722
829.829	23813
829.968	23771
830.107	23714
830.246	23653
830.385	23707
830.524	23592
830.663	23566
830.802	23452
830.941	23326
831.08	23356
831.219	23604
831.357	23414
831.496	23589
831.635	23334
831.774	23292
831.913	23121
832.051	23079
832.19	23136
832.329	23204
832.467	23067
832.606	23075
832.744	22987
832.883	23044
833.022	23010
833.16	23132
833.299	23117
833.437	23083
833.576	23014
833.714	23083
833.852	23098
833.991	23147
834.129	23098
834.267	23200
834.406	23105
834.544	23090
834.682	23102
834.821	23037
834.959	23193
835.097	23003
835.235	23132
835.373	23048
835.511	23113
835.65	23033
835.788	22961
835.926	22911
836.064	22809
836.202	22771
836.34	22900
836.478	22980
836.615	22892
836.753	23044
836.891	22934
837.029	22930
837.167	22976
837.305	22858
837.443	22885
837.58	22733
837.718	22908
837.856	22835
837.993	22767
838.131	22759
838.269	22729
838.406	22733
838.544	22519
838.681	22577
838.819	22402
838.956	22215
839.094	22440
839.231	22382
839.369	22379
839.506	22577
839.643	22607
839.781	22249
839.918	22226
840.055	22303
840.193	22284
840.33	22280
840.467	22246
840.604	22177
840.742	22622
840.879	22169
841.016	22196
841.153	22082
841.29	22455
841.427	22322
841.564	22192
841.701	22173
841.838	22116
841.975	22059
842.112	22207
842.249	21876
842.385	21998
842.522	22044
842.659	22097
842.796	22006
842.933	21983
843.069	22029
843.206	22029
843.343	22116
843.479	21987
843.616	22013
843.752	21739
843.889	21797
844.025	21934
844.162	21717
844.298	21873
844.435	21797
844.571	21762
844.708	21854
844.844	21895
844.98	21903
845.117	21789
845.253	21698
845.389	21564
845.525	21610
845.661	21583
845.798	21450
845.934	21660
846.07	21382
846.206	21515
846.342	21614
846.478	21420
846.614	21367
846.75	21176
846.886	21230
847.022	21283
847.158	21287
847.294	21344
847.429	21340
847.565	21135
847.701	21420
847.837	20971
847.972	20960
848.108	21157
848.244	21028
848.379	20792
848.515	20986
848.65	20796
848.786	20861
848.921	20830
849.057	21028
849.192	21074
849.328	20906
849.463	20868
849.598	20750
849.734	20636
849.869	20716
850.004	20537
850.14	20708
850.275	20629
850.41	20503
850.545	20568
850.68	20640
850.815	20537
850.95	20518
851.085	20853
851.22	20697
851.355	20499
851.49	20606
851.625	20545
851.76	20454
851.895	20537
852.03	20484
852.165	20587
852.299	20621
852.434	20705
852.569	20625
852.703	20583
852.838	20602
852.973	20598
853.107	20663
853.242	20518
853.376	20381
853.511	20393
853.645	20336
853.78	20511
853.914	20492
854.048	20419
854.183	20389
854.317	20518
854.451	20640
854.585	20370
854.72	20366
854.854	20549
854.988	20446
855.122	20446
855.256	20294
855.39	20366
855.524	20507
855.658	20377
855.792	20400
855.926	20400
856.06	20499
856.194	20499
856.327	20495
856.461	20332
856.595	20370
856.729	20484
856.862	20514
856.996	20404
857.13	20556
857.263	20533
857.397	20499
857.53	20351
857.664	20511
857.797	20450
857.931	20473
858.064	20480
858.197	20457
858.331	20370
858.464	20339
858.597	20221
858.731	20389
858.864	20385
858.997	20473
859.13	20419
859.263	20389
859.396	20415
859.529	20465
859.662	20423
859.795	20423
859.928	20495
860.061	20556
860.194	20712
860.327	20476
860.46	20377
860.592	20537
860.725	20541
860.858	20541
860.99	20537
861.123	20347
861.256	20442
861.388	20450
861.521	21066
861.653	20434
861.786	20221
861.918	20278
862.05	20225
862.183	20305
862.315	20347
862.447	20377
862.58	20389
862.712	20199
862.844	20195
862.976	20275
863.108	20233
863.24	20598
863.372	20149
863.504	20065
863.636	20134
863.768	20221
863.9	20092
864.032	20157
864.164	20115
864.296	20187
864.428	20301
864.559	20343
864.691	20206
864.823	20343
864.954	20142
865.086	20134
865.217	20138
865.349	19944
865.48	20077
865.612	20115
865.743	20210
865.875	20050
866.006	20153
866.137	20077
866.269	20138
866.4	20145
866.531	19928
866.662	20031
866.793	19997
866.924	20035
867.055	20024
867.186	20161
867.317	19947
867.448	19955
867.579	20069
867.71	20088
867.841	20020
867.972	20100
868.103	20088
868.233	20046
868.364	20069
868.495	20130
868.625	20366
868.756	20336
868.886	20221
869.017	20218
869.147	20347
869.278	20427
869.408	20244
869.539	20355
869.669	20336
869.799	20389
869.929	20476
870.06	20419
870.19	20560
870.32	20473
870.45	20667
870.58	20659
870.71	20883
870.84	20785
870.97	20629
871.1	20731
871.23	20883
871.36	20861
871.489	20724
871.619	20834
871.749	20868
871.879	20868
872.008	20933
872.138	20876
872.267	20849
872.397	20811
872.526	20594
872.656	20663
872.785	20773
872.915	21009
873.044	20982
873.173	20891
873.303	20941
873.432	20895
873.561	21062
873.69	20941
873.819	20941
873.948	20895
874.077	20823
874.206	20777
874.335	20971
874.464	21043
874.593	21116
874.722	21047
874.851	21150
874.979	21173
875.108	21256
875.237	21104
875.365	21123
875.494	21119
875.623	21340
875.751	21116
875.88	21256
876.008	21176
876.136	21135
876.265	21511
876.393	21690
876.521	21728
876.65	21603
876.778	21466
876.906	21435
877.034	21378
877.162	21515
877.29	21367
877.418	21504
877.546	21591
877.674	21439
877.802	21458
877.93	21405
878.058	21420
878.185	21348
878.313	21485
878.441	21542
878.568	21245
878.696	21363
878.824	21481
878.951	21538
879.079	21648
879.206	21675
879.333	21644
879.461	21447
879.588	21488
879.715	21568
879.842	21755
879.97	21538
880.097	21317
880.224	21287
880.351	21450
880.478	21226
880.605	21317
880.732	21374
880.859	21564
880.986	21313
881.112	21447
881.239	21093
881.366	21024
881.493	20986
881.619	20963
881.746	20944
881.872	21005
881.999	20880
882.125	20857
882.252	20990
882.378	20910
882.505	21028
882.631	20686
882.757	20632
882.883	20769
883.01	20602
883.136	20560
883.262	20503
883.388	20454
883.514	20606
883.64	20640
883.766	20530
883.892	20404
884.018	20374
884.143	20514
884.269	20659
884.395	20320
884.52	20183
884.646	20332
884.772	20240
884.897	20183
885.023	20290
885.148	20377
885.274	20393
885.399	20385
885.524	20229
885.65	20221
885.775	20290
885.9	20122
886.025	20400
886.15	20313
886.275	20351
886.4	20138
886.525	20229
886.65	20176
886.775	20237
886.9	20366
887.025	20594
887.149	20259
887.274	20122
887.399	20054
887.523	20024
887.648	19982
887.773	19997
887.897	20088
888.021	20176
888.146	19875
888.27	20115
888.395	20168
888.519	20039
888.643	20073
888.767	20195
888.891	19989
889.015	19864
889.139	20111
889.263	19860
889.387	20008
889.511	20008
889.635	19974
889.759	19814
889.883	19856
890.006	19837
890.13	19947
890.254	19803
890.377	19761
890.501	19712
890.624	19502
890.748	19559
890.871	19533
890.995	19426
891.118	19426
891.241	19491
891.364	19453
891.488	19613
891.611	19457
891.734	19434
891.857	19441
891.98	19445
892.103	19468
892.226	19495
892.349	19324
892.471	19282
892.594	19293
892.717	19343
892.839	19320
892.962	19392
893.085	19521
893.207	19384
893.33	19266
893.452	19198
893.575	19396
893.697	19384
893.819	19403
893.941	19616
894.064	19487
894.186	19236
894.308	19251
894.43	19407
894.552	19506
894.674	19460
894.796	19346
894.918	19331
895.04	19285
895.161	19419
895.283	19441
895.405	19324
895.526	19339
895.648	19392
895.769	19426
895.891	19358
896.012	19422
896.134	19407
896.255	19381
896.376	19502
896.498	19335
896.619	19392
896.74	19388
896.861	19495
896.982	19647
897.103	19753
897.224	19639
897.345	19666
897.466	19544
897.587	19628
897.708	19662
897.828	19578
897.949	19624
898.07	19316
898.19	19529
898.311	19696
898.431	19567
898.552	19540
898.672	19586
898.792	19674
898.913	19495
899.033	19518
899.153	19324
899.273	19259
899.393	19343
899.513	19411
899.633	19327
899.753	19445
899.873	19278
899.993	19362
900.113	19221
900.232	19285
900.352	19350
900.472	19247
900.591	19114
900.711	19152
900.83	19050
900.95	19133
901.069	19221
901.189	18996
901.308	18798
901.427	18741
901.546	18757
901.665	18798
901.784	18715
901.904	18570
902.023	18490
902.141	18323
902.26	18353
902.379	18361
902.498	18140
902.617	18216
902.735	18258
902.854	18239
902.973	18232
903.091	17912
903.21	17931
903.328	17813
903.446	17802
903.565	17710
903.683	17733
903.801	17596
903.919	17737
904.038	17592
904.156	17509
904.274	17528
904.392	17509
904.51	17532
904.627	17471
904.745	17573
904.863	17562
904.981	17368
905.098	17143
905.216	17170
905.334	17197
905.451	17178
905.569	17246
905.686	17269
905.803	17265
905.921	16980
906.038	17098
906.155	16991
906.272	17003
906.389	16934
906.506	16660
906.623	16748
906.74	16748
906.857	16664
906.974	16653
907.091	16763
907.208	16805
907.324	16759
907.441	16550
907.557	16542
907.674	16508
907.79	16497
907.907	16432
908.023	16470
908.139	16447
908.256	16356
908.372	16352
908.488	16306
908.604	16246
908.72	16082
908.836	16158
908.952	16143
909.068	16147
909.184	16261
909.3	16211
909.415	16234
909.531	16280
909.647	16040
909.762	15899
909.878	15766
909.993	15888
910.108	15835
910.224	15842
910.339	15903
910.454	15804
910.57	15804
910.685	15675
910.8	15953
910.915	15857
911.03	15747
911.145	15485
911.259	15606
911.374	15618
911.489	15473
911.604	15374
911.718	15252
911.833	15283
911.947	15089
912.062	15127
912.176	15154
912.291	15268
912.405	15256
912.519	15397
912.633	15443
912.748	15306
912.862	15260
912.976	15157
913.09	14979
913.204	14929
913.318	15058
913.431	15195
913.545	15077
913.659	15222
913.772	15017
913.886	14868
914	14849
914.113	14982
914.226	14975
914.34	15039
914.453	14857
914.566	14963
914.68	14777
914.793	14773
914.906	14621
915.019	14514
915.132	14488
915.245	14571
915.358	14461
915.47	14480
915.583	14503
915.696	14499
915.809	14636
915.921	14617
916.034	14461
916.146	14393
916.259	14381
916.371	14454
916.483	14457
916.595	14263
916.708	14366
916.82	14332
916.932	14278
917.044	14313
917.156	14339
917.268	14111
917.38	14221
917.491	14191
917.603	14214
917.715	14248
917.826	14332
917.938	14062
918.049	14001
918.161	14153
918.272	14336
918.384	14229
918.495	14084
918.606	14016
918.717	13959
918.828	13959
918.939	13989
919.05	13951
919.161	13974
919.272	13742
919.383	13830
919.494	13932
919.604	14244
919.715	13970
919.826	13818
919.936	13913
920.047	13944
920.157	13989
920.267	14123
920.378	13932
920.488	13883
920.598	14065
920.708	14195
920.818	14077
920.928	14008
921.038	14252
921.148	14115
921.258	13898
921.368	13898
921.477	13647
921.587	13605
921.697	13529
921.806	13647
921.916	13506
922.025	13422
922.134	13377
922.244	13266
922.353	13358
922.462	13244
922.571	13179
922.68	13072
922.789	13004
922.898	12909
923.007	13008
923.116	13031
923.224	12890
923.333	12981
923.442	12875
923.55	12821
923.659	12905
923.767	12920
923.876	12810
923.984	12848
924.092	12722
924.201	12707
924.309	12707
924.417	12825
924.525	12673
924.633	12722
924.741	13441
924.849	12456
924.956	12623
925.064	12452
925.172	12422
925.279	12486
925.387	12467
925.494	12460
925.602	12612
925.709	12517
925.816	12448
925.924	12418
926.031	12490
926.138	12452
926.245	12445
926.352	12285
926.459	12418
926.566	12471
926.673	12308
926.779	12270
926.886	12136
926.993	12034
927.099	12034
927.206	12019
927.312	11980
927.419	12114
927.525	12095
927.631	12057
927.737	11912
927.843	11920
927.95	11794
928.056	11942
928.162	11840
928.267	11882
928.373	12521
928.479	11836
928.585	11676
928.69	11836
928.796	11923
928.901	11798
929.007	11535
929.112	11714
929.218	11699
929.323	11703
929.428	11573
929.533	11764
929.638	11604
929.743	11566
929.848	11653
929.953	11615
930.058	11532
930.163	11261
930.267	11341
930.372	11467
930.477	11242
930.581	11539
930.685	11383
930.79	11288
930.894	11258
930.998	11193
931.103	11387
931.207	11003
931.311	10923
931.415	10862
931.519	10694
931.623	10618
