Data from test_V78500241_2438.txt Node
Date: Fri Mar 25 15:26:50 CST 2022
User: usil
Spectrometer: V785-0024
Trigger mode: 0
Integration Time (sec): 4.000000E-1
Scans to average: 1
Nonlinearity correction enabled: false
Boxcar width: 0
Storing dark spectrum: false
XAxis mode: Wavelengths
Number of Pixels in Spectrum: 1024
>>>>>Begin Spectral Data<<<<<
801.071	26952
801.214	26902
801.356	26697
801.499	26655
801.641	26629
801.783	26682
801.926	26522
802.068	26583
802.211	26473
802.353	26503
802.496	26210
802.638	26214
802.78	26199
802.923	26191
803.065	26035
803.208	26126
803.35	26263
803.492	26225
803.635	26408
803.777	26218
803.919	26347
804.061	26621
804.204	26419
804.346	26240
804.488	26214
804.63	26336
804.773	26229
804.915	26267
805.057	26343
805.199	26332
805.341	26370
805.483	26480
805.626	26488
805.768	26339
805.91	26404
806.052	26374
806.194	26457
806.336	26663
806.478	26408
806.62	26412
806.762	26507
806.904	26583
807.046	27001
807.188	26792
807.33	26762
807.472	26895
807.614	26807
807.756	26769
807.898	26739
808.04	26644
808.182	26503
808.324	26621
808.465	26849
808.607	26960
808.749	27119
808.891	27237
809.033	27207
809.174	27085
809.316	26880
809.458	26979
809.6	27047
809.741	27131
809.883	27188
810.025	27466
810.166	27260
810.308	27287
810.45	27195
810.591	27108
810.733	26910
810.875	26868
811.016	26823
811.158	26952
811.299	27070
811.441	26948
811.582	27218
811.724	27005
811.865	26902
812.007	26842
812.148	26979
812.29	27017
812.431	27154
812.573	27332
812.714	27458
812.855	27561
812.997	27572
813.138	27770
813.279	27736
813.421	27473
813.562	27389
813.703	27355
813.845	27264
813.986	26830
814.127	26727
814.268	26724
814.41	26594
814.551	26613
814.692	26716
814.833	26568
814.974	26678
815.115	26583
815.256	26503
815.397	26507
815.539	26564
815.68	26343
815.821	26313
815.962	26370
816.103	26294
816.244	26393
816.385	26161
816.526	26111
816.666	26039
816.807	25913
816.948	26027
817.089	25978
817.23	25955
817.371	25898
817.512	25909
817.653	25875
817.793	25978
817.934	25849
818.075	25925
818.216	25738
818.356	25830
818.497	25871
818.638	25620
818.778	25571
818.919	25742
819.06	25643
819.2	25791
819.341	25803
819.481	26012
819.622	26035
819.762	26244
819.903	26027
820.043	26115
820.184	26069
820.324	25997
820.465	25993
820.605	25928
820.746	26024
820.886	25887
821.026	25917
821.167	25898
821.307	26122
821.447	25913
821.588	25791
821.728	25769
821.868	25643
822.008	25301
822.149	25540
822.289	25350
822.429	25126
822.569	24966
822.709	25095
822.849	24817
822.99	24962
823.13	25015
823.27	24833
823.41	24597
823.55	24677
823.69	24764
823.83	24745
823.97	24688
824.11	24410
824.25	24502
824.389	24509
824.529	24639
824.669	24483
824.809	24677
824.949	24631
825.089	24547
825.228	24525
825.368	24422
825.508	24353
825.648	24380
825.787	24330
825.927	24384
826.067	24403
826.206	24213
826.346	24388
826.485	24433
826.625	24327
826.765	24490
826.904	24441
827.044	24125
827.183	24216
827.323	24022
827.462	24159
827.601	24125
827.741	24144
827.88	23969
828.02	23996
828.159	23916
828.298	23992
828.437	24148
828.577	23980
828.716	24060
828.855	23920
828.994	23756
829.134	23756
829.273	23824
829.412	23729
829.551	23748
829.69	23885
829.829	23893
829.968	23897
830.107	23851
830.246	23847
830.385	23821
830.524	23710
830.663	23577
830.802	23433
830.941	23425
831.08	23345
831.219	23531
831.357	23410
831.496	23627
831.635	23528
831.774	23440
831.913	23337
832.051	23140
832.19	23261
832.329	23280
832.467	23094
832.606	23086
832.744	23102
832.883	23018
833.022	23041
833.16	23197
833.299	23094
833.437	23014
833.576	23155
833.714	23159
833.852	23311
833.991	23235
834.129	23277
834.267	23356
834.406	23159
834.544	23231
834.682	23033
834.821	23239
834.959	23383
835.097	22984
835.235	23250
835.373	23193
835.511	23227
835.65	23075
835.788	23014
835.926	22828
836.064	22755
836.202	22812
836.34	23044
836.478	22984
836.615	22980
836.753	22896
836.891	23071
837.029	23018
837.167	22919
837.305	22801
837.443	22995
837.58	22839
837.718	23006
837.856	22900
837.993	22824
838.131	22976
838.269	22679
838.406	22793
838.544	22687
838.681	22466
838.819	22493
838.956	22246
839.094	22341
839.231	22382
839.369	22516
839.506	22660
839.643	22489
839.781	22272
839.918	22215
840.055	22200
840.193	22287
840.33	22230
840.467	22341
840.604	22268
840.742	22531
840.879	22002
841.016	22120
841.153	22215
841.29	22386
841.427	22272
841.564	22424
841.701	22303
841.838	22325
841.975	22211
842.112	22093
842.249	22090
842.385	22013
842.522	22200
842.659	22074
842.796	21998
842.933	22025
843.069	21968
843.206	21903
843.343	22135
843.479	22036
843.616	22040
843.752	21869
843.889	21739
844.025	21987
844.162	21759
844.298	21819
844.435	21850
844.571	21812
844.708	21869
844.844	21880
844.98	21880
845.117	21915
845.253	21705
845.389	21892
845.525	21827
845.661	21701
845.798	21523
845.934	21545
846.07	21549
846.206	21523
846.342	21583
846.478	21439
846.614	21302
846.75	21081
846.886	21268
847.022	21329
847.158	21237
847.294	21287
847.429	21389
847.565	21199
847.701	21428
847.837	21135
847.972	21005
848.108	21081
848.244	21104
848.379	20937
848.515	20975
848.65	20800
848.786	20807
848.921	20762
849.057	21017
849.192	20910
849.328	20849
849.463	20868
849.598	20887
849.734	20849
849.869	20754
850.004	20674
850.14	20773
850.275	20617
850.41	20488
850.545	20609
850.68	20667
850.815	20670
850.95	20545
851.085	20792
851.22	20644
851.355	20590
851.49	20613
851.625	20541
851.76	20530
851.895	20514
852.03	20495
852.165	20545
852.299	20594
852.434	20689
852.569	20648
852.703	20693
852.838	20705
852.973	20739
853.107	20727
853.242	20617
853.376	20465
853.511	20362
853.645	20446
853.78	20594
853.914	20514
854.048	20377
854.183	20393
854.317	20484
854.451	20674
854.585	20484
854.72	20514
854.854	20499
854.988	20442
855.122	20480
855.256	20278
855.39	20450
855.524	20568
855.658	20427
855.792	20465
855.926	20598
856.06	20594
856.194	20602
856.327	20461
856.461	20351
856.595	20469
856.729	20450
856.862	20651
856.996	20457
857.13	20522
857.263	20522
857.397	20442
857.53	20522
857.664	20473
857.797	20351
857.931	20541
858.064	20545
858.197	20526
858.331	20469
858.464	20434
858.597	20282
858.731	20400
858.864	20446
858.997	20419
859.13	20522
859.263	20404
859.396	20621
859.529	20396
859.662	20495
859.795	20305
859.928	20549
860.061	20663
860.194	20773
860.327	20476
860.46	20492
860.592	20613
860.725	20571
860.858	20499
860.99	20545
861.123	20389
861.256	20560
861.388	20560
861.521	20986
861.653	20351
861.786	20126
861.918	20275
862.05	20389
862.183	20366
862.315	20396
862.447	20393
862.58	20347
862.712	20107
862.844	20161
862.976	20240
863.108	20320
863.24	20609
863.372	20142
863.504	20195
863.636	20062
863.768	20199
863.9	20164
864.032	20168
864.164	20077
864.296	20233
864.428	20267
864.559	20282
864.691	20180
864.823	20218
864.954	20202
865.086	20229
865.217	20138
865.349	20024
865.48	20008
865.612	19970
865.743	20084
865.875	20138
866.006	20077
866.137	20046
866.269	19951
866.4	20024
866.531	19982
866.662	19925
866.793	20027
866.924	20035
867.055	20145
867.186	20115
867.317	19993
867.448	19917
867.579	19993
867.71	19936
867.841	19841
867.972	19993
868.103	20016
868.233	20130
868.364	20119
868.495	20096
868.625	20164
868.756	20385
868.886	20206
869.017	20111
869.147	20336
869.278	20381
869.408	20389
869.539	20168
869.669	20305
869.799	20282
869.929	20438
870.06	20400
870.19	20507
870.32	20568
870.45	20598
870.58	20590
870.71	20590
870.84	20731
870.97	20564
871.1	20617
871.23	20807
871.36	20868
871.489	20769
871.619	20853
871.749	20876
871.879	20941
872.008	21020
872.138	20781
872.267	20868
872.397	20849
872.526	20670
872.656	20678
872.785	20720
872.915	20883
873.044	20994
873.173	20891
873.303	20883
873.432	20944
873.561	20925
873.69	21074
873.819	20830
873.948	21013
874.077	20944
874.206	20800
874.335	20975
874.464	21108
874.593	21184
874.722	21192
874.851	21199
874.979	21036
875.108	21340
875.237	21096
875.365	21074
875.494	21169
875.623	21127
875.751	21123
875.88	21192
876.008	21230
876.136	21431
876.265	21534
876.393	21610
876.521	21572
876.65	21606
876.778	21447
876.906	21648
877.034	21428
877.162	21485
877.29	21416
877.418	21447
877.546	21462
877.674	21568
877.802	21412
877.93	21420
878.058	21458
878.185	21466
878.313	21397
878.441	21477
878.568	21237
878.696	21401
878.824	21496
878.951	21545
879.079	21610
879.206	21743
879.333	21644
879.461	21526
879.588	21644
879.715	21583
879.842	21694
879.97	21416
880.097	21275
880.224	21268
880.351	21348
880.478	21260
880.605	21199
880.732	21283
880.859	21447
880.986	21458
881.112	21302
881.239	21199
881.366	21096
881.493	20998
881.619	20891
881.746	20963
881.872	20982
881.999	20826
882.125	20826
882.252	20944
882.378	20845
882.505	20956
882.631	20682
882.757	20514
882.883	20670
883.01	20667
883.136	20556
883.262	20343
883.388	20370
883.514	20587
883.64	20705
883.766	20476
883.892	20400
884.018	20343
884.143	20613
884.269	20697
884.395	20225
884.52	20172
884.646	20164
884.772	20221
884.897	20096
885.023	20225
885.148	20423
885.274	20438
885.399	20393
885.524	20358
885.65	20282
885.775	20298
885.9	20191
886.025	20324
886.15	20267
886.275	20275
886.4	20191
886.525	20176
886.65	20176
886.775	20069
886.9	20347
887.025	20415
887.149	20256
887.274	20039
887.399	20058
887.523	20005
887.648	20035
887.773	19932
887.897	20046
888.021	20027
888.146	19944
888.27	20145
888.395	20115
888.519	20050
888.643	20077
888.767	20031
888.891	19970
889.015	19803
889.139	19944
889.263	19818
889.387	19959
889.511	20016
889.635	20031
889.759	19811
889.883	19826
890.006	19963
890.13	19925
890.254	19765
890.377	19791
890.501	19723
890.624	19533
890.748	19674
890.871	19499
890.995	19365
891.118	19377
891.241	19384
891.364	19422
891.488	19449
891.611	19403
891.734	19362
891.857	19441
891.98	19464
892.103	19434
892.226	19339
892.349	19343
892.471	19232
892.594	19407
892.717	19381
892.839	19312
892.962	19335
893.085	19400
893.207	19324
893.33	19324
893.452	19221
893.575	19339
893.697	19415
893.819	19533
893.941	19521
894.064	19457
894.186	19343
894.308	19225
894.43	19411
894.552	19449
894.674	19365
894.796	19274
894.918	19335
895.04	19297
895.161	19384
895.283	19453
895.405	19324
895.526	19506
895.648	19285
895.769	19388
895.891	19422
896.012	19460
896.134	19415
896.255	19312
896.376	19381
896.498	19289
896.619	19354
896.74	19411
896.861	19438
896.982	19757
897.103	19746
897.224	19499
897.345	19597
897.466	19525
897.587	19559
897.708	19670
897.828	19613
897.949	19533
898.07	19411
898.19	19464
898.311	19616
898.431	19544
898.552	19525
898.672	19552
898.792	19674
898.913	19639
899.033	19499
899.153	19346
899.273	19255
899.393	19346
899.513	19152
899.633	19266
899.753	19384
899.873	19225
899.993	19430
900.113	19308
900.232	19369
900.352	19240
900.472	19263
900.591	19110
900.711	19126
900.83	19156
900.95	19168
901.069	19247
901.189	19034
901.308	18722
901.427	18764
901.546	18772
901.665	18753
901.784	18726
901.904	18623
902.023	18494
902.141	18296
902.26	18224
902.379	18258
902.498	18235
902.617	18201
902.735	18190
902.854	18182
902.973	18194
903.091	17897
903.21	17961
903.328	18038
903.446	17824
903.565	17672
903.683	17779
903.801	17653
903.919	17760
904.038	17718
904.156	17665
904.274	17592
904.392	17455
904.51	17493
904.627	17490
904.745	17687
904.863	17501
904.981	17368
905.098	17208
905.216	17208
905.334	17105
905.451	17121
905.569	17242
905.686	17098
905.803	17166
905.921	16911
906.038	17124
906.155	16972
906.272	16908
906.389	16995
906.506	16797
906.623	16812
906.74	16736
906.857	16653
906.974	16603
907.091	16759
907.208	16717
907.324	16755
907.441	16656
907.557	16577
907.674	16497
907.79	16402
907.907	16402
908.023	16493
908.139	16428
908.256	16497
908.372	16375
908.488	16363
908.604	16196
908.72	16185
908.836	16295
908.952	16124
909.068	16265
909.184	16261
909.3	16219
909.415	16131
909.531	16177
909.647	15918
909.762	15869
909.878	15804
909.993	15895
910.108	15770
910.224	15842
910.339	15907
910.454	15701
910.57	15644
910.685	15667
910.8	15876
910.915	15842
911.03	15701
911.145	15549
911.259	15561
911.374	15538
911.489	15504
911.604	15458
911.718	15226
911.833	15169
911.947	15146
912.062	15138
912.176	15302
912.291	15195
912.405	15279
912.519	15466
912.633	15405
912.748	15306
912.862	15188
912.976	15077
913.09	14933
913.204	15047
913.318	15116
913.431	15104
913.545	15207
913.659	15214
913.772	15039
913.886	14857
914	14880
914.113	14994
914.226	15020
914.34	14967
914.453	14830
914.566	14948
914.68	14743
914.793	14834
914.906	14621
915.019	14450
915.132	14492
915.245	14469
915.358	14522
915.47	14564
915.583	14488
915.696	14560
915.809	14507
915.921	14648
916.034	14446
916.146	14347
916.259	14450
916.371	14514
916.483	14370
916.595	14324
916.708	14313
916.82	14393
916.932	14381
917.044	14320
917.156	14305
917.268	14183
917.38	14210
917.491	14180
917.603	14240
917.715	14244
917.826	14187
917.938	13986
918.049	13989
918.161	14218
918.272	14199
918.384	14259
918.495	14157
918.606	13887
918.717	13826
918.828	13902
918.939	13917
919.05	13864
919.161	13879
919.272	13685
919.383	13738
919.494	13947
919.604	14145
919.715	13993
919.826	13776
919.936	13925
920.047	13974
920.157	13974
920.267	14005
920.378	13925
920.488	13898
920.598	14039
920.708	14168
920.818	14069
920.928	14164
921.038	14221
921.148	14187
921.258	13826
921.368	13776
921.477	13704
921.587	13605
921.697	13609
921.806	13639
921.916	13521
922.025	13316
922.134	13232
922.244	13343
922.353	13297
922.462	13149
922.571	13133
922.68	13057
922.789	13088
922.898	12996
923.007	12981
923.116	12947
923.224	12844
923.333	12935
923.442	12875
923.55	12783
923.659	12749
923.767	12871
923.876	12696
923.984	12787
924.092	12745
924.201	12768
924.309	12688
924.417	12684
924.525	12563
924.633	12646
924.741	13609
924.849	12479
924.956	12551
925.064	12506
925.172	12308
925.279	12388
925.387	12414
925.494	12456
925.602	12593
925.709	12460
925.816	12327
925.924	12452
926.031	12452
926.138	12327
926.245	12353
926.352	12262
926.459	12376
926.566	12403
926.673	12327
926.779	12155
926.886	12106
926.993	12079
927.099	12072
927.206	11931
927.312	11969
927.419	12003
927.525	11961
927.631	12038
927.737	11954
927.843	11809
927.95	11688
928.056	11771
928.162	11786
928.267	11843
928.373	12486
928.479	11908
928.585	11646
928.69	11859
928.796	11824
928.901	11653
929.007	11589
929.112	11798
929.218	11630
929.323	11600
929.428	11520
929.533	11764
929.638	11539
929.743	11547
929.848	11577
929.953	11478
930.058	11452
930.163	11345
930.267	11242
930.372	11345
930.477	11330
930.581	11474
930.685	11330
930.79	11208
930.894	11273
930.998	11105
931.103	11277
931.207	11018
931.311	10820
931.415	10710
931.519	10615
931.623	10523
