Data from test_V78500241_2010.txt Node
Date: Fri Mar 25 15:23:51 CST 2022
User: usil
Spectrometer: V785-0024
Trigger mode: 0
Integration Time (sec): 4.000000E-1
Scans to average: 1
Nonlinearity correction enabled: false
Boxcar width: 0
Storing dark spectrum: false
XAxis mode: Wavelengths
Number of Pixels in Spectrum: 1024
>>>>>Begin Spectral Data<<<<<
801.071	27785
801.214	27583
801.356	27443
801.499	27424
801.641	27363
801.783	27287
801.926	27355
802.068	27363
802.211	27237
802.353	27283
802.496	27009
802.638	27036
802.78	27043
802.923	26895
803.065	26971
803.208	26998
803.35	26895
803.492	26998
803.635	27146
803.777	27058
803.919	27222
804.061	27454
804.204	27207
804.346	27146
804.488	27241
804.63	27173
804.773	27184
804.915	27161
805.057	27188
805.199	27150
805.341	27249
805.483	27408
805.626	27310
805.768	27131
805.91	27310
806.052	27336
806.194	27161
806.336	27397
806.478	27348
806.62	27230
806.762	27336
806.904	27637
807.046	27857
807.188	27781
807.33	27660
807.472	27800
807.614	27576
807.756	27732
807.898	27622
808.04	27526
808.182	27576
808.324	27644
808.465	27595
808.607	27766
808.749	27869
808.891	27930
809.033	28101
809.174	28006
809.316	27975
809.458	27892
809.6	27873
809.741	28101
809.883	28169
810.025	28211
810.166	28101
810.308	28268
810.45	28162
810.591	28105
810.733	28063
810.875	27865
811.016	27873
811.158	27770
811.299	27956
811.441	28032
811.582	27994
811.724	27983
811.865	27865
812.007	27861
812.148	27914
812.29	28051
812.431	28158
812.573	28120
812.714	28424
812.855	28390
812.997	28424
813.138	28584
813.279	28603
813.421	28360
813.562	28375
813.703	28238
813.845	28143
813.986	27827
814.127	27720
814.268	27614
814.41	27686
814.551	27534
814.692	27561
814.833	27614
814.974	27622
815.115	27660
815.256	27538
815.397	27496
815.539	27679
815.68	27298
815.821	27237
815.962	27469
816.103	27401
816.244	27310
816.385	27062
816.526	27096
816.666	26971
816.807	26910
816.948	26963
817.089	27013
817.23	26880
817.371	26811
817.512	26857
817.653	26887
817.793	26720
817.934	26792
818.075	26830
818.216	26872
818.356	27020
818.497	26750
818.638	26537
818.778	26655
818.919	26667
819.06	26769
819.2	26769
819.341	26781
819.481	26876
819.622	27199
819.762	27214
819.903	27131
820.043	27062
820.184	27005
820.324	26895
820.465	26918
820.605	26906
820.746	27047
820.886	26940
821.026	26925
821.167	26967
821.307	27058
821.447	26876
821.588	26689
821.728	26731
821.868	26396
822.008	26446
822.149	26389
822.289	26309
822.429	26153
822.569	25982
822.709	26073
822.849	25902
822.99	25868
823.13	25944
823.27	25830
823.41	25712
823.55	25586
823.69	25681
823.83	25689
823.97	25639
824.11	25506
824.25	25415
824.389	25476
824.529	25487
824.669	25518
824.809	25594
824.949	25552
825.089	25552
825.228	25670
825.368	25339
825.508	25384
825.648	25449
825.787	25438
825.927	25495
826.067	25407
826.206	25343
826.346	25266
826.485	25502
826.625	25388
826.765	25533
826.904	25339
827.044	25198
827.183	25141
827.323	25008
827.462	25031
827.601	25110
827.741	25019
827.88	25057
828.02	24962
828.159	24996
828.298	24935
828.437	25137
828.577	24996
828.716	25126
828.855	24989
828.994	24825
829.134	24882
829.273	24757
829.412	24722
829.551	24798
829.69	24791
829.829	24734
829.968	24935
830.107	24894
830.246	24814
830.385	24642
830.524	24673
830.663	24696
830.802	24540
830.941	24433
831.08	24384
831.219	24410
831.357	24589
831.496	24498
831.635	24437
831.774	24311
831.913	24247
832.051	24220
832.19	24015
832.329	24216
832.467	24068
832.606	24022
832.744	23969
832.883	23977
833.022	23961
833.16	24045
833.299	24076
833.437	24098
833.576	24121
833.714	24167
833.852	24239
833.991	24262
834.129	24247
834.267	24228
834.406	24155
834.544	24235
834.682	24243
834.821	24121
834.959	24224
835.097	24003
835.235	24171
835.373	24098
835.511	24102
835.65	24041
835.788	23958
835.926	23874
836.064	23805
836.202	23794
836.34	24121
836.478	24136
836.615	24007
836.753	23996
836.891	24095
837.029	23965
837.167	23866
837.305	23783
837.443	23851
837.58	23756
837.718	23878
837.856	23817
837.993	23676
838.131	23691
838.269	23668
838.406	23767
838.544	23630
838.681	23444
838.819	23395
838.956	23258
839.094	23216
839.231	23284
839.369	23349
839.506	23585
839.643	23684
839.781	23284
839.918	23140
840.055	23212
840.193	23292
840.33	23204
840.467	23269
840.604	23269
840.742	23520
840.879	23086
841.016	23094
841.153	23083
841.29	23223
841.427	23330
841.564	23284
841.701	23105
841.838	23132
841.975	23147
842.112	23197
842.249	22949
842.385	22858
842.522	23151
842.659	22968
842.796	22957
842.933	23075
843.069	22965
843.206	22972
843.343	23029
843.479	22923
843.616	22923
843.752	22740
843.889	22740
844.025	22828
844.162	22721
844.298	22744
844.435	22721
844.571	22668
844.708	22649
844.844	22820
844.98	22793
845.117	22835
845.253	22523
845.389	22672
845.525	22596
845.661	22596
845.798	22432
845.934	22322
846.07	22493
846.206	22542
846.342	22603
846.478	22466
846.614	22417
846.75	22185
846.886	22249
847.022	22177
847.158	22234
847.294	22169
847.429	22055
847.565	22150
847.701	22447
847.837	21892
847.972	21869
848.108	22010
848.244	21964
848.379	21743
848.515	21751
848.65	21785
848.786	21819
848.921	21823
849.057	21827
849.192	21766
849.328	21808
849.463	21785
849.598	21698
849.734	21694
849.869	21705
850.004	21583
850.14	21572
850.275	21587
850.41	21359
850.545	21462
850.68	21538
850.815	21526
850.95	21564
851.085	21705
851.22	21698
851.355	21568
851.49	21545
851.625	21519
851.76	21439
851.895	21443
852.03	21450
852.165	21424
852.299	21458
852.434	21614
852.569	21606
852.703	21458
852.838	21485
852.973	21671
853.107	21587
853.242	21367
853.376	21287
853.511	21165
853.645	21291
853.78	21428
853.914	21351
854.048	21207
854.183	21298
854.317	21443
854.451	21599
854.585	21370
854.72	21393
854.854	21458
854.988	21431
855.122	21294
855.256	21222
855.39	21370
855.524	21443
855.658	21439
855.792	21272
855.926	21466
856.06	21450
856.194	21466
856.327	21332
856.461	21218
856.595	21313
856.729	21393
856.862	21496
856.996	21447
857.13	21367
857.263	21439
857.397	21435
857.53	21340
857.664	21344
857.797	21412
857.931	21454
858.064	21431
858.197	21481
858.331	21268
858.464	21317
858.597	21211
858.731	21298
858.864	21367
858.997	21313
859.13	21420
859.263	21378
859.396	21389
859.529	21363
859.662	21325
859.795	21329
859.928	21450
860.061	21443
860.194	21549
860.327	21439
860.46	21389
860.592	21542
860.725	21610
860.858	21538
860.99	21325
861.123	21249
861.256	21306
861.388	21252
861.521	22017
861.653	21226
861.786	21165
861.918	21298
862.05	21135
862.183	21287
862.315	21317
862.447	21401
862.58	21165
862.712	21211
862.844	21100
862.976	21256
863.108	21230
863.24	21576
863.372	21085
863.504	21096
863.636	21165
863.768	21116
863.9	21154
864.032	20918
864.164	21116
864.296	21039
864.428	21188
864.559	21123
864.691	21116
864.823	21058
864.954	21055
865.086	21020
865.217	20944
865.349	20921
865.48	21074
865.612	20948
865.743	21173
865.875	21089
866.006	20956
866.137	21032
866.269	20960
866.4	20960
866.531	20967
866.662	20910
866.793	20861
866.924	20906
867.055	20937
867.186	21001
867.317	20941
867.448	20815
867.579	20785
867.71	20785
867.841	20880
867.972	20986
868.103	20910
868.233	20864
868.364	20914
868.495	21104
868.625	21161
868.756	21340
868.886	21070
869.017	21207
869.147	21192
869.278	21298
869.408	21188
869.539	21096
869.669	21249
869.799	21184
869.929	21291
870.06	21275
870.19	21496
870.32	21530
870.45	21557
870.58	21603
870.71	21743
870.84	21542
870.97	21526
871.1	21542
871.23	21759
871.36	21698
871.489	21561
871.619	21789
871.749	21838
871.879	21800
872.008	21876
872.138	21823
872.267	21656
872.397	21629
872.526	21526
872.656	21614
872.785	21713
872.915	21755
873.044	21831
873.173	21663
873.303	21701
873.432	21728
873.561	21953
873.69	21842
873.819	21797
873.948	21766
874.077	21766
874.206	21831
874.335	21694
874.464	21949
874.593	22010
874.722	22128
874.851	21899
874.979	21949
875.108	22173
875.237	21960
875.365	21911
875.494	21975
875.623	22135
875.751	22036
875.88	22036
876.008	22090
876.136	22310
876.265	22390
876.393	22421
876.521	22481
876.65	22493
876.778	22417
876.906	22428
877.034	22265
877.162	22344
877.29	22413
877.418	22284
877.546	22341
877.674	22344
877.802	22424
877.93	22375
878.058	22314
878.185	22188
878.313	22314
878.441	22173
878.568	22276
878.696	22310
878.824	22329
878.951	22508
879.079	22542
879.206	22721
879.333	22466
879.461	22341
879.588	22478
879.715	22592
879.842	22557
879.97	22344
880.097	22090
880.224	22093
880.351	22029
880.478	22261
880.605	22242
880.732	22086
880.859	22421
880.986	22226
881.112	22131
881.239	22013
881.366	22006
881.493	21930
881.619	21838
881.746	21766
881.872	21713
881.999	21599
882.125	21629
882.252	21762
882.378	21869
882.505	21781
882.631	21698
882.757	21473
882.883	21492
883.01	21412
883.136	21458
883.262	21355
883.388	21336
883.514	21454
883.64	21511
883.766	21298
883.892	21192
884.018	21249
884.143	21203
884.269	21416
884.395	21176
884.52	21028
884.646	21100
884.772	21047
884.897	20891
885.023	20933
885.148	21180
885.274	21294
885.399	21230
885.524	21184
885.65	21161
885.775	21055
885.9	21081
886.025	21203
886.15	21184
886.275	20979
886.4	20948
886.525	21089
886.65	20937
886.775	20880
886.9	21157
887.025	21340
887.149	21077
887.274	20815
887.399	20872
887.523	20769
887.648	20796
887.773	20762
887.897	20948
888.021	20845
888.146	20819
888.27	20971
888.395	21013
888.519	20834
888.643	20842
888.767	20712
888.891	20754
889.015	20708
889.139	20594
889.263	20716
889.387	20693
889.511	20853
889.635	20762
889.759	20625
889.883	20720
890.006	20568
890.13	20659
890.254	20667
890.377	20514
890.501	20408
890.624	20423
890.748	20465
890.871	20286
890.995	20119
891.118	20077
891.241	20286
891.364	20172
891.488	20442
891.611	20252
891.734	20248
891.857	20233
891.98	20130
892.103	20301
892.226	20202
892.349	20218
892.471	20054
892.594	20218
892.717	20126
892.839	20214
892.962	20164
893.085	20229
893.207	20115
893.33	20012
893.452	19993
893.575	20172
893.697	20077
893.819	20256
893.941	20320
894.064	20088
894.186	20191
894.308	20092
894.43	20134
894.552	20176
894.674	20100
894.796	20027
894.918	20100
895.04	20069
895.161	20202
895.283	20176
895.405	20180
895.526	20027
895.648	20069
895.769	20134
895.891	20043
896.012	20206
896.134	20218
896.255	20161
896.376	19993
896.498	20187
896.619	20218
896.74	20176
896.861	20122
896.982	20427
897.103	20541
897.224	20332
897.345	20336
897.466	20320
897.587	20393
897.708	20374
897.828	20313
897.949	20248
898.07	20221
898.19	20298
898.311	20358
898.431	20244
898.552	20355
898.672	20396
898.792	20415
898.913	20476
899.033	20187
899.153	20218
899.273	19970
899.393	20012
899.513	20134
899.633	20008
899.753	20020
899.873	20050
899.993	20100
900.113	20065
900.232	20024
900.352	20046
900.472	20122
900.591	19814
900.711	19818
900.83	19830
900.95	19970
901.069	20058
901.189	19803
901.308	19613
901.427	19499
901.546	19438
901.665	19441
901.784	19422
901.904	19282
902.023	19251
902.141	19015
902.26	19053
902.379	19103
902.498	19015
902.617	18962
902.735	19019
902.854	18973
902.973	18882
903.091	18677
903.21	18601
903.328	18661
903.446	18506
903.565	18471
903.683	18631
903.801	18384
903.919	18441
904.038	18338
904.156	18167
904.274	18353
904.392	18102
904.51	18209
904.627	18167
904.745	18239
904.863	18247
904.981	18057
905.098	17855
905.216	17901
905.334	17851
905.451	17897
905.569	17870
905.686	17931
905.803	17760
905.921	17722
906.038	17756
906.155	17676
906.272	17493
906.389	17516
906.506	17326
906.623	17448
906.74	17425
906.857	17395
906.974	17318
907.091	17452
907.208	17436
907.324	17356
907.441	17345
907.557	17178
907.674	17109
907.79	17136
907.907	17090
908.023	17181
908.139	17204
908.256	17143
908.372	17018
908.488	16976
908.604	16957
908.72	16915
908.836	16892
908.952	16805
909.068	16866
909.184	16942
909.3	16755
909.415	16831
909.531	16771
909.647	16558
909.762	16504
909.878	16443
909.993	16558
910.108	16531
910.224	16485
910.339	16626
910.454	16375
910.57	16287
910.685	16265
910.8	16607
910.915	16493
911.03	16303
911.145	16238
911.259	16116
911.374	16219
911.489	16135
911.604	16059
911.718	15869
911.833	15983
911.947	15793
912.062	15701
912.176	15823
912.291	15838
912.405	15778
912.519	16055
912.633	15945
912.748	15888
912.862	15774
912.976	15720
913.09	15564
913.204	15755
913.318	15671
913.431	15804
913.545	15819
913.659	15759
913.772	15679
913.886	15545
914	15542
914.113	15667
914.226	15732
914.34	15557
914.453	15359
914.566	15572
914.68	15469
914.793	15420
914.906	15279
915.019	15256
915.132	15055
915.245	15097
915.358	15135
915.47	15119
915.583	15138
915.696	15123
915.809	15188
915.921	15249
916.034	15070
916.146	14956
916.259	14967
916.371	15020
916.483	15028
916.595	14956
916.708	15017
916.82	14883
916.932	14960
917.044	14883
917.156	14811
917.268	14777
917.38	14834
917.491	14815
917.603	14883
917.715	14838
917.826	14864
917.938	14693
918.049	14602
918.161	14727
918.272	14883
918.384	14746
918.495	14621
918.606	14499
918.717	14488
918.828	14514
918.939	14610
919.05	14396
919.161	14480
919.272	14362
919.383	14271
919.494	14522
919.604	14773
919.715	14495
919.826	14480
919.936	14507
920.047	14602
920.157	14469
920.267	14727
920.378	14514
920.488	14530
920.598	14606
920.708	14830
920.818	14598
920.928	14667
921.038	14826
921.148	14724
921.258	14454
921.368	14298
921.477	14259
921.587	14187
921.697	14153
921.806	14263
921.916	14115
922.025	13925
922.134	13830
922.244	13807
922.353	13879
922.462	13723
922.571	13696
922.68	13578
922.789	13525
922.898	13556
923.007	13449
923.116	13480
923.224	13453
923.333	13491
923.442	13350
923.55	13365
923.659	13392
923.767	13365
923.876	13274
923.984	13308
924.092	13266
924.201	13289
924.309	13308
924.417	13141
924.525	13187
924.633	13209
924.741	13986
924.849	12958
924.956	13141
925.064	12993
925.172	12916
925.279	12738
925.387	12913
925.494	12882
925.602	13008
925.709	12916
925.816	12779
925.924	12806
926.031	12882
926.138	12878
926.245	12985
926.352	12658
926.459	12890
926.566	12954
926.673	12745
926.779	12722
926.886	12738
926.993	12582
927.099	12498
927.206	12445
927.312	12391
927.419	12437
927.525	12452
927.631	12445
927.737	12384
927.843	12376
927.95	12201
928.056	12327
928.162	12365
928.267	12270
928.373	13019
928.479	12407
928.585	12243
928.69	12163
928.796	12323
928.901	12224
929.007	12114
929.112	12190
929.218	12114
929.323	12148
929.428	12079
929.533	12186
929.638	12007
929.743	12053
929.848	12053
929.953	11946
930.058	11901
930.163	11771
930.267	11794
930.372	11885
930.477	11737
930.581	11843
930.685	11767
930.79	11638
930.894	11691
930.998	11520
931.103	11828
931.207	11425
931.311	11356
931.415	11239
931.519	11029
931.623	11025
