Data from test_V78500241_2914.txt Node
Date: Fri Mar 25 15:30:09 CST 2022
User: usil
Spectrometer: V785-0024
Trigger mode: 0
Integration Time (sec): 4.000000E-1
Scans to average: 1
Nonlinearity correction enabled: false
Boxcar width: 0
Storing dark spectrum: false
XAxis mode: Wavelengths
Number of Pixels in Spectrum: 1024
>>>>>Begin Spectral Data<<<<<
801.071	27268
801.214	27192
801.356	26914
801.499	26880
801.641	26705
801.783	26796
801.926	26743
802.068	26743
802.211	26735
802.353	26659
802.496	26404
802.638	26442
802.78	26568
802.923	26404
803.065	26301
803.208	26149
803.35	26393
803.492	26545
803.635	26484
803.777	26518
803.919	26556
804.061	26895
804.204	26617
804.346	26514
804.488	26488
804.63	26571
804.773	26488
804.915	26705
805.057	26602
805.199	26594
805.341	26537
805.483	26655
805.626	26549
805.768	26609
805.91	26720
806.052	26621
806.194	26594
806.336	26785
806.478	26800
806.62	26533
806.762	26853
806.904	27036
807.046	27222
807.188	27104
807.33	27005
807.472	27119
807.614	26921
807.756	27039
807.898	27039
808.04	26845
808.182	26880
808.324	26880
808.465	27039
808.607	27169
808.749	27412
808.891	27313
809.033	27485
809.174	27408
809.316	27294
809.458	27096
809.6	27222
809.741	27424
809.883	27275
810.025	27504
810.166	27591
810.308	27542
810.45	27397
810.591	27389
810.733	27485
810.875	27211
811.016	27157
811.158	27188
811.299	27450
811.441	27382
811.582	27401
811.724	27245
811.865	27252
812.007	27298
812.148	27233
812.29	27359
812.431	27294
812.573	27519
812.714	27641
812.855	27633
812.997	27804
813.138	27937
813.279	27972
813.421	27793
813.562	27561
813.703	27572
813.845	27519
813.986	27211
814.127	27024
814.268	26933
814.41	26891
814.551	26853
814.692	26861
814.833	26849
814.974	26876
815.115	26914
815.256	26697
815.397	26834
815.539	26785
815.68	26625
815.821	26651
815.962	26765
816.103	26625
816.244	26560
816.385	26499
816.526	26480
816.666	26225
816.807	26172
816.948	26332
817.089	26305
817.23	26240
817.371	26176
817.512	26294
817.653	26187
817.793	26161
817.934	26187
818.075	26206
818.216	26225
818.356	26145
818.497	26077
818.638	26008
818.778	25986
818.919	25921
819.06	26050
819.2	26054
819.341	26191
819.481	26187
819.622	26240
819.762	26514
819.903	26518
820.043	26278
820.184	26248
820.324	26320
820.465	26427
820.605	26305
820.746	26263
820.886	25986
821.026	26256
821.167	26256
821.307	26244
821.447	26073
821.588	25982
821.728	25966
821.868	25906
822.008	25685
822.149	25567
822.289	25468
822.429	25438
822.569	25324
822.709	25434
822.849	25198
822.99	25156
823.13	25103
823.27	25027
823.41	25031
823.55	24909
823.69	24954
823.83	24981
823.97	24882
824.11	24738
824.25	24673
824.389	24669
824.529	24913
824.669	24814
824.809	24764
824.949	24749
825.089	24863
825.228	24753
825.368	24593
825.508	24532
825.648	24688
825.787	24669
825.927	24757
826.067	24418
826.206	24566
826.346	24719
826.485	24707
826.625	24612
826.765	24833
826.904	24696
827.044	24475
827.183	24418
827.323	24384
827.462	24369
827.601	24426
827.741	24391
827.88	24243
828.02	24213
828.159	24380
828.298	24311
828.437	24289
828.577	24220
828.716	24433
828.855	24148
828.994	24011
829.134	24072
829.273	24133
829.412	24129
829.551	23885
829.69	24053
829.829	24171
829.968	24030
830.107	24114
830.246	24041
830.385	23977
830.524	23882
830.663	23855
830.802	23885
830.941	23589
831.08	23653
831.219	23741
831.357	23767
831.496	23878
831.635	23634
831.774	23615
831.913	23512
832.051	23341
832.19	23334
832.329	23452
832.467	23364
832.606	23204
832.744	23303
832.883	23223
833.022	23299
833.16	23265
833.299	23452
833.437	23337
833.576	23410
833.714	23383
833.852	23459
833.991	23330
834.129	23448
834.267	23440
834.406	23376
834.544	23474
834.682	23410
834.821	23391
834.959	23547
835.097	23372
835.235	23433
835.373	23391
835.511	23364
835.65	23337
835.788	23307
835.926	23288
836.064	23064
836.202	23159
836.34	23185
836.478	23258
836.615	23197
836.753	23204
836.891	23341
837.029	23280
837.167	23090
837.305	23105
837.443	23132
837.58	23037
837.718	23185
837.856	23170
837.993	22927
838.131	22976
838.269	22927
838.406	22980
838.544	22904
838.681	22683
838.819	22664
838.956	22573
839.094	22531
839.231	22573
839.369	22710
839.506	22968
839.643	22809
839.781	22493
839.918	22508
840.055	22474
840.193	22432
840.33	22432
840.467	22512
840.604	22565
840.742	22706
840.879	22291
841.016	22367
841.153	22143
841.29	22519
841.427	22382
841.564	22470
841.701	22325
841.838	22500
841.975	22318
842.112	22344
842.249	22341
842.385	22367
842.522	22390
842.659	22291
842.796	22150
842.933	22261
843.069	22139
843.206	22040
843.343	22310
843.479	22223
843.616	22181
843.752	22021
843.889	21964
844.025	22200
844.162	21835
844.298	22139
844.435	21888
844.571	21945
844.708	22021
844.844	22059
844.98	22253
845.117	22006
845.253	21800
845.389	21915
845.525	21800
845.661	21751
845.798	21675
845.934	21694
846.07	21861
846.206	21660
846.342	21842
846.478	21713
846.614	21576
846.75	21325
846.886	21466
847.022	21477
847.158	21454
847.294	21431
847.429	21511
847.565	21473
847.701	21660
847.837	21127
847.972	21131
848.108	21211
848.244	21329
848.379	21093
848.515	20925
848.65	21062
848.786	21119
848.921	21032
849.057	21195
849.192	21203
849.328	20998
849.463	20998
849.598	20952
849.734	20887
849.869	20830
850.004	20834
850.14	20815
850.275	20902
850.41	20651
850.545	20876
850.68	20887
850.815	20937
850.95	20845
851.085	20941
851.22	21051
851.355	20876
851.49	20895
851.625	20887
851.76	20701
851.895	20857
852.03	20743
852.165	20804
852.299	20857
852.434	20906
852.569	20785
852.703	20746
852.838	20864
852.973	20929
853.107	20998
853.242	20773
853.376	20667
853.511	20438
853.645	20495
853.78	20823
853.914	20644
854.048	20590
854.183	20769
854.317	20724
854.451	20979
854.585	20629
854.72	20583
854.854	20746
854.988	20602
855.122	20598
855.256	20511
855.39	20450
855.524	20712
855.658	20712
855.792	20701
855.926	20670
856.06	20648
856.194	20861
856.327	20651
856.461	20564
856.595	20526
856.729	20526
856.862	20659
856.996	20739
857.13	20670
857.263	20739
857.397	20708
857.53	20632
857.664	20667
857.797	20625
857.931	20762
858.064	20724
858.197	20834
858.331	20667
858.464	20419
858.597	20469
858.731	20590
858.864	20552
858.997	20629
859.13	20674
859.263	20484
859.396	20689
859.529	20541
859.662	20587
859.795	20476
859.928	20689
860.061	20906
860.194	20929
860.327	20655
860.46	20583
860.592	20648
860.725	20872
860.858	20682
860.99	20617
861.123	20648
861.256	20533
861.388	20708
861.521	21222
861.653	20514
861.786	20385
861.918	20465
862.05	20503
862.183	20499
862.315	20571
862.447	20530
862.58	20625
862.712	20263
862.844	20301
862.976	20438
863.108	20332
863.24	20830
863.372	20385
863.504	20358
863.636	20240
863.768	20457
863.9	20305
864.032	20248
864.164	20122
864.296	20404
864.428	20518
864.559	20434
864.691	20465
864.823	20358
864.954	20419
865.086	20282
865.217	20256
865.349	20122
865.48	20278
865.612	20240
865.743	20320
865.875	20389
866.006	20202
866.137	20305
866.269	20374
866.4	20256
866.531	20050
866.662	20164
866.793	20229
866.924	20145
867.055	20157
867.186	20233
867.317	20259
867.448	20153
867.579	20229
867.71	20183
867.841	20107
867.972	20168
868.103	20248
868.233	20138
868.364	20214
868.495	20332
868.625	20393
868.756	20507
868.886	20336
869.017	20431
869.147	20476
869.278	20499
869.408	20507
869.539	20377
869.669	20549
869.799	20549
869.929	20518
870.06	20587
870.19	20743
870.32	20750
870.45	20769
870.58	20765
870.71	20975
870.84	20918
870.97	20792
871.1	20868
871.23	21112
871.36	21013
871.489	20986
871.619	20963
871.749	20998
871.879	21055
872.008	21131
872.138	21017
872.267	21062
872.397	20967
872.526	20941
872.656	20952
872.785	20876
872.915	21150
873.044	21150
873.173	21055
873.303	21218
873.432	21100
873.561	21146
873.69	21089
873.819	21051
873.948	21176
874.077	21028
874.206	21001
874.335	21112
874.464	21218
874.593	21283
874.722	21146
874.851	21302
874.979	21348
875.108	21291
875.237	21264
875.365	21241
875.494	21256
875.623	21264
875.751	21188
875.88	21355
876.008	21443
876.136	21591
876.265	21629
876.393	21941
876.521	21789
876.65	21808
876.778	21751
876.906	21587
877.034	21587
877.162	21618
877.29	21568
877.418	21686
877.546	21694
877.674	21747
877.802	21698
877.93	21633
878.058	21633
878.185	21450
878.313	21633
878.441	21682
878.568	21424
878.696	21511
878.824	21641
878.951	21622
879.079	21816
879.206	22025
879.333	21743
879.461	21641
879.588	21778
879.715	21774
879.842	21953
879.97	21694
880.097	21370
880.224	21355
880.351	21572
880.478	21519
880.605	21397
880.732	21401
880.859	21667
880.986	21488
881.112	21458
881.239	21302
881.366	21272
881.493	21154
881.619	21051
881.746	21127
881.872	21195
881.999	20994
882.125	20982
882.252	21184
882.378	21066
882.505	21146
882.631	20990
882.757	20819
882.883	20937
883.01	20800
883.136	20663
883.262	20682
883.388	20590
883.514	20769
883.64	20773
883.766	20697
883.892	20476
884.018	20537
884.143	20682
884.269	20788
884.395	20522
884.52	20438
884.646	20408
884.772	20317
884.897	20301
885.023	20495
885.148	20571
885.274	20533
885.399	20522
885.524	20370
885.65	20427
885.775	20438
885.9	20442
886.025	20465
886.15	20484
886.275	20339
886.4	20298
886.525	20438
886.65	20400
886.775	20362
886.9	20537
887.025	20583
887.149	20271
887.274	20145
887.399	20145
887.523	20229
887.648	20084
887.773	20081
887.897	20366
888.021	20259
888.146	20259
888.27	20202
888.395	20419
888.519	20214
888.643	20142
888.767	20214
888.891	20100
889.015	19974
889.139	20081
889.263	20077
889.387	19936
889.511	20138
889.635	20039
889.759	19974
889.883	19963
890.006	20039
890.13	20134
890.254	19894
890.377	20001
890.501	19833
890.624	19772
890.748	19776
890.871	19757
890.995	19552
891.118	19453
891.241	19525
891.364	19544
891.488	19738
891.611	19613
891.734	19605
891.857	19643
891.98	19578
892.103	19666
892.226	19616
892.349	19567
892.471	19232
892.594	19563
892.717	19518
892.839	19415
892.962	19491
893.085	19540
893.207	19472
893.33	19422
893.452	19365
893.575	19529
893.697	19438
893.819	19727
893.941	19677
894.064	19643
894.186	19529
894.308	19491
894.43	19613
894.552	19529
894.674	19502
894.796	19388
894.918	19434
895.04	19369
895.161	19483
895.283	19540
895.405	19415
895.526	19537
895.648	19499
895.769	19658
895.891	19449
896.012	19613
896.134	19556
896.255	19567
896.376	19403
896.498	19537
896.619	19605
896.74	19514
896.861	19518
896.982	19864
897.103	19925
897.224	19784
897.345	19894
897.466	19567
897.587	19738
897.708	19830
897.828	19795
897.949	19658
898.07	19499
898.19	19689
898.311	19902
898.431	19677
898.552	19746
898.672	19753
898.792	19700
898.913	19723
899.033	19681
899.153	19571
899.273	19419
899.393	19540
899.513	19590
899.633	19514
899.753	19533
899.873	19457
899.993	19586
900.113	19438
900.232	19525
900.352	19537
900.472	19438
900.591	19171
900.711	19308
900.83	19236
900.95	19259
901.069	19441
901.189	19213
901.308	18916
901.427	18848
901.546	18867
901.665	18958
901.784	18814
901.904	18787
902.023	18650
902.141	18525
902.26	18441
902.379	18498
902.498	18357
902.617	18464
902.735	18426
902.854	18437
902.973	18342
903.091	17954
903.21	18072
903.328	18049
903.446	17988
903.565	17916
903.683	17855
903.801	17668
903.919	17824
904.038	17863
904.156	17668
904.274	17764
904.392	17547
904.51	17676
904.627	17767
904.745	17668
904.863	17665
904.981	17497
905.098	17280
905.216	17288
905.334	17337
905.451	17341
905.569	17220
905.686	17292
905.803	17307
905.921	16987
906.038	17231
906.155	17064
906.272	16995
906.389	17109
906.506	16911
906.623	16961
906.74	16896
906.857	16934
906.974	16763
907.091	16915
907.208	17025
907.324	16850
907.441	16710
907.557	16580
907.674	16577
907.79	16527
907.907	16546
908.023	16615
908.139	16637
908.256	16531
908.372	16421
908.488	16489
908.604	16299
908.72	16348
908.836	16348
908.952	16261
909.068	16265
909.184	16394
909.3	16405
909.415	16352
909.531	16299
909.647	16105
909.762	16128
909.878	15991
909.993	16048
910.108	15956
910.224	15922
910.339	15975
910.454	15991
910.57	15797
910.685	15759
910.8	16021
910.915	15991
911.03	15694
911.145	15629
911.259	15644
911.374	15625
911.489	15618
911.604	15580
911.718	15344
911.833	15428
911.947	15313
912.062	15310
912.176	15431
912.291	15466
912.405	15428
912.519	15656
912.633	15492
912.748	15344
912.862	15386
912.976	15233
913.09	15055
913.204	15203
913.318	15188
913.431	15287
913.545	15325
913.659	15211
913.772	15081
913.886	15131
914	15074
914.113	15070
914.226	15123
914.34	15055
914.453	14971
914.566	14986
914.68	14899
914.793	14921
914.906	14701
915.019	14606
915.132	14617
915.245	14602
915.358	14613
915.47	14598
915.583	14606
915.696	14632
915.809	14701
915.921	14785
916.034	14545
916.146	14564
916.259	14545
916.371	14598
916.483	14552
916.595	14484
916.708	14522
916.82	14514
916.932	14396
917.044	14427
917.156	14473
917.268	14355
917.38	14355
917.491	14294
917.603	14396
917.715	14370
917.826	14412
917.938	14244
918.049	14081
918.161	14225
918.272	14282
918.384	14404
918.495	14199
918.606	14081
918.717	14050
918.828	14115
918.939	14035
919.05	14008
919.161	14073
919.272	13799
919.383	13925
919.494	14103
919.604	14206
919.715	14031
919.826	13909
919.936	14005
920.047	14046
920.157	13963
920.267	14164
920.378	13974
920.488	13947
920.598	14271
920.708	14336
920.818	14202
920.928	14191
921.038	14324
921.148	14332
921.258	13928
921.368	13871
921.477	13871
921.587	13837
921.697	13677
921.806	13811
921.916	13590
922.025	13419
922.134	13449
922.244	13354
922.353	13533
922.462	13354
922.571	13240
922.68	13118
922.789	13088
922.898	13103
923.007	13012
923.116	13107
923.224	13141
923.333	13012
923.442	13015
923.55	12943
923.659	12928
923.767	12985
923.876	12890
923.984	12829
924.092	12810
924.201	12867
924.309	12932
924.417	12787
924.525	12753
924.633	12894
924.741	13674
924.849	12620
924.956	12779
925.064	12566
925.172	12483
925.279	12483
925.387	12566
925.494	12563
925.602	12662
925.709	12635
925.816	12437
925.924	12460
926.031	12547
926.138	12528
926.245	12555
926.352	12391
926.459	12517
926.566	12555
926.673	12448
926.779	12342
926.886	12296
926.993	12175
927.099	12163
927.206	12057
927.312	12060
927.419	12186
927.525	12083
927.631	12224
927.737	12076
927.843	12011
927.95	11851
928.056	12022
928.162	11980
928.267	12095
928.373	12551
928.479	12159
928.585	11908
928.69	11927
928.796	12019
928.901	11775
929.007	11695
929.112	11885
929.218	11786
929.323	11748
929.428	11790
929.533	11802
929.638	11684
929.743	11596
929.848	11680
929.953	11718
930.058	11611
930.163	11444
930.267	11474
930.372	11596
930.477	11296
930.581	11539
930.685	11486
930.79	11326
930.894	11330
930.998	11334
931.103	11395
931.207	11056
931.311	10991
931.415	10919
931.519	10679
931.623	10687
