Data from test_V78500241_1913.txt Node
Date: Fri Mar 25 15:23:10 CST 2022
User: usil
Spectrometer: V785-0024
Trigger mode: 0
Integration Time (sec): 4.000000E-1
Scans to average: 1
Nonlinearity correction enabled: false
Boxcar width: 0
Storing dark spectrum: false
XAxis mode: Wavelengths
Number of Pixels in Spectrum: 1024
>>>>>Begin Spectral Data<<<<<
801.071	27644
801.214	27435
801.356	27389
801.499	27173
801.641	27032
801.783	27123
801.926	26960
802.068	27077
802.211	26982
802.353	27055
802.496	26777
802.638	26743
802.78	26644
802.923	26739
803.065	26571
803.208	26697
803.35	26625
803.492	26849
803.635	27039
803.777	26735
803.919	26933
804.061	27233
804.204	26994
804.346	26811
804.488	26777
804.63	26910
804.773	26720
804.915	26963
805.057	26986
805.199	26762
805.341	26899
805.483	27020
805.626	27017
805.768	26800
805.91	26918
806.052	27077
806.194	26792
806.336	27100
806.478	26952
806.62	26921
806.762	27024
806.904	27275
807.046	27447
807.188	27443
807.33	27287
807.472	27538
807.614	27374
807.756	27279
807.898	27310
808.04	27096
808.182	27089
808.324	27260
808.465	27329
808.607	27431
808.749	27614
808.891	27701
809.033	27804
809.174	27747
809.316	27625
809.458	27663
809.6	27660
809.741	27789
809.883	27732
810.025	27945
810.166	27937
810.308	27793
810.45	27934
810.591	27804
810.733	27667
810.875	27686
811.016	27515
811.158	27431
811.299	27724
811.441	27926
811.582	27724
811.724	27557
811.865	27675
812.007	27614
812.148	27515
812.29	27762
812.431	27797
812.573	27865
812.714	28063
812.855	28207
812.997	28207
813.138	28367
813.279	28291
813.421	28097
813.562	28040
813.703	27937
813.845	27766
813.986	27564
814.127	27401
814.268	27332
814.41	27351
814.551	27268
814.692	27462
814.833	27268
814.974	27249
815.115	27336
815.256	27104
815.397	27249
815.539	27058
815.68	27188
815.821	27020
815.962	27154
816.103	26914
816.244	27032
816.385	26868
816.526	26899
816.666	26629
816.807	26587
816.948	26678
817.089	26651
817.23	26598
817.371	26609
817.512	26556
817.653	26564
817.793	26492
817.934	26655
818.075	26590
818.216	26609
818.356	26438
818.497	26526
818.638	26290
818.778	26202
818.919	26389
819.06	26408
819.2	26476
819.341	26590
819.481	26457
819.622	26724
819.762	26914
819.903	26807
820.043	26663
820.184	26724
820.324	26613
820.465	26769
820.605	26739
820.746	26579
820.886	26545
821.026	26739
821.167	26632
821.307	26659
821.447	26693
821.588	26377
821.728	26309
821.868	26161
822.008	25970
822.149	26062
822.289	26039
822.429	25803
822.569	25784
822.709	25700
822.849	25662
822.99	25643
823.13	25518
823.27	25658
823.41	25479
823.55	25369
823.69	25388
823.83	25388
823.97	25365
824.11	25156
824.25	25156
824.389	25194
824.529	25255
824.669	25175
824.809	25202
824.949	25384
825.089	25476
825.228	25236
825.368	24977
825.508	25061
825.648	25156
825.787	25080
825.927	25110
826.067	25004
826.206	24989
826.346	25244
826.485	25107
826.625	24981
826.765	25152
826.904	25190
827.044	24825
827.183	24856
827.323	24875
827.462	24897
827.601	24924
827.741	24669
827.88	24783
828.02	24673
828.159	24703
828.298	24749
828.437	24913
828.577	24935
828.716	24814
828.855	24665
828.994	24498
829.134	24414
829.273	24604
829.412	24467
829.551	24441
829.69	24448
829.829	24513
829.968	24536
830.107	24589
830.246	24544
830.385	24376
830.524	24353
830.663	24254
830.802	24186
830.941	24129
831.08	24144
831.219	24213
831.357	24163
831.496	24403
831.635	24053
831.774	24076
831.913	23855
832.051	23969
832.19	23961
832.329	23999
832.467	23798
832.606	23729
832.744	23649
832.883	23790
833.022	23802
833.16	23851
833.299	23794
833.437	23703
833.576	23794
833.714	23794
833.852	23855
833.991	23950
834.129	23863
834.267	23878
834.406	23798
834.544	23916
834.682	23946
834.821	23889
834.959	23988
835.097	23817
835.235	23916
835.373	23897
835.511	23832
835.65	23767
835.788	23638
835.926	23657
836.064	23547
836.202	23570
836.34	23718
836.478	23775
836.615	23615
836.753	23627
836.891	23764
837.029	23718
837.167	23653
837.305	23649
837.443	23566
837.58	23604
837.718	23600
837.856	23615
837.993	23471
838.131	23543
838.269	23410
838.406	23482
838.544	23326
838.681	23204
838.819	23170
838.956	23124
839.094	23018
839.231	22972
839.369	23124
839.506	23421
839.643	23299
839.781	22949
839.918	22976
840.055	22995
840.193	22858
840.33	22919
840.467	22843
840.604	22911
840.742	23200
840.879	22862
841.016	22881
841.153	22843
841.29	23022
841.427	22816
841.564	22995
841.701	22866
841.838	22881
841.975	22797
842.112	22927
842.249	22930
842.385	22725
842.522	22850
842.659	22687
842.796	22599
842.933	22672
843.069	22717
843.206	22588
843.343	22679
843.479	22778
843.616	22702
843.752	22474
843.889	22554
844.025	22580
844.162	22363
844.298	22550
844.435	22485
844.571	22432
844.708	22512
844.844	22596
844.98	22626
845.117	22550
845.253	22428
845.389	22360
845.525	22329
845.661	22443
845.798	22276
845.934	22318
846.07	22226
846.206	22268
846.342	22291
846.478	22188
846.614	22059
846.75	21888
846.886	21880
847.022	22051
847.158	22063
847.294	21964
847.429	22021
847.565	21907
847.701	22192
847.837	21633
847.972	21698
848.108	21835
848.244	21766
848.379	21641
848.515	21485
848.65	21557
848.786	21561
848.921	21610
849.057	21557
849.192	21618
849.328	21614
849.463	21504
849.598	21462
849.734	21382
849.869	21363
850.004	21306
850.14	21332
850.275	21363
850.41	21180
850.545	21298
850.68	21218
850.815	21317
850.95	21256
851.085	21485
851.22	21526
851.355	21336
851.49	21306
851.625	21310
851.76	21268
851.895	21169
852.03	21176
852.165	21173
852.299	21230
852.434	21291
852.569	21321
852.703	21176
852.838	21389
852.973	21447
853.107	21370
853.242	21222
853.376	21112
853.511	21062
853.645	21036
853.78	21226
853.914	21184
854.048	21070
854.183	21032
854.317	21275
854.451	21256
854.585	21077
854.72	21093
854.854	21279
854.988	21032
855.122	21055
855.256	20975
855.39	21066
855.524	21180
855.658	21062
855.792	21188
855.926	21150
856.06	21233
856.194	21230
856.327	21104
856.461	21085
856.595	20925
856.729	21138
856.862	21260
856.996	21104
857.13	21237
857.263	21348
857.397	21195
857.53	21077
857.664	21207
857.797	21199
857.931	21203
858.064	21127
858.197	21313
858.331	21051
858.464	21051
858.597	21074
858.731	21032
858.864	21184
858.997	21032
859.13	21138
859.263	21203
859.396	21287
859.529	20998
859.662	21112
859.795	21051
859.928	21104
860.061	21272
860.194	21420
860.327	21154
860.46	21226
860.592	21226
860.725	21226
860.858	21218
860.99	21214
861.123	21055
861.256	21017
861.388	21142
861.521	21675
861.653	21009
861.786	20819
861.918	20914
862.05	20956
862.183	20998
862.315	21058
862.447	21230
862.58	20956
862.712	20781
862.844	20815
862.976	20963
863.108	20937
863.24	21188
863.372	20815
863.504	20746
863.636	20830
863.768	20849
863.9	20902
864.032	20788
864.164	20731
864.296	20872
864.428	20967
864.559	21024
864.691	20941
864.823	20765
864.954	20834
865.086	20792
865.217	20777
865.349	20697
865.48	20758
865.612	20800
865.743	20758
865.875	20785
866.006	20693
866.137	20708
866.269	20625
866.4	20724
866.531	20640
866.662	20648
866.793	20571
866.924	20556
867.055	20629
867.186	20796
867.317	20678
867.448	20621
867.579	20682
867.71	20556
867.841	20674
867.972	20655
868.103	20678
868.233	20644
868.364	20632
868.495	20804
868.625	20956
868.756	21074
868.886	20891
869.017	20952
869.147	20929
869.278	20990
869.408	20929
869.539	20853
869.669	20975
869.799	20986
869.929	20967
870.06	20956
870.19	21150
870.32	21062
870.45	21389
870.58	21355
870.71	21412
870.84	21420
870.97	21302
871.1	21386
871.23	21591
871.36	21492
871.489	21294
871.619	21431
871.749	21431
871.879	21534
872.008	21519
872.138	21405
872.267	21496
872.397	21332
872.526	21450
872.656	21363
872.785	21374
872.915	21622
873.044	21637
873.173	21542
873.303	21549
873.432	21488
873.561	21534
873.69	21485
873.819	21462
873.948	21690
874.077	21534
874.206	21507
874.335	21511
874.464	21766
874.593	21797
874.722	21759
874.851	21747
874.979	21755
875.108	21793
875.237	21743
875.365	21759
875.494	21781
875.623	21865
875.751	21660
875.88	21831
876.008	21949
876.136	21899
876.265	22036
876.393	22382
876.521	22303
876.65	22211
876.778	22139
876.906	22185
877.034	22090
877.162	22086
877.29	21926
877.418	22226
877.546	22036
877.674	22063
877.802	22067
877.93	22230
878.058	22036
878.185	22029
878.313	21903
878.441	22048
878.568	21899
878.696	22051
878.824	22128
878.951	22303
879.079	22112
879.206	22382
879.333	22356
879.461	22070
879.588	22246
879.715	22291
879.842	22291
879.97	22207
880.097	21907
880.224	22070
880.351	21987
880.478	21876
880.605	21823
880.732	21876
880.859	22192
880.986	21903
881.112	21945
881.239	21774
881.366	21705
881.493	21587
881.619	21439
881.746	21713
881.872	21568
881.999	21428
882.125	21542
882.252	21469
882.378	21504
882.505	21656
882.631	21408
882.757	21249
882.883	21287
883.01	21131
883.136	21199
883.262	21047
883.388	21028
883.514	21165
883.64	21207
883.766	21081
883.892	20982
884.018	20929
884.143	21165
884.269	21279
884.395	20963
884.52	20773
884.646	20857
884.772	20864
884.897	20819
885.023	20891
885.148	20986
885.274	20986
885.399	20887
885.524	20830
885.65	20815
885.775	20880
885.9	20887
886.025	20906
886.15	21017
886.275	20777
886.4	20762
886.525	20880
886.65	20891
886.775	20826
886.9	20914
887.025	20975
887.149	20758
887.274	20632
887.399	20663
887.523	20655
887.648	20537
887.773	20617
887.897	20701
888.021	20636
888.146	20670
888.27	20773
888.395	20693
888.519	20583
888.643	20727
888.767	20682
888.891	20507
889.015	20533
889.139	20617
889.263	20408
889.387	20579
889.511	20587
889.635	20579
889.759	20389
889.883	20377
890.006	20298
890.13	20530
890.254	20225
890.377	20328
890.501	20122
890.624	20180
890.748	20176
890.871	20054
890.995	20054
891.118	19925
891.241	19997
891.364	19967
891.488	20157
891.611	19940
891.734	20073
891.857	20054
891.98	20035
892.103	20084
892.226	20001
892.349	19852
892.471	19845
892.594	19898
892.717	19913
892.839	19928
892.962	19860
893.085	19974
893.207	19947
893.33	19696
893.452	19833
893.575	19947
893.697	19864
893.819	20096
893.941	20138
894.064	20024
894.186	19833
894.308	19814
894.43	19890
894.552	20054
894.674	19921
894.796	19887
894.918	19970
895.04	19947
895.161	19978
895.283	19963
895.405	19746
895.526	19883
895.648	19856
895.769	19864
895.891	19963
896.012	19982
896.134	19917
896.255	19894
896.376	19826
896.498	19928
896.619	19970
896.74	19822
896.861	19928
896.982	20229
897.103	20267
897.224	20195
897.345	20077
897.466	20122
897.587	20077
897.708	20153
897.828	20130
897.949	20138
898.07	19932
898.19	20046
898.311	20153
898.431	20077
898.552	20218
898.672	20244
898.792	20206
898.913	20149
899.033	20050
899.153	19986
899.273	19845
899.393	20005
899.513	19932
899.633	19997
899.753	19951
899.873	19750
899.993	19925
900.113	19811
900.232	19811
900.352	19894
900.472	19655
900.591	19556
900.711	19651
900.83	19540
900.95	19772
901.069	19761
901.189	19552
901.308	19369
901.427	19206
901.546	19282
901.665	19266
901.784	19324
901.904	19099
902.023	18897
902.141	18894
902.26	18749
902.379	18840
902.498	18722
902.617	18681
902.735	18757
902.854	18635
902.973	18616
903.091	18559
903.21	18574
903.328	18361
903.446	18281
903.565	18216
903.683	18232
903.801	18098
903.919	18102
904.038	18220
904.156	18148
904.274	18072
904.392	17908
904.51	17950
904.627	17923
904.745	18045
904.863	18022
904.981	17878
905.098	17710
905.216	17634
905.334	17642
905.451	17668
905.569	17562
905.686	17623
905.803	17600
905.921	17497
906.038	17615
906.155	17524
906.272	17372
906.389	17501
906.506	17204
906.623	17128
906.74	17269
906.857	17041
906.974	17193
907.091	17220
907.208	17341
907.324	17223
907.441	17162
907.557	16976
907.674	16961
907.79	16885
907.907	16980
908.023	16953
908.139	16934
908.256	16896
908.372	16752
908.488	16820
908.604	16596
908.72	16645
908.836	16710
908.952	16611
909.068	16615
909.184	16675
909.3	16656
909.415	16683
909.531	16641
909.647	16398
909.762	16447
909.878	16295
909.993	16303
910.108	16287
910.224	16356
910.339	16424
910.454	16211
910.57	16086
910.685	16150
910.8	16352
910.915	16314
911.03	16219
911.145	15888
911.259	15945
911.374	16010
911.489	15907
911.604	15781
911.718	15648
911.833	15751
911.947	15595
912.062	15485
912.176	15660
912.291	15675
912.405	15739
912.519	15865
912.633	15880
912.748	15694
912.862	15568
912.976	15572
913.09	15496
913.204	15584
913.318	15530
913.431	15637
913.545	15576
913.659	15599
913.772	15435
913.886	15363
914	15291
914.113	15443
914.226	15492
914.34	15431
914.453	15199
914.566	15279
914.68	15218
914.793	15214
914.906	15039
915.019	15051
915.132	14804
915.245	14921
915.358	15036
915.47	14944
915.583	14910
915.696	14883
915.809	15032
915.921	15036
916.034	14906
916.146	14899
916.259	14864
916.371	14967
916.483	14857
916.595	14933
916.708	14750
916.82	14743
916.932	14598
917.044	14773
917.156	14682
917.268	14625
917.38	14678
917.491	14621
917.603	14640
917.715	14689
917.826	14613
917.938	14575
918.049	14446
918.161	14545
918.272	14701
918.384	14644
918.495	14492
918.606	14412
918.717	14221
918.828	14450
918.939	14298
919.05	14309
919.161	14305
919.272	14164
919.383	14263
919.494	14366
919.604	14492
919.715	14400
919.826	14210
919.936	14271
920.047	14495
920.157	14370
920.267	14438
920.378	14309
920.488	14374
920.598	14454
920.708	14663
920.818	14480
920.928	14537
921.038	14579
921.148	14579
921.258	14294
921.368	14195
921.477	14107
921.587	14016
921.697	13940
921.806	14050
921.916	13887
922.025	13742
922.134	13715
922.244	13696
922.353	13803
922.462	13518
922.571	13601
922.68	13438
922.789	13350
922.898	13457
923.007	13331
923.116	13441
923.224	13335
923.333	13293
923.442	13225
923.55	13141
923.659	13194
923.767	13293
923.876	13171
923.984	13270
924.092	13114
924.201	13107
924.309	13122
924.417	13065
924.525	12970
924.633	13034
924.741	13887
924.849	12867
924.956	12958
925.064	12772
925.172	12700
925.279	12719
925.387	12802
925.494	12745
925.602	12897
925.709	12810
925.816	12696
925.924	12707
926.031	12829
926.138	12802
926.245	12757
926.352	12646
926.459	12772
926.566	12878
926.673	12665
926.779	12525
926.886	12502
926.993	12365
927.099	12338
927.206	12319
927.312	12304
927.419	12445
927.525	12330
927.631	12361
927.737	12205
927.843	12239
927.95	12125
928.056	12258
928.162	12175
928.267	12258
928.373	12669
928.479	12235
928.585	11999
928.69	12102
928.796	12190
928.901	12049
929.007	11923
929.112	12057
929.218	12003
929.323	11927
929.428	11931
929.533	12064
929.638	11824
929.743	11897
929.848	11878
929.953	11832
930.058	11726
930.163	11604
930.267	11665
930.372	11733
930.477	11581
930.581	11707
930.685	11604
930.79	11532
930.894	11539
930.998	11474
931.103	11661
931.207	11242
931.311	11151
931.415	11037
931.519	10862
931.623	10869
