Data from test_V78500241_203.txt Node
Date: Fri Mar 25 15:11:16 CST 2022
User: usil
Spectrometer: V785-0024
Trigger mode: 0
Integration Time (sec): 4.000000E-1
Scans to average: 1
Nonlinearity correction enabled: false
Boxcar width: 0
Storing dark spectrum: false
XAxis mode: Wavelengths
Number of Pixels in Spectrum: 1024
>>>>>Begin Spectral Data<<<<<
801.071	27800
801.214	27709
801.356	27534
801.499	27378
801.641	27378
801.783	27427
801.926	27386
802.068	27291
802.211	27298
802.353	27165
802.496	27039
802.638	27043
802.78	26971
802.923	26906
803.065	26960
803.208	26887
803.35	27032
803.492	27093
803.635	27085
803.777	26834
803.919	27142
804.061	27386
804.204	27104
804.346	26986
804.488	26929
804.63	27085
804.773	26880
804.915	26785
805.057	27108
805.199	27043
805.341	27127
805.483	27043
805.626	27009
805.768	27001
805.91	27100
806.052	27135
806.194	27119
806.336	27462
806.478	27074
806.62	27150
806.762	27348
806.904	27298
807.046	27591
807.188	27393
807.33	27519
807.472	27488
807.614	27397
807.756	27416
807.898	27348
808.04	27317
808.182	27332
808.324	27313
808.465	27340
808.607	27622
808.749	27587
808.891	27770
809.033	27808
809.174	27808
809.316	27762
809.458	27781
809.6	27724
809.741	27827
809.883	27804
810.025	27918
810.166	27884
810.308	27911
810.45	27808
810.591	27732
810.733	27557
810.875	27679
811.016	27576
811.158	27496
811.299	27682
811.441	27835
811.582	27823
811.724	27606
811.865	27698
812.007	27557
812.148	27618
812.29	27720
812.431	27778
812.573	27953
812.714	28059
812.855	27922
812.997	28120
813.138	28265
813.279	28223
813.421	28109
813.562	28177
813.703	27903
813.845	27717
813.986	27526
814.127	27374
814.268	27321
814.41	27233
814.551	27211
814.692	27272
814.833	27138
814.974	27199
815.115	27249
815.256	27070
815.397	27104
815.539	27077
815.68	27020
815.821	26967
815.962	27081
816.103	26979
816.244	26899
816.385	26777
816.526	26785
816.666	26530
816.807	26408
816.948	26552
817.089	26598
817.23	26419
817.371	26423
817.512	26389
817.653	26362
817.793	26492
817.934	26355
818.075	26450
818.216	26347
818.356	26404
818.497	26278
818.638	26195
818.778	26073
818.919	26195
819.06	26225
819.2	26225
819.341	26317
819.481	26225
819.622	26400
819.762	26735
819.903	26636
820.043	26484
820.184	26393
820.324	26450
820.465	26640
820.605	26457
820.746	26412
820.886	26286
821.026	26347
821.167	26324
821.307	26503
821.447	26282
821.588	26362
821.728	26176
821.868	25970
822.008	25818
822.149	25875
822.289	25811
822.429	25544
822.569	25373
822.709	25491
822.849	25297
822.99	25304
823.13	25312
823.27	25190
823.41	25080
823.55	24973
823.69	25065
823.83	25023
823.97	24966
824.11	24890
824.25	24992
824.389	24920
824.529	25004
824.669	24871
824.809	24894
824.949	25069
825.089	24970
825.228	24970
825.368	24654
825.508	24867
825.648	24684
825.787	24722
825.927	24753
826.067	24551
826.206	24745
826.346	24665
826.485	24738
826.625	24604
826.765	24768
826.904	24719
827.044	24601
827.183	24456
827.323	24422
827.462	24448
827.601	24448
827.741	24308
827.88	24433
828.02	24414
828.159	24391
828.298	24311
828.437	24380
828.577	24292
828.716	24391
828.855	24342
828.994	24125
829.134	24182
829.273	24197
829.412	24030
829.551	23954
829.69	24186
829.829	24011
829.968	24125
830.107	24273
830.246	24053
830.385	23996
830.524	23912
830.663	23912
830.802	23863
830.941	23638
831.08	23467
831.219	23847
831.357	23733
831.496	23771
831.635	23760
831.774	23528
831.913	23478
832.051	23490
832.19	23482
832.329	23471
832.467	23315
832.606	23303
832.744	23261
832.883	23318
833.022	23288
833.16	23387
833.299	23391
833.437	23452
833.576	23402
833.714	23334
833.852	23364
833.991	23372
834.129	23345
834.267	23448
834.406	23353
834.544	23368
834.682	23296
834.821	23269
834.959	23421
835.097	23216
835.235	23337
835.373	23322
835.511	23528
835.65	23178
835.788	23242
835.926	23052
836.064	22946
836.202	23105
836.34	23151
836.478	23265
836.615	23200
836.753	23216
836.891	23178
837.029	23223
837.167	23079
837.305	23151
837.443	23003
837.58	23003
837.718	23025
837.856	22999
837.993	22942
838.131	22934
838.269	22866
838.406	22999
838.544	22850
838.681	22577
838.819	22733
838.956	22497
839.094	22440
839.231	22405
839.369	22561
839.506	22774
839.643	22653
839.781	22455
839.918	22356
840.055	22557
840.193	22371
840.33	22356
840.467	22424
840.604	22569
840.742	22630
840.879	22257
841.016	22291
841.153	22303
841.29	22550
841.427	22234
841.564	22375
841.701	22276
841.838	22306
841.975	22173
842.112	22394
842.249	22135
842.385	22101
842.522	22299
842.659	22249
842.796	22090
842.933	22112
843.069	22051
843.206	22063
843.343	21975
843.479	21991
843.616	22105
843.752	21804
843.889	21979
844.025	21945
844.162	21778
844.298	21819
844.435	21918
844.571	21736
844.708	21964
844.844	22093
844.98	22063
845.117	21994
845.253	21838
845.389	21629
845.525	21747
845.661	21698
845.798	21515
845.934	21633
846.07	21656
846.206	21622
846.342	21736
846.478	21561
846.614	21431
846.75	21321
846.886	21321
847.022	21344
847.158	21492
847.294	21348
847.429	21382
847.565	21192
847.701	21542
847.837	21032
847.972	21020
848.108	21157
848.244	21161
848.379	20994
848.515	20891
848.65	20868
848.786	20876
848.921	20864
849.057	20971
849.192	21005
849.328	20944
849.463	20811
849.598	20804
849.734	20750
849.869	20735
850.004	20746
850.14	20655
850.275	20587
850.41	20594
850.545	20568
850.68	20473
850.815	20602
850.95	20708
851.085	20678
851.22	20667
851.355	20552
851.49	20564
851.625	20644
851.76	20594
851.895	20488
852.03	20457
852.165	20511
852.299	20571
852.434	20720
852.569	20545
852.703	20537
852.838	20606
852.973	20720
853.107	20845
853.242	20499
853.376	20389
853.511	20355
853.645	20278
853.78	20598
853.914	20503
854.048	20450
854.183	20389
854.317	20476
854.451	20682
854.585	20495
854.72	20488
854.854	20495
854.988	20351
855.122	20393
855.256	20309
855.39	20473
855.524	20511
855.658	20461
855.792	20545
855.926	20434
856.06	20454
856.194	20442
856.327	20385
856.461	20282
856.595	20343
856.729	20400
856.862	20480
856.996	20465
857.13	20488
857.263	20579
857.397	20400
857.53	20347
857.664	20465
857.797	20613
857.931	20670
858.064	20431
858.197	20537
858.331	20366
858.464	20336
858.597	20317
858.731	20248
858.864	20396
858.997	20404
859.13	20396
859.263	20339
859.396	20385
859.529	20271
859.662	20328
859.795	20313
859.928	20282
860.061	20575
860.194	20514
860.327	20408
860.46	20393
860.592	20518
860.725	20575
860.858	20541
860.99	20366
861.123	20328
861.256	20271
861.388	20419
861.521	21207
861.653	20290
861.786	20183
861.918	20317
862.05	20271
862.183	20404
862.315	20320
862.447	20507
862.58	20385
862.712	20134
862.844	20027
862.976	20191
863.108	20199
863.24	20617
863.372	20081
863.504	20180
863.636	20046
863.768	20134
863.9	20199
864.032	19944
864.164	20035
864.296	20058
864.428	20077
864.559	20229
864.691	20195
864.823	20130
864.954	20073
865.086	20035
865.217	20035
865.349	19982
865.48	19997
865.612	20020
865.743	20084
865.875	19940
866.006	20024
866.137	20024
866.269	20020
866.4	19970
866.531	19940
866.662	20005
866.793	19955
866.924	19894
867.055	19963
867.186	19967
867.317	19826
867.448	19795
867.579	19955
867.71	19742
867.841	19890
867.972	19947
868.103	19913
868.233	19928
868.364	19898
868.495	20012
868.625	20244
868.756	20290
868.886	20092
869.017	20229
869.147	20233
869.278	20168
869.408	20206
869.539	20130
869.669	20343
869.799	20221
869.929	20366
870.06	20351
870.19	20530
870.32	20594
870.45	20545
870.58	20632
870.71	20724
870.84	20617
870.97	20503
871.1	20609
871.23	20758
871.36	20636
871.489	20663
871.619	20693
871.749	20765
871.879	20807
872.008	20815
872.138	20674
872.267	20720
872.397	20667
872.526	20590
872.656	20571
872.785	20571
872.915	20746
873.044	20853
873.173	20674
873.303	20750
873.432	20838
873.561	20887
873.69	20739
873.819	20826
873.948	20883
874.077	20701
874.206	20781
874.335	20701
874.464	20807
874.593	21024
874.722	21028
874.851	21036
874.979	21017
875.108	21218
875.237	21020
875.365	20956
875.494	20998
875.623	21188
875.751	21074
875.88	21093
876.008	21287
876.136	21291
876.265	21572
876.393	21580
876.521	21515
876.65	21431
876.778	21321
876.906	21382
877.034	21378
877.162	21329
877.29	21279
877.418	21405
877.546	21458
877.674	21397
877.802	21340
877.93	21443
878.058	21344
878.185	21302
878.313	21348
878.441	21279
878.568	21233
878.696	21302
878.824	21454
878.951	21435
879.079	21549
879.206	21652
879.333	21553
879.461	21397
879.588	21408
879.715	21599
879.842	21606
879.97	21336
880.097	21176
880.224	21176
880.351	21230
880.478	21287
880.605	21176
880.732	21260
880.859	21370
880.986	21199
881.112	21226
881.239	21036
881.366	21009
881.493	20929
881.619	20842
881.746	20792
881.872	20807
881.999	20781
882.125	20708
882.252	20895
882.378	20735
882.505	20883
882.631	20701
882.757	20571
882.883	20575
883.01	20480
883.136	20450
883.262	20370
883.388	20469
883.514	20575
883.64	20663
883.766	20503
883.892	20339
884.018	20366
884.143	20530
884.269	20549
884.395	20256
884.52	20290
884.646	20202
884.772	20119
884.897	20107
885.023	20202
885.148	20396
885.274	20332
885.399	20336
885.524	20103
885.65	20145
885.775	20210
885.9	20183
886.025	20317
886.15	20347
886.275	20237
886.4	20020
886.525	20225
886.65	20206
886.775	20180
886.9	20275
887.025	20358
887.149	20069
887.274	20008
887.399	19967
887.523	19917
887.648	19898
887.773	20020
887.897	19940
888.021	20012
888.146	19917
888.27	19909
888.395	20065
888.519	19989
888.643	19982
888.767	19925
888.891	19852
889.015	19761
889.139	19811
889.263	19772
889.387	19852
889.511	20001
889.635	19845
889.759	19704
889.883	19761
890.006	19738
890.13	20016
890.254	19658
890.377	19742
890.501	19529
890.624	19419
890.748	19422
890.871	19301
890.995	19403
891.118	19320
891.241	19373
891.364	19430
891.488	19472
891.611	19384
891.734	19324
891.857	19350
891.98	19285
892.103	19354
892.226	19377
892.349	19293
892.471	19164
892.594	19289
892.717	19350
892.839	19270
892.962	19388
893.085	19297
893.207	19202
893.33	19152
893.452	19122
893.575	19407
893.697	19274
893.819	19327
893.941	19457
894.064	19426
894.186	19187
894.308	19232
894.43	19346
894.552	19487
894.674	19384
894.796	19175
894.918	19209
895.04	19346
895.161	19259
895.283	19335
895.405	19274
895.526	19293
895.648	19407
895.769	19236
895.891	19240
896.012	19415
896.134	19308
896.255	19373
896.376	19263
896.498	19324
896.619	19327
896.74	19369
896.861	19430
896.982	19700
897.103	19841
897.224	19723
897.345	19563
897.466	19476
897.587	19575
897.708	19666
897.828	19514
897.949	19537
898.07	19422
898.19	19559
898.311	19700
898.431	19499
898.552	19601
898.672	19544
898.792	19628
898.913	19396
899.033	19377
899.153	19403
899.273	19209
899.393	19278
899.513	19289
899.633	19251
899.753	19282
899.873	19240
899.993	19362
900.113	19225
900.232	19320
900.352	19213
900.472	19137
900.591	18882
900.711	19148
900.83	19065
900.95	19129
901.069	19175
901.189	19008
901.308	18787
901.427	18681
901.546	18719
901.665	18734
901.784	18734
901.904	18479
902.023	18357
902.141	18300
902.26	18289
902.379	18239
902.498	18114
902.617	18186
902.735	18117
902.854	18129
902.973	17939
903.091	17927
903.21	17817
903.328	17813
903.446	17687
903.565	17703
903.683	17623
903.801	17638
903.919	17634
904.038	17615
904.156	17440
904.274	17600
904.392	17448
904.51	17459
904.627	17303
904.745	17471
904.863	17417
904.981	17315
905.098	17204
905.216	17121
905.334	17162
905.451	17105
905.569	17037
905.686	17216
905.803	17079
905.921	16885
906.038	17025
906.155	16919
906.272	16805
906.389	16850
906.506	16649
906.623	16653
906.74	16588
906.857	16519
906.974	16508
907.091	16702
907.208	16717
907.324	16725
907.441	16558
907.557	16436
907.674	16379
907.79	16379
907.907	16242
908.023	16382
908.139	16276
908.256	16207
908.372	16291
908.488	16147
908.604	16078
908.72	15991
908.836	16169
908.952	16025
909.068	16139
909.184	16112
909.3	16067
909.415	15983
909.531	15869
909.647	15854
909.762	15671
909.878	15717
909.993	15663
910.108	15656
910.224	15698
910.339	15831
910.454	15622
910.57	15515
910.685	15519
910.8	15671
910.915	15728
911.03	15625
911.145	15393
911.259	15393
911.374	15241
911.489	15260
911.604	15180
911.718	15108
911.833	15081
911.947	15024
912.062	14899
912.176	15051
912.291	15074
912.405	14960
912.519	15199
912.633	15207
912.748	15081
912.862	15070
912.976	14887
913.09	14792
913.204	14902
913.318	14937
913.431	15032
913.545	14925
913.659	14956
913.772	14758
913.886	14800
914	14670
914.113	14769
914.226	14804
914.34	14781
914.453	14568
914.566	14857
914.68	14598
914.793	14610
914.906	14442
915.019	14366
915.132	14393
915.245	14328
915.358	14415
915.47	14332
915.583	14465
915.696	14408
915.809	14434
915.921	14457
916.034	14244
916.146	14214
916.259	14271
916.371	14332
916.483	14278
916.595	14191
916.708	14206
916.82	14180
916.932	14176
917.044	14225
917.156	14111
917.268	13974
917.38	14077
917.491	14016
917.603	14084
917.715	14138
917.826	14100
917.938	13947
918.049	13940
918.161	14005
918.272	14031
918.384	14111
918.495	13986
918.606	13826
918.717	13776
918.828	13993
918.939	13902
919.05	13731
919.161	13715
919.272	13624
919.383	13753
919.494	13822
919.604	14035
919.715	13750
919.826	13708
919.936	13753
920.047	13818
920.157	13746
920.267	13940
920.378	13830
920.488	13742
920.598	13875
920.708	14039
920.818	13947
920.928	13890
921.038	14024
921.148	13989
921.258	13795
921.368	13601
921.477	13578
921.587	13480
921.697	13403
921.806	13533
921.916	13415
922.025	13278
922.134	13251
922.244	13088
922.353	13175
922.462	13046
922.571	13057
922.68	12840
922.789	12757
922.898	12833
923.007	12753
923.116	12779
923.224	12833
923.333	12894
923.442	12665
923.55	12639
923.659	12662
923.767	12726
923.876	12604
923.984	12753
924.092	12547
924.201	12593
924.309	12532
924.417	12642
924.525	12532
924.633	12593
924.741	13259
924.849	12300
924.956	12395
925.064	12372
925.172	12319
925.279	12277
925.387	12228
925.494	12220
925.602	12422
925.709	12376
925.816	12155
925.924	12129
926.031	12292
926.138	12224
926.245	12224
926.352	12095
926.459	12289
926.566	12209
926.673	12106
926.779	12133
926.886	11996
926.993	11855
927.099	11874
927.206	11821
927.312	11908
927.419	11843
927.525	11866
927.631	11855
927.737	11684
927.843	11726
927.95	11570
928.056	11623
928.162	11699
928.267	11748
928.373	12353
928.479	11840
928.585	11497
928.69	11707
928.796	11760
928.901	11554
929.007	11383
929.112	11581
929.218	11486
929.323	11459
929.428	11429
929.533	11551
929.638	11326
929.743	11474
929.848	11414
929.953	11455
930.058	11353
930.163	11155
930.267	11166
930.372	11280
930.477	11071
930.581	11315
930.685	11204
930.79	11075
930.894	11029
930.998	11071
931.103	11121
931.207	10733
931.311	10725
931.415	10554
931.519	10417
931.623	10386
