Data from test_V78500241_717.txt Node
Date: Fri Mar 25 15:14:51 CST 2022
User: usil
Spectrometer: V785-0024
Trigger mode: 0
Integration Time (sec): 4.000000E-1
Scans to average: 1
Nonlinearity correction enabled: false
Boxcar width: 0
Storing dark spectrum: false
XAxis mode: Wavelengths
Number of Pixels in Spectrum: 1024
>>>>>Begin Spectral Data<<<<<
801.071	28040
801.214	27934
801.356	27876
801.499	27663
801.641	27408
801.783	27781
801.926	27625
802.068	27576
802.211	27370
802.353	27374
802.496	27180
802.638	27180
802.78	27283
802.923	27241
803.065	27157
803.208	27180
803.35	27207
803.492	27233
803.635	27408
803.777	27218
803.919	27348
804.061	27682
804.204	27481
804.346	27313
804.488	27332
804.63	27370
804.773	27287
804.915	27545
805.057	27523
805.199	27325
805.341	27618
805.483	27523
805.626	27618
805.768	27424
805.91	27717
806.052	27637
806.194	27568
806.336	27652
806.478	27553
806.62	27542
806.762	27724
806.904	27736
807.046	28051
807.188	27884
807.33	27956
807.472	27949
807.614	27797
807.756	27831
807.898	27968
808.04	27850
808.182	27819
808.324	27812
808.465	27869
808.607	28120
808.749	28249
808.891	28265
809.033	28234
809.174	28303
809.316	28306
809.458	28257
809.6	28154
809.741	28379
809.883	28489
810.025	28398
810.166	28459
810.308	28466
810.45	28478
810.591	28455
810.733	28090
810.875	28139
811.016	28135
811.158	28074
811.299	28325
811.441	28500
811.582	28356
811.724	28192
811.865	28215
812.007	28200
812.148	28249
812.29	28109
812.431	28470
812.573	28618
812.714	28710
812.855	28911
812.997	28812
813.138	28976
813.279	29025
813.421	28759
813.562	28820
813.703	28744
813.845	28554
813.986	28257
814.127	28090
814.268	27994
814.41	27914
814.551	27869
814.692	27994
814.833	27937
814.974	27873
815.115	27861
815.256	27827
815.397	27831
815.539	27861
815.68	27884
815.821	27641
815.962	27701
816.103	27736
816.244	27641
816.385	27599
816.526	27488
816.666	27405
816.807	27169
816.948	27332
817.089	27389
817.23	27325
817.371	27211
817.512	27062
817.653	27264
817.793	27119
817.934	27226
818.075	27264
818.216	27188
818.356	27211
818.497	27070
818.638	27055
818.778	26963
818.919	27058
819.06	27154
819.2	27154
819.341	27089
819.481	27173
819.622	27291
819.762	27530
819.903	27447
820.043	27458
820.184	27389
820.324	27336
820.465	27348
820.605	27466
820.746	27272
820.886	27192
821.026	27237
821.167	27351
821.307	27382
821.447	27268
821.588	27138
821.728	26940
821.868	26845
822.008	26708
822.149	26743
822.289	26648
822.429	26408
822.569	26393
822.709	26484
822.849	26138
822.99	26157
823.13	26199
823.27	26237
823.41	26172
823.55	25902
823.69	26020
823.83	25894
823.97	26062
824.11	25769
824.25	25738
824.389	25807
824.529	25913
824.669	25814
824.809	26031
824.949	25989
825.089	25921
825.228	25856
825.368	25742
825.508	25693
825.648	25712
825.787	25643
825.927	25818
826.067	25727
826.206	25799
826.346	25715
826.485	25704
826.625	25700
826.765	25727
826.904	25856
827.044	25426
827.183	25594
827.323	25346
827.462	25499
827.601	25476
827.741	25453
827.88	25400
828.02	25247
828.159	25396
828.298	25453
828.437	25426
828.577	25327
828.716	25533
828.855	25304
828.994	25194
829.134	25114
829.273	25031
829.412	25156
829.551	24981
829.69	25126
829.829	25061
829.968	25129
830.107	25209
830.246	25076
830.385	25069
830.524	24916
830.663	24829
830.802	24859
830.941	24825
831.08	24715
831.219	24867
831.357	24673
831.496	24844
831.635	24688
831.774	24696
831.913	24654
832.051	24498
832.19	24521
832.329	24544
832.467	24452
832.606	24407
832.744	24426
832.883	24369
833.022	24372
833.16	24464
833.299	24551
833.437	24464
833.576	24452
833.714	24452
833.852	24429
833.991	24604
834.129	24528
834.267	24635
834.406	24502
834.544	24441
834.682	24426
834.821	24532
834.959	24814
835.097	24418
835.235	24566
835.373	24566
835.511	24505
835.65	24384
835.788	24391
835.926	24178
836.064	24057
836.202	24178
836.34	24338
836.478	24437
836.615	24289
836.753	24277
836.891	24338
837.029	24380
837.167	24369
837.305	24342
837.443	24167
837.58	24007
837.718	24296
837.856	24064
837.993	24057
838.131	24159
838.269	24026
838.406	24018
838.544	23889
838.681	23847
838.819	23741
838.956	23638
839.094	23653
839.231	23745
839.369	23802
839.506	23958
839.643	23821
839.781	23649
839.918	23581
840.055	23684
840.193	23566
840.33	23577
840.467	23471
840.604	23592
840.742	23699
840.879	23376
841.016	23387
841.153	23471
841.29	23699
841.427	23433
841.564	23505
841.701	23634
841.838	23414
841.975	23493
842.112	23425
842.249	23296
842.385	23239
842.522	23490
842.659	23360
842.796	23269
842.933	23372
843.069	23151
843.206	23208
843.343	23299
843.479	23296
843.616	23277
843.752	23052
843.889	23083
844.025	23162
844.162	23052
844.298	23147
844.435	23075
844.571	23132
844.708	23067
844.844	23250
844.98	23170
845.117	23181
845.253	23071
845.389	22877
845.525	23041
845.661	22946
845.798	22729
845.934	22915
846.07	22702
846.206	22976
846.342	22923
846.478	22816
846.614	22698
846.75	22470
846.886	22462
847.022	22542
847.158	22440
847.294	22573
847.429	22603
847.565	22550
847.701	22748
847.837	22306
847.972	22238
848.108	22322
848.244	22409
848.379	22147
848.515	22242
848.65	22105
848.786	22101
848.921	22139
849.057	22299
849.192	22253
849.328	22154
849.463	22109
849.598	22059
849.734	21949
849.869	21979
850.004	21949
850.14	21876
850.275	21956
850.41	21819
850.545	21835
850.68	21937
850.815	21945
850.95	21930
851.085	22188
851.22	22086
851.355	21785
851.49	21983
851.625	21808
851.76	21835
851.895	21694
852.03	21842
852.165	21964
852.299	21949
852.434	21987
852.569	21892
852.703	21915
852.838	22063
852.973	22097
853.107	22025
853.242	21861
853.376	21728
853.511	21618
853.645	21652
853.78	21880
853.914	21739
854.048	21785
854.183	21652
854.317	21819
854.451	21850
854.585	21850
854.72	21709
854.854	21873
854.988	21701
855.122	21728
855.256	21656
855.39	21629
855.524	21717
855.658	21755
855.792	21812
855.926	21720
856.06	21778
856.194	21842
856.327	21736
856.461	21603
856.595	21629
856.729	21717
856.862	21778
856.996	21686
857.13	21797
857.263	21842
857.397	21804
857.53	21720
857.664	21717
857.797	21846
857.931	21892
858.064	21694
858.197	21751
858.331	21728
858.464	21679
858.597	21572
858.731	21606
858.864	21793
858.997	21724
859.13	21713
859.263	21625
859.396	21823
859.529	21705
859.662	21625
859.795	21622
859.928	21884
860.061	21846
860.194	21945
860.327	21720
860.46	21686
860.592	21804
860.725	21854
860.858	21793
860.99	21686
861.123	21637
861.256	21644
861.388	21637
861.521	22382
861.653	21591
861.786	21477
861.918	21690
862.05	21629
862.183	21606
862.315	21606
862.447	21701
862.58	21599
862.712	21363
862.844	21397
862.976	21412
863.108	21382
863.24	21854
863.372	21298
863.504	21370
863.636	21332
863.768	21397
863.9	21348
864.032	21367
864.164	21241
864.296	21458
864.428	21534
864.559	21583
864.691	21454
864.823	21374
864.954	21355
865.086	21363
865.217	21367
865.349	21203
865.48	21405
865.612	21310
865.743	21424
865.875	21313
866.006	21214
866.137	21264
866.269	21317
866.4	21169
866.531	21260
866.662	21203
866.793	21230
866.924	21363
867.055	21294
867.186	21245
867.317	21298
867.448	21074
867.579	21351
867.71	21154
867.841	21203
867.972	21256
868.103	21116
868.233	21245
868.364	21260
868.495	21272
868.625	21359
868.756	21633
868.886	21291
869.017	21443
869.147	21618
869.278	21534
869.408	21458
869.539	21469
869.669	21523
869.799	21526
869.929	21629
870.06	21656
870.19	21793
870.32	21698
870.45	21876
870.58	21785
870.71	21972
870.84	22025
870.97	21934
871.1	21884
871.23	22010
871.36	22055
871.489	21937
871.619	22002
871.749	22032
871.879	22154
872.008	22192
872.138	22124
872.267	22154
872.397	21884
872.526	21915
872.656	21743
872.785	21892
872.915	22048
873.044	22097
873.173	22074
873.303	22166
873.432	22090
873.561	22181
873.69	22078
873.819	22067
873.948	22131
874.077	22029
874.206	22017
874.335	22090
874.464	22093
874.593	22249
874.722	22352
874.851	22382
874.979	22432
875.108	22329
875.237	22249
875.365	22169
875.494	22249
875.623	22356
875.751	22261
875.88	22341
876.008	22390
876.136	22470
876.265	22691
876.393	22820
876.521	22702
876.65	22683
876.778	22660
876.906	22607
877.034	22618
877.162	22816
877.29	22656
877.418	22500
877.546	22653
877.674	22554
877.802	22561
877.93	22569
878.058	22546
878.185	22546
878.313	22713
878.441	22786
878.568	22523
878.696	22668
878.824	22645
878.951	22664
879.079	22729
879.206	22999
879.333	22729
879.461	22660
879.588	22778
879.715	22919
879.842	22885
879.97	22790
880.097	22474
880.224	22402
880.351	22500
880.478	22557
880.605	22344
880.732	22424
880.859	22759
880.986	22481
881.112	22329
881.239	22295
881.366	22204
881.493	22109
881.619	22147
881.746	21979
881.872	22021
881.999	21945
882.125	21865
882.252	21979
882.378	22036
882.505	22006
882.631	21979
882.757	21819
882.883	21797
883.01	21667
883.136	21660
883.262	21694
883.388	21591
883.514	21838
883.64	21770
883.766	21568
883.892	21393
884.018	21633
884.143	21774
884.269	21770
884.395	21363
884.52	21367
884.646	21416
884.772	21214
884.897	21184
885.023	21370
885.148	21458
885.274	21473
885.399	21504
885.524	21310
885.65	21408
885.775	21416
885.9	21374
886.025	21431
886.15	21530
886.275	21279
886.4	21264
886.525	21272
886.65	21294
886.775	21325
886.9	21348
887.025	21557
887.149	21306
887.274	21207
887.399	21077
887.523	21131
887.648	21169
887.773	20986
887.897	21268
888.021	21184
888.146	21085
888.27	21195
888.395	21161
888.519	21264
888.643	21188
888.767	21211
888.891	21001
889.015	20994
889.139	20960
889.263	20853
889.387	20963
889.511	21123
889.635	21127
889.759	20876
889.883	21058
890.006	20952
890.13	21024
890.254	20891
890.377	20872
890.501	20720
890.624	20712
890.748	20670
890.871	20590
890.995	20503
891.118	20385
891.241	20511
891.364	20484
891.488	20571
891.611	20499
891.734	20476
891.857	20568
891.98	20488
892.103	20446
892.226	20503
892.349	20404
892.471	20282
892.594	20446
892.717	20484
892.839	20400
892.962	20377
893.085	20377
893.207	20339
893.33	20320
893.452	20339
893.575	20450
893.697	20229
893.819	20480
893.941	20492
894.064	20465
894.186	20206
894.308	20301
894.43	20450
894.552	20507
894.674	20514
894.796	20393
894.918	20298
895.04	20396
895.161	20450
895.283	20499
895.405	20374
895.526	20465
895.648	20355
895.769	20454
895.891	20495
896.012	20480
896.134	20503
896.255	20290
896.376	20263
896.498	20484
896.619	20434
896.74	20351
896.861	20374
896.982	20765
897.103	20826
897.224	20651
897.345	20609
897.466	20617
897.587	20663
897.708	20731
897.828	20537
897.949	20454
898.07	20309
898.19	20423
898.311	20750
898.431	20609
898.552	20659
898.672	20587
898.792	20724
898.913	20613
899.033	20431
899.153	20393
899.273	20324
899.393	20313
899.513	20332
899.633	20187
899.753	20419
899.873	20301
899.993	20385
900.113	20278
900.232	20286
900.352	20161
900.472	20176
900.591	20172
900.711	20069
900.83	20035
900.95	20206
901.069	20153
901.189	19940
901.308	19761
901.427	19605
901.546	19643
901.665	19651
901.784	19658
901.904	19537
902.023	19529
902.141	19263
902.26	19274
902.379	19240
902.498	19206
902.617	19225
902.735	19263
902.854	19137
902.973	19099
903.091	18844
903.21	18909
903.328	18757
903.446	18749
903.565	18688
903.683	18597
903.801	18612
903.919	18566
904.038	18654
904.156	18502
904.274	18365
904.392	18365
904.51	18429
904.627	18350
904.745	18407
904.863	18445
904.981	18258
905.098	18041
905.216	18220
905.334	18121
905.451	18125
905.569	18121
905.686	18091
905.803	18041
905.921	17832
906.038	17912
906.155	17874
906.272	17828
906.389	17824
906.506	17722
906.623	17718
906.74	17623
906.857	17493
906.974	17512
907.091	17714
907.208	17729
907.324	17684
907.441	17452
907.557	17417
907.674	17376
907.79	17265
907.907	17326
908.023	17345
908.139	17376
908.256	17208
908.372	17132
908.488	17220
908.604	17098
908.72	17003
908.836	17128
908.952	16976
909.068	17136
909.184	17121
909.3	17033
909.415	17151
909.531	17048
909.647	16854
909.762	16721
909.878	16736
909.993	16839
910.108	16721
910.224	16733
910.339	16721
910.454	16618
910.57	16702
910.685	16500
910.8	16790
910.915	16691
911.03	16653
911.145	16386
911.259	16432
911.374	16367
911.489	16234
911.604	16329
911.718	16120
911.833	16204
911.947	16120
912.062	15869
912.176	16131
912.291	16040
912.405	16082
912.519	16310
912.633	16333
912.748	16139
912.862	16090
912.976	15994
913.09	15804
913.204	15903
913.318	15937
913.431	16032
913.545	16078
913.659	15953
913.772	15873
913.886	15717
914	15774
914.113	15857
914.226	15911
914.34	15770
914.453	15625
914.566	15724
914.68	15667
914.793	15606
914.906	15351
915.019	15363
915.132	15351
915.245	15435
915.358	15310
915.47	15325
915.583	15351
915.696	15294
915.809	15462
915.921	15477
916.034	15252
916.146	15237
916.259	15283
916.371	15332
916.483	15313
916.595	15207
916.708	15173
916.82	15123
916.932	15089
917.044	15173
917.156	15066
917.268	14906
917.38	15051
917.491	15039
917.603	14887
917.715	15070
917.826	15135
917.938	14944
918.049	14880
918.161	14910
918.272	15062
918.384	15043
918.495	14963
918.606	14849
918.717	14674
918.828	14701
918.939	14731
919.05	14712
919.161	14701
919.272	14606
919.383	14594
919.494	14739
919.604	14986
919.715	14792
919.826	14629
919.936	14762
920.047	14754
920.157	14712
920.267	14914
920.378	14705
920.488	14697
920.598	14864
920.708	15043
920.818	14857
920.928	14792
921.038	14864
921.148	14956
921.258	14629
921.368	14564
921.477	14442
921.587	14499
921.697	14301
921.806	14480
921.916	14248
922.025	14138
922.134	14149
922.244	13982
922.353	13986
922.462	13963
922.571	13864
922.68	13655
922.789	13731
922.898	13833
923.007	13708
923.116	13769
923.224	13772
923.333	13605
923.442	13613
923.55	13510
923.659	13510
923.767	13510
923.876	13499
923.984	13502
924.092	13460
924.201	13400
924.309	13468
924.417	13453
924.525	13426
924.633	13373
924.741	14084
924.849	13171
924.956	13327
925.064	13088
925.172	13088
925.279	13145
925.387	13179
925.494	13080
925.602	13293
925.709	13137
925.816	12993
925.924	13065
926.031	13107
926.138	13110
926.245	13034
926.352	12970
926.459	13145
926.566	13065
926.673	13038
926.779	12840
926.886	12856
926.993	12700
927.099	12650
927.206	12730
927.312	12627
927.419	12677
927.525	12631
927.631	12684
927.737	12479
927.843	12650
927.95	12429
928.056	12407
928.162	12540
928.267	12582
928.373	13057
928.479	12570
928.585	12414
928.69	12437
928.796	12490
928.901	12357
929.007	12228
929.112	12467
929.218	12304
929.323	12220
929.428	12247
929.533	12369
929.638	12163
929.743	12190
929.848	12247
929.953	12247
930.058	12148
930.163	11897
930.267	11874
930.372	12079
930.477	11836
930.581	12171
930.685	11942
930.79	11927
930.894	11813
930.998	11828
931.103	11889
931.207	11471
931.311	11421
931.415	11444
931.519	11170
931.623	11170
