Data from test_V78500241_3596.txt Node
Date: Fri Mar 25 15:34:53 CST 2022
User: usil
Spectrometer: V785-0024
Trigger mode: 0
Integration Time (sec): 4.000000E-1
Scans to average: 1
Nonlinearity correction enabled: false
Boxcar width: 0
Storing dark spectrum: false
XAxis mode: Wavelengths
Number of Pixels in Spectrum: 1024
>>>>>Begin Spectral Data<<<<<
801.071	27279
801.214	27355
801.356	27093
801.499	26975
801.641	26899
801.783	26899
801.926	26887
802.068	26849
802.211	26830
802.353	26785
802.496	26632
802.638	26374
802.78	26446
802.923	26313
803.065	26358
803.208	26442
803.35	26461
803.492	26636
803.635	26552
803.777	26598
803.919	26762
804.061	26864
804.204	26583
804.346	26609
804.488	26518
804.63	26655
804.773	26518
804.915	26575
805.057	26629
805.199	26533
805.341	26712
805.483	26815
805.626	26667
805.768	26606
805.91	26754
806.052	26819
806.194	26636
806.336	26796
806.478	26800
806.62	26807
806.762	26769
806.904	26986
807.046	27241
807.188	27135
807.33	27036
807.472	27199
807.614	27020
807.756	27074
807.898	26796
808.04	26895
808.182	26948
808.324	26956
808.465	27032
808.607	27291
808.749	27298
808.891	27523
809.033	27530
809.174	27580
809.316	27294
809.458	27336
809.6	27218
809.741	27507
809.883	27469
810.025	27629
810.166	27545
810.308	27561
810.45	27637
810.591	27504
810.733	27435
810.875	27325
811.016	27287
811.158	27325
811.299	27450
811.441	27648
811.582	27523
811.724	27526
811.865	27405
812.007	27302
812.148	27332
812.29	27355
812.431	27542
812.573	27663
812.714	27679
812.855	27827
812.997	27831
813.138	28101
813.279	27907
813.421	27800
813.562	27846
813.703	27717
813.845	27515
813.986	27260
814.127	27062
814.268	27150
814.41	27055
814.551	26979
814.692	27070
814.833	27047
814.974	27017
815.115	27226
815.256	26906
815.397	26906
815.539	26929
815.68	26796
815.821	26735
815.962	26895
816.103	26834
816.244	26674
816.385	26598
816.526	26533
816.666	26278
816.807	26248
816.948	26355
817.089	26423
817.23	26317
817.371	26358
817.512	26374
817.653	26180
817.793	26229
817.934	26240
818.075	26275
818.216	26370
818.356	26336
818.497	26278
818.638	26046
818.778	26096
818.919	26100
819.06	26161
819.2	26164
819.341	26259
819.481	26221
819.622	26450
819.762	26655
819.903	26545
820.043	26469
820.184	26450
820.324	26278
820.465	26503
820.605	26370
820.746	26351
820.886	26225
821.026	26377
821.167	26419
821.307	26278
821.447	26442
821.588	26320
821.728	26092
821.868	25940
822.008	25883
822.149	25818
822.289	25662
822.429	25487
822.569	25472
822.709	25483
822.849	25365
822.99	25324
823.13	25171
823.27	25221
823.41	24996
823.55	24973
823.69	25057
823.83	25114
823.97	25137
824.11	24882
824.25	24894
824.389	24890
824.529	25095
824.669	24913
824.809	25072
824.949	24985
825.089	25004
825.228	24772
825.368	24779
825.508	24768
825.648	24772
825.787	24730
825.927	24871
826.067	24734
826.206	24833
826.346	25034
826.485	24772
826.625	24806
826.765	24996
826.904	24810
827.044	24528
827.183	24597
827.323	24388
827.462	24585
827.601	24498
827.741	24486
827.88	24483
828.02	24369
828.159	24627
828.298	24494
828.437	24601
828.577	24380
828.716	24608
828.855	24388
828.994	24258
829.134	24235
829.273	24182
829.412	24167
829.551	24136
829.69	24220
829.829	24266
829.968	24311
830.107	24251
830.246	24239
830.385	24140
830.524	23996
830.663	23927
830.802	23992
830.941	23863
831.08	23851
831.219	23764
831.357	23912
831.496	23965
831.635	23767
831.774	23687
831.913	23779
832.051	23638
832.19	23520
832.329	23707
832.467	23608
832.606	23429
832.744	23509
832.883	23471
833.022	23452
833.16	23440
833.299	23531
833.437	23436
833.576	23691
833.714	23539
833.852	23570
833.991	23543
834.129	23657
834.267	23710
834.406	23691
834.544	23676
834.682	23592
834.821	23543
834.959	23642
835.097	23440
835.235	23680
835.373	23573
835.511	23482
835.65	23421
835.788	23573
835.926	23273
836.064	23231
836.202	23315
836.34	23406
836.478	23444
836.615	23280
836.753	23463
836.891	23383
837.029	23417
837.167	23410
837.305	23398
837.443	23353
837.58	23231
837.718	23406
837.856	23246
837.993	23254
838.131	23311
838.269	23083
838.406	23250
838.544	23162
838.681	23052
838.819	22854
838.956	22744
839.094	22683
839.231	22850
839.369	22930
839.506	23037
839.643	22953
839.781	22683
839.918	22694
840.055	22656
840.193	22809
840.33	22538
840.467	22729
840.604	22729
840.742	22892
840.879	22630
841.016	22630
841.153	22569
841.29	22835
841.427	22538
841.564	22660
841.701	22664
841.838	22664
841.975	22527
842.112	22634
842.249	22637
842.385	22592
842.522	22702
842.659	22428
842.796	22344
842.933	22287
843.069	22360
843.206	22356
843.343	22569
843.479	22451
843.616	22459
843.752	22405
843.889	22272
844.025	22318
844.162	22135
844.298	22363
844.435	22238
844.571	22173
844.708	22295
844.844	22280
844.98	22299
845.117	22352
845.253	22063
845.389	22070
845.525	21975
845.661	22025
845.798	22006
845.934	22006
846.07	21926
846.206	22109
846.342	22116
846.478	21960
846.614	21713
846.75	21736
846.886	21618
847.022	21816
847.158	21789
847.294	21751
847.429	21686
847.565	21724
847.701	21835
847.837	21481
847.972	21332
848.108	21443
848.244	21348
848.379	21317
848.515	21279
848.65	21294
848.786	21306
848.921	21367
849.057	21367
849.192	21450
849.328	21195
849.463	21291
849.598	21195
849.734	21207
849.869	21142
850.004	21116
850.14	20982
850.275	21100
850.41	21043
850.545	20967
850.68	20975
850.815	21055
850.95	21066
851.085	21222
851.22	21157
851.355	21093
851.49	21081
851.625	21089
851.76	21108
851.895	21058
852.03	20906
852.165	21017
852.299	21055
852.434	21123
852.569	21013
852.703	20952
852.838	21089
852.973	21104
853.107	21070
853.242	20956
853.376	20929
853.511	20716
853.645	20998
853.78	20944
853.914	20944
854.048	20769
854.183	20807
854.317	20853
854.451	21043
854.585	20823
854.72	20823
854.854	20979
854.988	20746
855.122	20994
855.256	20739
855.39	20918
855.524	20956
855.658	20895
855.792	20895
855.926	20975
856.06	20986
856.194	21043
856.327	20777
856.461	20891
856.595	20746
856.729	20880
856.862	20948
856.996	20899
857.13	20994
857.263	21116
857.397	20883
857.53	20960
857.664	20975
857.797	20845
857.931	21066
858.064	20861
858.197	21001
858.331	20941
858.464	20861
858.597	20727
858.731	20960
858.864	20918
858.997	20819
859.13	20906
859.263	20819
859.396	20979
859.529	20883
859.662	20815
859.795	20834
859.928	20944
860.061	21066
860.194	21009
860.327	20849
860.46	20891
860.592	21001
860.725	21138
860.858	20971
860.99	20876
861.123	20777
861.256	20819
861.388	20982
861.521	21553
861.653	20720
861.786	20590
861.918	20754
862.05	20785
862.183	20853
862.315	20864
862.447	20834
862.58	20868
862.712	20746
862.844	20571
862.976	20632
863.108	20651
863.24	20952
863.372	20598
863.504	20564
863.636	20583
863.768	20484
863.9	20575
864.032	20511
864.164	20606
864.296	20568
864.428	20708
864.559	20674
864.691	20823
864.823	20488
864.954	20640
865.086	20575
865.217	20473
865.349	20457
865.48	20446
865.612	20503
865.743	20568
865.875	20457
866.006	20514
866.137	20552
866.269	20526
866.4	20370
866.531	20469
866.662	20343
866.793	20393
866.924	20404
867.055	20541
867.186	20404
867.317	20545
867.448	20355
867.579	20575
867.71	20419
867.841	20267
867.972	20442
868.103	20438
868.233	20446
868.364	20427
868.495	20594
868.625	20697
868.756	20811
868.886	20644
869.017	20629
869.147	20750
869.278	20689
869.408	20571
869.539	20701
869.669	20845
869.799	20663
869.929	20762
870.06	20765
870.19	20967
870.32	20979
870.45	21009
870.58	21077
870.71	21207
870.84	21203
870.97	21112
871.1	21055
871.23	21283
871.36	21192
871.489	21157
871.619	21321
871.749	21298
871.879	21370
872.008	21454
872.138	21268
872.267	21264
872.397	21154
872.526	21104
872.656	21116
872.785	21085
872.915	21382
873.044	21370
873.173	21329
873.303	21313
873.432	21275
873.561	21496
873.69	21382
873.819	21283
873.948	21287
874.077	21344
874.206	21287
874.335	21192
874.464	21481
874.593	21603
874.722	21511
874.851	21549
874.979	21507
875.108	21557
875.237	21401
875.365	21454
875.494	21542
875.623	21641
875.751	21545
875.88	21682
876.008	21660
876.136	21880
876.265	21880
876.393	22059
876.521	21960
876.65	21968
876.778	21895
876.906	22010
877.034	21857
877.162	21819
877.29	21846
877.418	21972
877.546	21907
877.674	21823
877.802	21934
877.93	21892
878.058	21930
878.185	21759
878.313	21865
878.441	21850
878.568	21644
878.696	21781
878.824	21888
878.951	21945
879.079	22032
879.206	22211
879.333	22059
879.461	21873
879.588	22078
879.715	22128
879.842	22272
879.97	22036
880.097	21800
880.224	21637
880.351	21747
880.478	21797
880.605	21751
880.732	21739
880.859	22013
880.986	21762
881.112	21736
881.239	21610
881.366	21447
881.493	21466
881.619	21344
881.746	21374
881.872	21329
881.999	21344
882.125	21306
882.252	21473
882.378	21325
882.505	21389
882.631	21188
882.757	20937
882.883	21089
883.01	21066
883.136	20933
883.262	20960
883.388	20819
883.514	21104
883.64	21085
883.766	20925
883.892	20807
884.018	20830
884.143	20986
884.269	20998
884.395	20796
884.52	20701
884.646	20712
884.772	20674
884.897	20598
885.023	20629
885.148	20796
885.274	20826
885.399	20838
885.524	20659
885.65	20720
885.775	20716
885.9	20655
886.025	20686
886.15	20697
886.275	20689
886.4	20533
886.525	20587
886.65	20571
886.775	20560
886.9	20819
887.025	20941
887.149	20617
887.274	20442
887.399	20351
887.523	20415
887.648	20419
887.773	20317
887.897	20587
888.021	20484
888.146	20332
888.27	20480
888.395	20613
888.519	20374
888.643	20431
888.767	20518
888.891	20324
889.015	20393
889.139	20309
889.263	20221
889.387	20385
889.511	20495
889.635	20423
889.759	20309
889.883	20252
890.006	20282
890.13	20313
890.254	20122
890.377	20187
890.501	20008
890.624	19997
890.748	20050
890.871	19879
890.995	19868
891.118	19742
891.241	19913
891.364	19860
891.488	20012
891.611	19788
891.734	19811
891.857	19814
891.98	19902
892.103	19879
892.226	19887
892.349	19822
892.471	19609
892.594	19837
892.717	19753
892.839	19689
892.962	19757
893.085	19784
893.207	19708
893.33	19655
893.452	19674
893.575	19837
893.697	19776
893.819	19856
893.941	19909
894.064	19913
894.186	19571
894.308	19704
894.43	19822
894.552	19890
894.674	19822
894.796	19731
894.918	19601
895.04	19734
895.161	19791
895.283	19727
895.405	19643
895.526	19639
895.648	19799
895.769	19738
895.891	19788
896.012	19837
896.134	19868
896.255	19677
896.376	19624
896.498	19624
896.619	19715
896.74	19674
896.861	19822
896.982	20058
897.103	20153
897.224	20008
897.345	19909
897.466	19959
897.587	19986
897.708	20195
897.828	20039
897.949	19963
898.07	19845
898.19	19826
898.311	20012
898.431	19868
898.552	19932
898.672	20043
898.792	20111
898.913	20020
899.033	19864
899.153	19788
899.273	19658
899.393	19757
899.513	19795
899.633	19677
899.753	19750
899.873	19742
899.993	19776
900.113	19643
900.232	19635
900.352	19460
900.472	19502
900.591	19605
900.711	19502
900.83	19411
900.95	19521
901.069	19586
901.189	19407
901.308	19206
901.427	19122
901.546	19133
901.665	19152
901.784	19061
901.904	18920
902.023	18859
902.141	18650
902.26	18608
902.379	18734
902.498	18566
902.617	18578
902.735	18749
902.854	18525
902.973	18479
903.091	18296
903.21	18201
903.328	18289
903.446	18213
903.565	17927
903.683	18091
903.801	17927
903.919	18049
904.038	18057
904.156	17893
904.274	17923
904.392	17863
904.51	17821
904.627	17802
904.745	17817
904.863	17958
904.981	17653
905.098	17474
905.216	17524
905.334	17573
905.451	17516
905.569	17539
905.686	17600
905.803	17490
905.921	17322
906.038	17497
906.155	17345
906.272	17254
906.389	17181
906.506	17018
906.623	17178
906.74	17018
906.857	17098
906.974	16869
907.091	17124
907.208	17162
907.324	17075
907.441	16908
907.557	16828
907.674	16782
907.79	16835
907.907	16812
908.023	16904
908.139	16793
908.256	16717
908.372	16691
908.488	16736
908.604	16588
908.72	16554
908.836	16573
908.952	16459
909.068	16538
909.184	16710
909.3	16561
909.415	16538
909.531	16413
909.647	16188
909.762	16242
909.878	16154
909.993	16173
910.108	16276
910.224	16055
910.339	16128
910.454	16067
910.57	16029
910.685	15934
910.8	16348
910.915	16116
911.03	16090
911.145	15865
911.259	15819
911.374	15838
911.489	15762
911.604	15713
911.718	15526
911.833	15603
911.947	15523
912.062	15424
912.176	15675
912.291	15671
912.405	15603
912.519	15728
912.633	15755
912.748	15644
912.862	15580
912.976	15439
913.09	15245
913.204	15382
913.318	15348
913.431	15454
913.545	15492
913.659	15534
913.772	15428
913.886	15275
914	15218
914.113	15218
914.226	15363
914.34	15192
914.453	15112
914.566	15245
914.68	15097
914.793	15066
914.906	14880
915.019	14800
915.132	14727
915.245	14792
915.358	14750
915.47	14857
915.583	14876
915.696	14830
915.809	14815
915.921	14895
916.034	14754
916.146	14765
916.259	14678
916.371	14849
916.483	14777
916.595	14689
916.708	14613
916.82	14701
916.932	14537
917.044	14655
917.156	14571
917.268	14476
917.38	14545
917.491	14381
917.603	14594
917.715	14571
917.826	14560
917.938	14469
918.049	14339
918.161	14454
918.272	14610
918.384	14511
918.495	14408
918.606	14313
918.717	14233
918.828	14210
918.939	14218
919.05	14214
919.161	14218
919.272	14008
919.383	14096
919.494	14237
919.604	14446
919.715	14237
919.826	14111
919.936	14172
920.047	14278
920.157	14206
920.267	14355
920.378	14210
920.488	14164
920.598	14366
920.708	14507
920.818	14412
920.928	14362
921.038	14549
921.148	14446
921.258	14176
921.368	14100
921.477	14043
921.587	13940
921.697	13753
921.806	14005
921.916	13830
922.025	13681
922.134	13662
922.244	13571
922.353	13689
922.462	13563
922.571	13400
922.68	13396
922.789	13259
922.898	13244
923.007	13156
923.116	13228
923.224	13251
923.333	13114
923.442	13179
923.55	13038
923.659	13114
923.767	13213
923.876	12973
923.984	13118
924.092	12985
924.201	12981
924.309	13080
924.417	13076
924.525	12882
924.633	12958
924.741	13898
924.849	12604
924.956	12863
925.064	12726
925.172	12528
925.279	12642
925.387	12665
925.494	12646
925.602	12776
925.709	12684
925.816	12490
925.924	12635
926.031	12673
926.138	12589
926.245	12700
926.352	12585
926.459	12582
926.566	12738
926.673	12555
926.779	12452
926.886	12323
926.993	12296
927.099	12194
927.206	12140
927.312	12140
927.419	12136
927.525	12254
927.631	12292
927.737	12167
927.843	12098
927.95	11977
928.056	12098
928.162	12030
928.267	12136
928.373	12642
928.479	12194
928.585	11958
928.69	12045
928.796	12129
928.901	11965
929.007	11733
929.112	11927
929.218	11992
929.323	11840
929.428	11843
929.533	11874
929.638	11707
929.743	11707
929.848	11882
929.953	11783
930.058	11608
930.163	11486
930.267	11558
930.372	11733
930.477	11490
930.581	11722
930.685	11562
930.79	11372
930.894	11410
930.998	11326
931.103	11577
931.207	11143
931.311	11064
931.415	10946
931.519	10858
931.623	10828
