Data from test_V78500241_2201.txt Node
Date: Fri Mar 25 15:25:11 CST 2022
User: usil
Spectrometer: V785-0024
Trigger mode: 0
Integration Time (sec): 4.000000E-1
Scans to average: 1
Nonlinearity correction enabled: false
Boxcar width: 0
Storing dark spectrum: false
XAxis mode: Wavelengths
Number of Pixels in Spectrum: 1024
>>>>>Begin Spectral Data<<<<<
801.071	27762
801.214	27812
801.356	27633
801.499	27538
801.641	27389
801.783	27329
801.926	27576
802.068	27348
802.211	27283
802.353	27192
802.496	27096
802.638	26940
802.78	27009
802.923	27001
803.065	26887
803.208	26986
803.35	27009
803.492	27024
803.635	27104
803.777	27116
803.919	27321
804.061	27382
804.204	27249
804.346	27272
804.488	27017
804.63	27074
804.773	27112
804.915	27230
805.057	27340
805.199	27116
805.341	27256
805.483	27336
805.626	27336
805.768	27199
805.91	27321
806.052	27382
806.194	27298
806.336	27511
806.478	27363
806.62	27382
806.762	27435
806.904	27500
807.046	27781
807.188	27720
807.33	27660
807.472	27850
807.614	27580
807.756	27724
807.898	27724
808.04	27549
808.182	27641
808.324	27625
808.465	27618
808.607	27831
808.749	27964
808.891	28051
809.033	28048
809.174	28162
809.316	27854
809.458	27979
809.6	28059
809.741	28025
809.883	27918
810.025	28196
810.166	28238
810.308	28257
810.45	28192
810.591	28109
810.733	27846
810.875	27857
811.016	27816
811.158	27918
811.299	27918
811.441	28116
811.582	28036
811.724	27873
811.865	27899
812.007	27819
812.148	27876
812.29	28017
812.431	28109
812.573	28272
812.714	28405
812.855	28687
812.997	28493
813.138	28736
813.279	28752
813.421	28470
813.562	28455
813.703	28211
813.845	28204
813.986	27876
814.127	27736
814.268	27717
814.41	27606
814.551	27648
814.692	27701
814.833	27526
814.974	27679
815.115	27637
815.256	27534
815.397	27454
815.539	27435
815.68	27405
815.821	27389
815.962	27420
816.103	27530
816.244	27306
816.385	27241
816.526	27180
816.666	27009
816.807	26758
816.948	26948
817.089	27051
817.23	26914
817.371	26956
817.512	26952
817.653	26857
817.793	26815
817.934	26998
818.075	26895
818.216	26800
818.356	26868
818.497	26804
818.638	26640
818.778	26644
818.919	26701
819.06	26640
819.2	26708
819.341	26720
819.481	26963
819.622	26979
819.762	27199
819.903	27180
820.043	27047
820.184	27013
820.324	26937
820.465	27100
820.605	27051
820.746	26956
820.886	26853
821.026	26994
821.167	26994
821.307	26990
821.447	26910
821.588	26918
821.728	26609
821.868	26518
822.008	26317
822.149	26450
822.289	26389
822.429	26065
822.569	25936
822.709	26024
822.849	25970
822.99	25811
823.13	25890
823.27	25769
823.41	25837
823.55	25552
823.69	25807
823.83	25772
823.97	25575
824.11	25499
824.25	25556
824.389	25499
824.529	25616
824.669	25445
824.809	25700
824.949	25639
825.089	25620
825.228	25715
825.368	25327
825.508	25449
825.648	25449
825.787	25381
825.927	25430
826.067	25335
826.206	25381
826.346	25369
826.485	25396
826.625	25434
826.765	25438
826.904	25472
827.044	24992
827.183	25255
827.323	25046
827.462	25179
827.601	25110
827.741	25080
827.88	25168
828.02	24848
828.159	25122
828.298	25008
828.437	25042
828.577	24977
828.716	25232
828.855	25088
828.994	24848
829.134	24810
829.273	24856
829.412	24715
829.551	24745
829.69	24700
829.829	24787
829.968	24787
830.107	24795
830.246	24741
830.385	24608
830.524	24646
830.663	24612
830.802	24566
830.941	24498
831.08	24380
831.219	24593
831.357	24388
831.496	24673
831.635	24323
831.774	24369
831.913	24216
832.051	24243
832.19	24060
832.329	24121
832.467	24030
832.606	24015
832.744	23912
832.883	24026
833.022	23942
833.16	24102
833.299	24076
833.437	23977
833.576	24110
833.714	24102
833.852	24117
833.991	24102
834.129	24194
834.267	24228
834.406	24140
834.544	24083
834.682	24182
834.821	24098
834.959	24281
835.097	24053
835.235	24129
835.373	24079
835.511	23973
835.65	23969
835.788	24015
835.926	23863
836.064	23714
836.202	23691
836.34	23920
836.478	23954
836.615	23786
836.753	23923
836.891	24003
837.029	23889
837.167	23847
837.305	23840
837.443	23790
837.58	23817
837.718	23843
837.856	23760
837.993	23570
838.131	23646
838.269	23634
838.406	23733
838.544	23562
838.681	23395
838.819	23455
838.956	23121
839.094	23341
839.231	23303
839.369	23383
839.506	23589
839.643	23429
839.781	23288
839.918	23258
840.055	23239
840.193	23261
840.33	23143
840.467	23181
840.604	23098
840.742	23391
840.879	22877
841.016	22946
841.153	22980
841.29	23231
841.427	23151
841.564	23128
841.701	23105
841.838	23041
841.975	23060
842.112	22999
842.249	22942
842.385	22801
842.522	22980
842.659	22900
842.796	22946
842.933	22953
843.069	22961
843.206	22908
843.343	22961
843.479	22809
843.616	22957
843.752	22752
843.889	22752
844.025	22816
844.162	22588
844.298	22816
844.435	22706
844.571	22580
844.708	22694
844.844	22873
844.98	22839
845.117	22740
845.253	22569
845.389	22489
845.525	22637
845.661	22607
845.798	22322
845.934	22432
846.07	22394
846.206	22474
846.342	22531
846.478	22451
846.614	22253
846.75	22021
846.886	22124
847.022	22226
847.158	22215
847.294	22234
847.429	22272
847.565	21983
847.701	22466
847.837	21888
847.972	21785
848.108	21949
848.244	21892
848.379	21812
848.515	21736
848.65	21663
848.786	21823
848.921	21743
849.057	21789
849.192	21789
849.328	21831
849.463	21778
849.598	21629
849.734	21648
849.869	21633
850.004	21500
850.14	21603
850.275	21545
850.41	21496
850.545	21424
850.68	21405
850.815	21523
850.95	21500
851.085	21682
851.22	21595
851.355	21412
851.49	21534
851.625	21389
851.76	21519
851.895	21378
852.03	21355
852.165	21488
852.299	21511
852.434	21447
852.569	21439
852.703	21523
852.838	21644
852.973	21610
853.107	21671
853.242	21298
853.376	21397
853.511	21291
853.645	21287
853.78	21416
853.914	21264
854.048	21226
854.183	21291
854.317	21279
854.451	21504
854.585	21435
854.72	21374
854.854	21363
854.988	21355
855.122	21317
855.256	21131
855.39	21214
855.524	21408
855.658	21435
855.792	21367
855.926	21226
856.06	21424
856.194	21317
856.327	21317
856.461	21272
856.595	21260
856.729	21294
856.862	21469
856.996	21237
857.13	21302
857.263	21447
857.397	21310
857.53	21374
857.664	21355
857.797	21393
857.931	21367
858.064	21367
858.197	21526
858.331	21260
858.464	21256
858.597	21268
858.731	21332
858.864	21294
858.997	21272
859.13	21332
859.263	21329
859.396	21367
859.529	21275
859.662	21207
859.795	21237
859.928	21329
860.061	21450
860.194	21386
860.327	21408
860.46	21249
860.592	21462
860.725	21454
860.858	21405
860.99	21389
861.123	21268
861.256	21226
861.388	21119
861.521	21930
861.653	21173
861.786	20952
861.918	21184
862.05	21104
862.183	21310
862.315	21241
862.447	21386
862.58	21268
862.712	21013
862.844	21005
862.976	21142
863.108	21123
863.24	21416
863.372	21039
863.504	21047
863.636	21062
863.768	21089
863.9	21039
864.032	20849
864.164	20918
864.296	20986
864.428	21108
864.559	21066
864.691	21020
864.823	21074
864.954	20868
865.086	21013
865.217	21001
865.349	20823
865.48	20971
865.612	20929
865.743	20998
865.875	20883
866.006	20883
866.137	20868
866.269	20982
866.4	20845
866.531	20906
866.662	20864
866.793	20872
866.924	20948
867.055	20758
867.186	20765
867.317	20880
867.448	20758
867.579	20792
867.71	20758
867.841	20819
867.972	21009
868.103	20708
868.233	20861
868.364	20804
868.495	20956
868.625	21085
868.756	21211
868.886	20982
869.017	20921
869.147	21150
869.278	21104
869.408	21104
869.539	21161
869.669	21150
869.799	21104
869.929	21245
870.06	21218
870.19	21477
870.32	21344
870.45	21500
870.58	21435
870.71	21583
870.84	21538
870.97	21348
871.1	21511
871.23	21603
871.36	21549
871.489	21656
871.619	21675
871.749	21675
871.879	21690
872.008	21869
872.138	21701
872.267	21701
872.397	21656
872.526	21462
872.656	21549
872.785	21561
872.915	21633
873.044	21759
873.173	21629
873.303	21800
873.432	21827
873.561	21671
873.69	21766
873.819	21682
873.948	21736
874.077	21705
874.206	21660
874.335	21713
874.464	21701
874.593	21892
874.722	21857
874.851	22082
874.979	21964
875.108	21983
875.237	21835
875.365	21838
875.494	21816
875.623	21880
875.751	21911
875.88	21945
876.008	22002
876.136	22074
876.265	22280
876.393	22405
876.521	22447
876.65	22398
876.778	22318
876.906	22329
877.034	22219
877.162	22402
877.29	22116
877.418	22207
877.546	22356
877.674	22284
877.802	22394
877.93	22200
878.058	22215
878.185	22257
878.313	22310
878.441	22219
878.568	22036
878.696	22242
878.824	22314
878.951	22356
879.079	22375
879.206	22546
879.333	22481
879.461	22306
879.588	22462
879.715	22474
879.842	22630
879.97	22322
880.097	22131
880.224	22131
880.351	22128
880.478	22143
880.605	22029
880.732	22135
880.859	22352
880.986	22135
881.112	22086
881.239	21922
881.366	21747
881.493	21747
881.619	21599
881.746	21747
881.872	21644
881.999	21599
882.125	21644
882.252	21656
882.378	21606
882.505	21808
882.631	21530
882.757	21336
882.883	21424
883.01	21355
883.136	21359
883.262	21272
883.388	21138
883.514	21230
883.64	21260
883.766	21359
883.892	21062
884.018	21264
884.143	21287
884.269	21511
884.395	21032
884.52	20963
884.646	21157
884.772	20967
884.897	20929
885.023	21055
885.148	21074
885.274	21081
885.399	21123
885.524	21074
885.65	21039
885.775	21066
885.9	21020
886.025	21089
886.15	21043
886.275	21001
886.4	20990
886.525	20986
886.65	20956
886.775	20891
886.9	21135
887.025	21298
887.149	20948
887.274	20750
887.399	20769
887.523	20708
887.648	20727
887.773	20613
887.897	20792
888.021	20800
888.146	20640
888.27	20914
888.395	20834
888.519	20750
888.643	20785
888.767	20769
888.891	20640
889.015	20579
889.139	20549
889.263	20583
889.387	20606
889.511	20777
889.635	20686
889.759	20598
889.883	20488
890.006	20568
890.13	20708
890.254	20556
890.377	20404
890.501	20362
890.624	20332
890.748	20377
890.871	20229
890.995	20259
891.118	20126
891.241	20221
891.364	20096
891.488	20275
891.611	20161
891.734	20119
891.857	20225
891.98	20176
892.103	20180
892.226	20210
892.349	20005
892.471	19917
892.594	20058
892.717	20103
892.839	20046
892.962	19947
893.085	20001
893.207	20005
893.33	19902
893.452	19997
893.575	20183
893.697	20005
893.819	20202
893.941	20248
894.064	20130
894.186	20012
894.308	20020
894.43	19986
894.552	20183
894.674	20206
894.796	19940
894.918	20024
895.04	20008
895.161	20161
895.283	20035
895.405	19978
895.526	20024
895.648	20039
895.769	20020
895.891	20073
896.012	20081
896.134	20088
896.255	20145
896.376	20046
896.498	20008
896.619	20084
896.74	20024
896.861	20107
896.982	20282
897.103	20442
897.224	20267
897.345	20385
897.466	20240
897.587	20317
897.708	20389
897.828	20301
897.949	20225
898.07	20073
898.19	20164
898.311	20419
898.431	20237
898.552	20282
898.672	20290
898.792	20442
898.913	20320
899.033	20111
899.153	20073
899.273	19932
899.393	20054
899.513	20073
899.633	20039
899.753	20043
899.873	20122
899.993	20084
900.113	19925
900.232	20020
900.352	19989
900.472	19921
900.591	19772
900.711	19864
900.83	19689
900.95	19890
901.069	19807
901.189	19715
901.308	19388
901.427	19384
901.546	19445
901.665	19453
901.784	19624
901.904	19320
902.023	19095
902.141	19000
902.26	19027
902.379	18920
902.498	18890
902.617	18798
902.735	18901
902.854	18844
902.973	18772
903.091	18711
903.21	18532
903.328	18536
903.446	18513
903.565	18441
903.683	18445
903.801	18209
903.919	18315
904.038	18296
904.156	18186
904.274	18224
904.392	18079
904.51	18102
904.627	18110
904.745	18136
904.863	18083
904.981	17935
905.098	17828
905.216	17760
905.334	17935
905.451	17847
905.569	17756
905.686	17847
905.803	17912
905.921	17596
906.038	17707
906.155	17638
906.272	17482
906.389	17455
906.506	17318
906.623	17303
906.74	17315
906.857	17239
906.974	17136
907.091	17391
907.208	17459
907.324	17425
907.441	17277
907.557	17075
907.674	17075
907.79	16942
907.907	17048
908.023	17124
908.139	17064
908.256	17003
908.372	16927
908.488	16919
908.604	16797
908.72	16790
908.836	16786
908.952	16782
909.068	16801
909.184	16862
909.3	16725
909.415	16748
909.531	16706
909.647	16516
909.762	16485
909.878	16489
909.993	16474
910.108	16394
910.224	16459
910.339	16436
910.454	16360
910.57	16268
910.685	16238
910.8	16538
910.915	16398
911.03	16261
911.145	16090
911.259	16067
911.374	16120
911.489	16013
911.604	15972
911.718	15812
911.833	15800
911.947	15743
912.062	15778
912.176	15797
912.291	15846
912.405	15797
912.519	15800
912.633	15956
912.748	15876
912.862	15819
912.976	15728
913.09	15545
913.204	15564
913.318	15625
913.431	15709
913.545	15778
913.659	15762
913.772	15534
913.886	15389
914	15538
914.113	15481
914.226	15507
914.34	15534
914.453	15397
914.566	15485
914.68	15317
914.793	15264
914.906	15161
915.019	15135
915.132	14975
915.245	15024
915.358	15055
915.47	15131
915.583	15032
915.696	15051
915.809	15070
915.921	15173
916.034	15001
916.146	15001
916.259	14891
916.371	15001
916.483	14933
916.595	14883
916.708	14937
916.82	14918
916.932	14842
917.044	14834
917.156	14762
917.268	14762
917.38	14880
917.491	14773
917.603	14765
917.715	14853
917.826	14868
917.938	14587
918.049	14594
918.161	14663
918.272	14773
918.384	14830
918.495	14693
918.606	14488
918.717	14434
918.828	14457
918.939	14488
919.05	14412
919.161	14389
919.272	14221
919.383	14301
919.494	14625
919.604	14575
919.715	14511
919.826	14431
919.936	14461
920.047	14533
920.157	14492
920.267	14556
920.378	14507
920.488	14408
920.598	14606
920.708	14750
920.818	14469
920.928	14556
921.038	14724
921.148	14682
921.258	14469
921.368	14339
921.477	14153
921.587	14161
921.697	14054
921.806	14214
921.916	13989
922.025	13822
922.134	13830
922.244	13742
922.353	13837
922.462	13632
922.571	13674
922.68	13480
922.789	13468
922.898	13438
923.007	13453
923.116	13510
923.224	13384
923.333	13422
923.442	13362
923.55	13278
923.659	13316
923.767	13350
923.876	13244
923.984	13339
924.092	13259
924.201	13156
924.309	13175
924.417	13247
924.525	13156
924.633	13187
924.741	13879
924.849	12897
924.956	13065
925.064	12954
925.172	12810
925.279	12848
925.387	12882
925.494	12932
925.602	13015
925.709	12951
925.816	12798
925.924	12825
926.031	12791
926.138	12787
926.245	12844
926.352	12791
926.459	12924
926.566	13008
926.673	12726
926.779	12707
926.886	12601
926.993	12467
927.099	12365
927.206	12467
927.312	12384
927.419	12540
927.525	12384
927.631	12494
927.737	12372
927.843	12308
927.95	12186
928.056	12167
928.162	12190
928.267	12342
928.373	12985
928.479	12300
928.585	12220
928.69	12182
928.796	12296
928.901	12053
929.007	11969
929.112	12175
929.218	12178
929.323	12064
929.428	11961
929.533	12117
929.638	11961
929.743	11942
929.848	12007
929.953	11893
930.058	11733
930.163	11619
930.267	11653
930.372	11824
930.477	11627
930.581	11878
930.685	11718
930.79	11615
930.894	11520
930.998	11543
931.103	11604
931.207	11391
931.311	11162
931.415	11151
931.519	10968
931.623	10968
