Data from test_V78500241_2638.txt Node
Date: Fri Mar 25 15:28:13 CST 2022
User: usil
Spectrometer: V785-0024
Trigger mode: 0
Integration Time (sec): 4.000000E-1
Scans to average: 1
Nonlinearity correction enabled: false
Boxcar width: 0
Storing dark spectrum: false
XAxis mode: Wavelengths
Number of Pixels in Spectrum: 1024
>>>>>Begin Spectral Data<<<<<
801.071	27203
801.214	27135
801.356	27070
801.499	26807
801.641	26769
801.783	26678
801.926	26769
802.068	26602
802.211	26575
802.353	26674
802.496	26377
802.638	26465
802.78	26244
802.923	26343
803.065	26214
803.208	26050
803.35	26286
803.492	26457
803.635	26518
803.777	26320
803.919	26522
804.061	26868
804.204	26495
804.346	26571
804.488	26393
804.63	26400
804.773	26396
804.915	26442
805.057	26640
805.199	26598
805.341	26564
805.483	26564
805.626	26640
805.768	26606
805.91	26541
806.052	26632
806.194	26442
806.336	26845
806.478	26552
806.62	26545
806.762	26617
806.904	26868
807.046	27165
807.188	27024
807.33	27116
807.472	27074
807.614	26849
807.756	26940
807.898	26743
808.04	26811
808.182	26826
808.324	27009
808.465	26925
808.607	27009
808.749	27256
808.891	27199
809.033	27386
809.174	27329
809.316	27123
809.458	27119
809.6	27146
809.741	27260
809.883	27321
810.025	27443
810.166	27504
810.308	27481
810.45	27378
810.591	27351
810.733	27294
810.875	27237
811.016	27123
811.158	27157
811.299	27241
811.441	27435
811.582	27427
811.724	27199
811.865	27180
812.007	27074
812.148	27070
812.29	27169
812.431	27241
812.573	27431
812.714	27652
812.855	27656
812.997	27652
813.138	27854
813.279	27846
813.421	27641
813.562	27595
813.703	27443
813.845	27416
813.986	26887
814.127	26925
814.268	26891
814.41	26967
814.551	26762
814.692	26906
814.833	26785
814.974	26819
815.115	26773
815.256	26724
815.397	26625
815.539	26750
815.68	26636
815.821	26465
815.962	26762
816.103	26640
816.244	26495
816.385	26533
816.526	26370
816.666	26092
816.807	25955
816.948	26111
817.089	26195
817.23	26005
817.371	26126
817.512	26142
817.653	25955
817.793	25970
817.934	26084
818.075	26111
818.216	26008
818.356	26111
818.497	25928
818.638	25765
818.778	25875
818.919	25951
819.06	25917
819.2	26122
819.341	26153
819.481	26027
819.622	26244
819.762	26613
819.903	26332
820.043	26298
820.184	26339
820.324	26073
820.465	26347
820.605	26221
820.746	26084
820.886	26157
821.026	26290
821.167	26275
821.307	26229
821.447	26172
821.588	25906
821.728	25788
821.868	25849
822.008	25529
822.149	25529
822.289	25639
822.429	25400
822.569	25358
822.709	25266
822.849	25168
822.99	25217
823.13	24992
823.27	25038
823.41	24871
823.55	24734
823.69	24863
823.83	24935
823.97	24863
824.11	24730
824.25	24639
824.389	24570
824.529	24821
824.669	24722
824.809	24791
824.949	24673
825.089	24783
825.228	24726
825.368	24532
825.508	24574
825.648	24593
825.787	24589
825.927	24601
826.067	24570
826.206	24547
826.346	24635
826.485	24658
826.625	24692
826.765	24719
826.904	24639
827.044	24342
827.183	24365
827.323	24452
827.462	24300
827.601	24304
827.741	24357
827.88	24102
828.02	24114
828.159	24350
828.298	24232
828.437	24258
828.577	24182
828.716	24437
828.855	24304
828.994	24125
829.134	24003
829.273	23980
829.412	23973
829.551	23969
829.69	24022
829.829	23942
829.968	24038
830.107	24106
830.246	24011
830.385	23958
830.524	23901
830.663	23821
830.802	23676
830.941	23646
831.08	23554
831.219	23653
831.357	23642
831.496	23817
831.635	23581
831.774	23543
831.913	23486
832.051	23452
832.19	23429
832.329	23345
832.467	23269
832.606	23284
832.744	23220
832.883	23220
833.022	23326
833.16	23273
833.299	23254
833.437	23288
833.576	23307
833.714	23197
833.852	23455
833.991	23398
834.129	23414
834.267	23433
834.406	23429
834.544	23440
834.682	23421
834.821	23448
834.959	23410
835.097	23315
835.235	23372
835.373	23318
835.511	23402
835.65	23246
835.788	23189
835.926	23109
836.064	22934
836.202	23075
836.34	23200
836.478	23258
836.615	23086
836.753	23140
836.891	23288
837.029	23258
837.167	23124
837.305	23067
837.443	23067
837.58	22938
837.718	23174
837.856	23090
837.993	23041
838.131	23143
838.269	22889
838.406	22904
838.544	22965
838.681	22786
838.819	22713
838.956	22656
839.094	22637
839.231	22508
839.369	22611
839.506	22824
839.643	22729
839.781	22516
839.918	22478
840.055	22497
840.193	22489
840.33	22447
840.467	22519
840.604	22512
840.742	22748
840.879	22333
841.016	22466
841.153	22333
841.29	22512
841.427	22535
841.564	22413
841.701	22447
841.838	22478
841.975	22341
842.112	22478
842.249	22344
842.385	22322
842.522	22371
842.659	22363
842.796	22196
842.933	22169
843.069	22128
843.206	22249
843.343	22272
843.479	22337
843.616	22261
843.752	22070
843.889	21972
844.025	22109
844.162	21899
844.298	22128
844.435	22150
844.571	21994
844.708	22036
844.844	22109
844.98	22131
845.117	22105
845.253	21964
845.389	21838
845.525	21899
845.661	21930
845.798	21690
845.934	21739
846.07	21663
846.206	21698
846.342	21850
846.478	21686
846.614	21633
846.75	21447
846.886	21405
847.022	21587
847.158	21477
847.294	21583
847.429	21580
847.565	21428
847.701	21732
847.837	21256
847.972	21188
848.108	21283
848.244	21245
848.379	21070
848.515	21085
848.65	20986
848.786	21173
848.921	21195
849.057	21131
849.192	21214
849.328	21169
849.463	21024
849.598	21135
849.734	21036
849.869	20902
850.004	20864
850.14	20918
850.275	20845
850.41	20864
850.545	20807
850.68	20777
850.815	20849
850.95	20811
851.085	20998
851.22	20967
851.355	20853
851.49	20811
851.625	20826
851.76	20853
851.895	20876
852.03	20815
852.165	20845
852.299	20899
852.434	21001
852.569	20872
852.703	20906
852.838	20906
852.973	20944
853.107	20975
853.242	20750
853.376	20613
853.511	20617
853.645	20674
853.78	20899
853.914	20720
854.048	20705
854.183	20579
854.317	20727
854.451	20880
854.585	20636
854.72	20564
854.854	20724
854.988	20644
855.122	20560
855.256	20530
855.39	20583
855.524	20701
855.658	20777
855.792	20735
855.926	20625
856.06	20731
856.194	20727
856.327	20701
856.461	20670
856.595	20632
856.729	20648
856.862	20830
856.996	20705
857.13	20693
857.263	20735
857.397	20811
857.53	20606
857.664	20708
857.797	20705
857.931	20849
858.064	20819
858.197	20693
858.331	20754
858.464	20644
858.597	20488
858.731	20602
858.864	20678
858.997	20708
859.13	20716
859.263	20659
859.396	20750
859.529	20632
859.662	20427
859.795	20556
859.928	20659
860.061	20823
860.194	20838
860.327	20705
860.46	20552
860.592	20800
860.725	20842
860.858	20743
860.99	20720
861.123	20667
861.256	20617
861.388	20701
861.521	21363
861.653	20404
861.786	20606
861.918	20556
862.05	20545
862.183	20602
862.315	20739
862.447	20621
862.58	20689
862.712	20507
862.844	20355
862.976	20320
863.108	20393
863.24	20899
863.372	20431
863.504	20328
863.636	20374
863.768	20552
863.9	20339
864.032	20294
864.164	20267
864.296	20366
864.428	20541
864.559	20541
864.691	20446
864.823	20446
864.954	20381
865.086	20263
865.217	20294
865.349	20161
865.48	20317
865.612	20324
865.743	20393
865.875	20358
866.006	20168
866.137	20301
866.269	20149
866.4	20366
866.531	20358
866.662	20168
866.793	20126
866.924	20153
867.055	20320
867.186	20347
867.317	20229
867.448	20084
867.579	20271
867.71	20138
867.841	20130
867.972	20336
868.103	20263
868.233	20233
868.364	20218
868.495	20374
868.625	20415
868.756	20579
868.886	20358
869.017	20389
869.147	20602
869.278	20670
869.408	20522
869.539	20415
869.669	20469
869.799	20533
869.929	20571
870.06	20568
870.19	20819
870.32	20800
870.45	20792
870.58	20811
870.71	20948
870.84	20838
870.97	20883
871.1	20929
871.23	20967
871.36	21074
871.489	20952
871.619	20906
871.749	21199
871.879	21085
872.008	21112
872.138	20948
872.267	21062
872.397	20994
872.526	20921
872.656	21009
872.785	20952
872.915	21176
873.044	21070
873.173	21036
873.303	21275
873.432	21184
873.561	21180
873.69	21138
873.819	21028
873.948	21214
874.077	21047
874.206	20998
874.335	21188
874.464	21188
874.593	21511
874.722	21256
874.851	21389
874.979	21397
875.108	21351
875.237	21397
875.365	21195
875.494	21332
875.623	21332
875.751	21325
875.88	21348
876.008	21481
876.136	21504
876.265	21759
876.393	21888
876.521	21838
876.65	21903
876.778	21785
876.906	21644
877.034	21663
877.162	21770
877.29	21595
877.418	21728
877.546	21690
877.674	21629
877.802	21694
877.93	21641
878.058	21625
878.185	21591
878.313	21656
878.441	21675
878.568	21473
878.696	21561
878.824	21732
878.951	21698
879.079	21884
879.206	21968
879.333	21789
879.461	21709
879.588	21819
879.715	21918
879.842	21937
879.97	21652
880.097	21549
880.224	21454
880.351	21690
880.478	21466
880.605	21420
880.732	21549
880.859	21739
880.986	21439
881.112	21481
881.239	21450
881.366	21062
881.493	21173
881.619	21116
881.746	21100
881.872	21020
881.999	21028
882.125	21001
882.252	21108
882.378	21005
882.505	21222
882.631	20960
882.757	20880
882.883	20807
883.01	20861
883.136	20819
883.262	20648
883.388	20579
883.514	20819
883.64	20838
883.766	20796
883.892	20473
884.018	20609
884.143	20815
884.269	20773
884.395	20541
884.52	20431
884.646	20564
884.772	20480
884.897	20339
885.023	20415
885.148	20522
885.274	20476
885.399	20533
885.524	20385
885.65	20366
885.775	20415
885.9	20404
886.025	20484
886.15	20571
886.275	20339
886.4	20324
886.525	20358
886.65	20450
886.775	20328
886.9	20492
887.025	20617
887.149	20473
887.274	20294
887.399	20183
887.523	20202
887.648	20168
887.773	20107
887.897	20275
888.021	20199
888.146	20176
888.27	20351
888.395	20362
888.519	20343
888.643	20267
888.767	20214
888.891	20008
889.015	20073
889.139	20069
889.263	20084
889.387	20168
889.511	20351
889.635	20240
889.759	20077
889.883	20096
890.006	20069
890.13	20065
890.254	20012
890.377	20050
890.501	19883
890.624	19738
890.748	19776
890.871	19738
890.995	19578
891.118	19540
891.241	19696
891.364	19643
891.488	19658
891.611	19624
891.734	19616
891.857	19693
891.98	19571
892.103	19556
892.226	19681
892.349	19578
892.471	19339
892.594	19537
892.717	19597
892.839	19495
892.962	19575
893.085	19681
893.207	19521
893.33	19460
893.452	19480
893.575	19563
893.697	19525
893.819	19731
893.941	19651
894.064	19666
894.186	19438
894.308	19552
894.43	19613
894.552	19731
894.674	19575
894.796	19480
894.918	19544
895.04	19514
895.161	19571
895.283	19563
895.405	19533
895.526	19464
895.648	19632
895.769	19575
895.891	19662
896.012	19639
896.134	19521
896.255	19563
896.376	19438
896.498	19445
896.619	19616
896.74	19563
896.861	19597
896.982	19852
897.103	20020
897.224	19868
897.345	19731
897.466	19658
897.587	19784
897.708	19849
897.828	19841
897.949	19590
898.07	19639
898.19	19704
898.311	19852
898.431	19712
898.552	19696
898.672	19803
898.792	19803
898.913	19681
899.033	19639
899.153	19540
899.273	19571
899.393	19415
899.513	19601
899.633	19552
899.753	19552
899.873	19556
899.993	19476
900.113	19476
900.232	19358
900.352	19518
900.472	19346
900.591	19324
900.711	19430
900.83	19293
900.95	19411
901.069	19316
901.189	19099
901.308	19042
901.427	18848
901.546	18764
901.665	18890
901.784	18871
901.904	18772
902.023	18673
902.141	18452
902.26	18429
902.379	18517
902.498	18395
902.617	18319
902.735	18441
902.854	18486
902.973	18273
903.091	18106
903.21	18125
903.328	18121
903.446	18045
903.565	17920
903.683	17870
903.801	17786
903.919	17783
904.038	17756
904.156	17836
904.274	17710
904.392	17665
904.51	17680
904.627	17695
904.745	17695
904.863	17707
904.981	17482
905.098	17387
905.216	17410
905.334	17337
905.451	17261
905.569	17330
905.686	17322
905.803	17417
905.921	17083
906.038	17326
906.155	17067
906.272	17056
906.389	17189
906.506	16919
906.623	16786
906.74	16953
906.857	16805
906.974	16759
907.091	16949
907.208	16942
907.324	17022
907.441	16801
907.557	16637
907.674	16694
907.79	16637
907.907	16584
908.023	16702
908.139	16653
908.256	16504
908.372	16577
908.488	16523
908.604	16375
908.72	16261
908.836	16306
908.952	16348
909.068	16447
909.184	16455
909.3	16257
909.415	16325
909.531	16325
909.647	16131
909.762	16040
909.878	16131
909.993	16090
910.108	15884
910.224	15922
910.339	16032
910.454	15911
910.57	15960
910.685	15812
910.8	16097
910.915	15926
911.03	15797
911.145	15629
911.259	15637
911.374	15705
911.489	15641
911.604	15591
911.718	15340
911.833	15367
911.947	15355
912.062	15218
912.176	15412
912.291	15534
912.405	15500
912.519	15564
912.633	15682
912.748	15450
912.862	15306
912.976	15230
913.09	15077
913.204	15226
913.318	15207
913.431	15283
913.545	15252
913.659	15359
913.772	15180
913.886	15009
914	15005
914.113	15157
914.226	15104
914.34	15135
914.453	14853
914.566	15055
914.68	14910
914.793	14864
914.906	14670
915.019	14617
915.132	14564
915.245	14731
915.358	14621
915.47	14689
915.583	14644
915.696	14712
915.809	14686
915.921	14800
916.034	14556
916.146	14575
916.259	14655
916.371	14568
916.483	14644
916.595	14526
916.708	14495
916.82	14537
916.932	14549
917.044	14457
917.156	14461
917.268	14305
917.38	14275
917.491	14366
917.603	14320
917.715	14374
917.826	14434
917.938	14355
918.049	14111
918.161	14301
918.272	14393
918.384	14374
918.495	14278
918.606	14157
918.717	14126
918.828	14065
918.939	14153
919.05	13951
919.161	14035
919.272	13849
919.383	13932
919.494	14100
919.604	14252
919.715	14103
919.826	13986
919.936	13997
920.047	14119
920.157	14005
920.267	14142
920.378	14088
920.488	14012
920.598	14282
920.708	14358
920.818	14202
920.928	14301
921.038	14415
921.148	14305
921.258	14069
921.368	13959
921.477	13925
921.587	13833
921.697	13708
921.806	13780
921.916	13723
922.025	13487
922.134	13392
922.244	13415
922.353	13533
922.462	13331
922.571	13377
922.68	13168
922.789	13008
922.898	13179
923.007	13031
923.116	13126
923.224	13156
923.333	13034
923.442	12920
923.55	12882
923.659	12962
923.767	13050
923.876	12859
923.984	12935
924.092	12814
924.201	12840
924.309	12833
924.417	12867
924.525	12779
924.633	12688
924.741	13704
924.849	12635
924.956	12741
925.064	12593
925.172	12570
925.279	12490
925.387	12525
925.494	12479
925.602	12623
925.709	12650
925.816	12483
925.924	12494
926.031	12635
926.138	12437
926.245	12517
926.352	12369
926.459	12525
926.566	12483
926.673	12353
926.779	12327
926.886	12194
926.993	12175
927.099	12186
927.206	12167
927.312	12144
927.419	12182
927.525	12167
927.631	12117
927.737	12068
927.843	12053
927.95	11908
928.056	11931
928.162	11988
928.267	11973
928.373	12566
928.479	12049
928.585	11794
928.69	11954
928.796	11912
928.901	11809
929.007	11714
929.112	11760
929.218	11851
929.323	11680
929.428	11657
929.533	11847
929.638	11665
929.743	11676
929.848	11718
929.953	11600
930.058	11448
930.163	11330
930.267	11444
930.372	11509
930.477	11349
930.581	11570
930.685	11417
930.79	11280
930.894	11307
930.998	11337
931.103	11356
931.207	11037
931.311	10987
931.415	10908
931.519	10694
931.623	10725
