Data from test_V78500241_3175.txt Node
Date: Fri Mar 25 15:31:58 CST 2022
User: usil
Spectrometer: V785-0024
Trigger mode: 0
Integration Time (sec): 4.000000E-1
Scans to average: 1
Nonlinearity correction enabled: false
Boxcar width: 0
Storing dark spectrum: false
XAxis mode: Wavelengths
Number of Pixels in Spectrum: 1024
>>>>>Begin Spectral Data<<<<<
801.071	27176
801.214	27146
801.356	26804
801.499	26792
801.641	26682
801.783	26606
801.926	26712
802.068	26667
802.211	26659
802.353	26526
802.496	26355
802.638	26313
802.78	26233
802.923	26263
803.065	26240
803.208	26100
803.35	26385
803.492	26469
803.635	26507
803.777	26389
803.919	26552
804.061	26716
804.204	26511
804.346	26499
804.488	26415
804.63	26488
804.773	26404
804.915	26518
805.057	26484
805.199	26396
805.341	26568
805.483	26613
805.626	26705
805.768	26556
805.91	26476
806.052	26590
806.194	26503
806.336	26552
806.478	26556
806.62	26549
806.762	26670
806.904	26815
807.046	27070
807.188	26994
807.33	27104
807.472	27093
807.614	26845
807.756	26910
807.898	26762
808.04	26823
808.182	26712
808.324	26826
808.465	26861
808.607	27119
808.749	27150
808.891	27211
809.033	27439
809.174	27085
809.316	27207
809.458	27062
809.6	27135
809.741	27176
809.883	27245
810.025	27526
810.166	27401
810.308	27408
810.45	27317
810.591	27264
810.733	27211
810.875	27249
811.016	27116
811.158	27135
811.299	27313
811.441	27195
811.582	27218
811.724	27184
811.865	27154
812.007	27047
812.148	27089
812.29	27218
812.431	27306
812.573	27443
812.714	27519
812.855	27568
812.997	27759
813.138	27842
813.279	27743
813.421	27599
813.562	27515
813.703	27424
813.845	27252
813.986	27058
814.127	26914
814.268	26826
814.41	26910
814.551	26769
814.692	26899
814.833	26693
814.974	26796
815.115	26758
815.256	26686
815.397	26549
815.539	26640
815.68	26522
815.821	26511
815.962	26526
816.103	26450
816.244	26514
816.385	26294
816.526	26317
816.666	26050
816.807	26020
816.948	26024
817.089	26122
817.23	25970
817.371	26138
817.512	26183
817.653	26145
817.793	26020
817.934	25978
818.075	26054
818.216	26001
818.356	26065
818.497	25940
818.638	25780
818.778	25826
818.919	25871
819.06	25913
819.2	25989
819.341	26092
819.481	26161
819.622	26176
819.762	26484
819.903	26252
820.043	26339
820.184	26126
820.324	26046
820.465	26240
820.605	26191
820.746	26035
820.886	25974
821.026	26092
821.167	26035
821.307	26130
821.447	26069
821.588	25970
821.728	25868
821.868	25700
822.008	25521
822.149	25556
822.289	25571
822.429	25236
822.569	25221
822.709	25187
822.849	25080
822.99	25046
823.13	24981
823.27	24913
823.41	24829
823.55	24764
823.69	24738
823.83	24871
823.97	24825
824.11	24661
824.25	24631
824.389	24597
824.529	24696
824.669	24574
824.809	24711
824.949	24578
825.089	24715
825.228	24768
825.368	24471
825.508	24509
825.648	24536
825.787	24620
825.927	24654
826.067	24372
826.206	24486
826.346	24566
826.485	24589
826.625	24429
826.765	24551
826.904	24399
827.044	24346
827.183	24315
827.323	24262
827.462	24232
827.601	24365
827.741	24243
827.88	24296
828.02	24076
828.159	24235
828.298	24243
828.437	24186
828.577	24155
828.716	24296
828.855	24133
828.994	23882
829.134	24007
829.273	23912
829.412	23965
829.551	23927
829.69	23969
829.829	24041
829.968	24117
830.107	24083
830.246	23958
830.385	23874
830.524	23874
830.663	23691
830.802	23562
830.941	23528
831.08	23516
831.219	23589
831.357	23611
831.496	23790
831.635	23581
831.774	23520
831.913	23379
832.051	23334
832.19	23303
832.329	23410
832.467	23364
832.606	23220
832.744	23151
832.883	23166
833.022	23220
833.16	23273
833.299	23326
833.437	23246
833.576	23406
833.714	23174
833.852	23353
833.991	23326
834.129	23474
834.267	23398
834.406	23368
834.544	23364
834.682	23379
834.821	23303
834.959	23436
835.097	23227
835.235	23326
835.373	23334
835.511	23231
835.65	23223
835.788	23193
835.926	23067
836.064	22942
836.202	22949
836.34	23143
836.478	23273
836.615	23140
836.753	23132
836.891	23322
837.029	23181
837.167	23140
837.305	23056
837.443	22953
837.58	23006
837.718	22957
837.856	23037
837.993	23025
838.131	23022
838.269	22847
838.406	22949
838.544	22839
838.681	22771
838.819	22645
838.956	22626
839.094	22603
839.231	22500
839.369	22702
839.506	22801
839.643	22824
839.781	22508
839.918	22550
840.055	22421
840.193	22554
840.33	22299
840.467	22497
840.604	22428
840.742	22668
840.879	22234
841.016	22284
841.153	22344
841.29	22379
841.427	22432
841.564	22527
841.701	22379
841.838	22382
841.975	22238
842.112	22341
842.249	22394
842.385	22257
842.522	22459
842.659	22169
842.796	22272
842.933	22173
843.069	22265
843.206	22070
843.343	22310
843.479	22135
843.616	22139
843.752	21998
843.889	21880
844.025	22230
844.162	21998
844.298	21907
844.435	21998
844.571	21934
844.708	22006
844.844	22131
844.98	22055
845.117	22032
845.253	21873
845.389	21755
845.525	21823
845.661	21762
845.798	21637
845.934	21774
846.07	21660
846.206	21785
846.342	21895
846.478	21644
846.614	21553
846.75	21443
846.886	21363
847.022	21431
847.158	21473
847.294	21549
847.429	21507
847.565	21462
847.701	21644
847.837	21298
847.972	21142
848.108	21298
848.244	21275
848.379	21058
848.515	21100
848.65	20956
848.786	20941
848.921	21028
849.057	21157
849.192	21146
849.328	21024
849.463	21032
849.598	21013
849.734	20925
849.869	20765
850.004	20868
850.14	20895
850.275	20899
850.41	20777
850.545	20712
850.68	20834
850.815	20823
850.95	20765
851.085	21017
851.22	21039
851.355	20811
851.49	20788
851.625	20834
851.76	20777
851.895	20750
852.03	20693
852.165	20834
852.299	20853
852.434	20895
852.569	20834
852.703	20811
852.838	20876
852.973	20982
853.107	20891
853.242	20663
853.376	20716
853.511	20522
853.645	20579
853.78	20765
853.914	20701
854.048	20613
854.183	20655
854.317	20613
854.451	20861
854.585	20552
854.72	20697
854.854	20773
854.988	20518
855.122	20712
855.256	20568
855.39	20678
855.524	20655
855.658	20712
855.792	20739
855.926	20716
856.06	20686
856.194	20697
856.327	20705
856.461	20598
856.595	20659
856.729	20651
856.862	20807
856.996	20667
857.13	20571
857.263	20754
857.397	20758
857.53	20735
857.664	20670
857.797	20754
857.931	20663
858.064	20727
858.197	20659
858.331	20648
858.464	20594
858.597	20545
858.731	20670
858.864	20648
858.997	20651
859.13	20644
859.263	20735
859.396	20743
859.529	20708
859.662	20587
859.795	20609
859.928	20602
860.061	20777
860.194	20739
860.327	20670
860.46	20575
860.592	20689
860.725	20739
860.858	20845
860.99	20617
861.123	20629
861.256	20492
861.388	20659
861.521	21138
861.653	20526
861.786	20427
861.918	20537
862.05	20484
862.183	20549
862.315	20571
862.447	20720
862.58	20568
862.712	20377
862.844	20336
862.976	20457
863.108	20389
863.24	20712
863.372	20282
863.504	20450
863.636	20301
863.768	20404
863.9	20320
864.032	20263
864.164	20427
864.296	20393
864.428	20465
864.559	20389
864.691	20522
864.823	20332
864.954	20286
865.086	20275
865.217	20237
865.349	20275
865.48	20244
865.612	20358
865.743	20313
865.875	20256
866.006	20328
866.137	20290
866.269	20317
866.4	20199
866.531	20221
866.662	20092
866.793	20130
866.924	20225
867.055	20256
867.186	20180
867.317	20161
867.448	20229
867.579	20183
867.71	20153
867.841	20138
867.972	20168
868.103	20145
868.233	20229
868.364	20225
868.495	20415
868.625	20400
868.756	20530
868.886	20282
869.017	20343
869.147	20594
869.278	20507
869.408	20461
869.539	20488
869.669	20503
869.799	20476
869.929	20609
870.06	20522
870.19	20705
870.32	20754
870.45	20845
870.58	20769
870.71	20876
870.84	20845
870.97	20781
871.1	20765
871.23	20925
871.36	20952
871.489	20975
871.619	21089
871.749	21062
871.879	21009
872.008	21058
872.138	21058
872.267	21184
872.397	20967
872.526	20876
872.656	20887
872.785	20899
872.915	20914
873.044	21222
873.173	21036
873.303	21211
873.432	21127
873.561	21176
873.69	21142
873.819	20975
873.948	21039
874.077	21039
874.206	21020
874.335	21150
874.464	21131
874.593	21348
874.722	21359
874.851	21313
874.979	21351
875.108	21439
875.237	21332
875.365	21310
875.494	21359
875.623	21393
875.751	21245
875.88	21317
876.008	21428
876.136	21504
876.265	21770
876.393	21861
876.521	21831
876.65	21785
876.778	21698
876.906	21686
877.034	21618
877.162	21644
877.29	21675
877.418	21682
877.546	21637
877.674	21671
877.802	21660
877.93	21614
878.058	21667
878.185	21454
878.313	21545
878.441	21755
878.568	21458
878.696	21660
878.824	21618
878.951	21739
879.079	21789
879.206	21930
879.333	21846
879.461	21622
879.588	21709
879.715	21724
879.842	21911
879.97	21667
880.097	21507
880.224	21428
880.351	21496
880.478	21389
880.605	21447
880.732	21481
880.859	21557
880.986	21469
881.112	21469
881.239	21466
881.366	21199
881.493	21176
881.619	21142
881.746	21131
881.872	21051
881.999	20975
882.125	21020
882.252	21085
882.378	21070
882.505	21150
882.631	20941
882.757	20857
882.883	20887
883.01	20826
883.136	20769
883.262	20617
883.388	20583
883.514	20921
883.64	20929
883.766	20686
883.892	20602
884.018	20587
884.143	20674
884.269	20754
884.395	20537
884.52	20423
884.646	20537
884.772	20298
884.897	20389
885.023	20419
885.148	20545
885.274	20541
885.399	20476
885.524	20537
885.65	20389
885.775	20518
885.9	20370
886.025	20549
886.15	20556
886.275	20370
886.4	20347
886.525	20412
886.65	20259
886.775	20320
886.9	20575
887.025	20655
887.149	20499
887.274	20290
887.399	20282
887.523	20233
887.648	20126
887.773	20039
887.897	20290
888.021	20199
888.146	20142
888.27	20218
888.395	20218
888.519	20309
888.643	20237
888.767	20282
888.891	20149
889.015	20039
889.139	20107
889.263	20005
889.387	20107
889.511	20183
889.635	20161
889.759	19978
889.883	19955
890.006	19986
890.13	20107
890.254	19986
890.377	19852
890.501	19826
890.624	19746
890.748	19803
890.871	19712
890.995	19514
891.118	19590
891.241	19594
891.364	19651
891.488	19753
891.611	19662
891.734	19647
891.857	19632
891.98	19696
892.103	19559
892.226	19670
892.349	19556
892.471	19327
892.594	19540
892.717	19464
892.839	19495
892.962	19540
893.085	19502
893.207	19483
893.33	19384
893.452	19521
893.575	19571
893.697	19453
893.819	19746
893.941	19712
894.064	19712
894.186	19419
894.308	19441
894.43	19529
894.552	19643
894.674	19685
894.796	19510
894.918	19358
895.04	19411
895.161	19499
895.283	19514
895.405	19426
895.526	19582
895.648	19514
895.769	19578
895.891	19632
896.012	19449
896.134	19586
896.255	19548
896.376	19476
896.498	19464
896.619	19563
896.74	19552
896.861	19575
896.982	19830
897.103	19974
897.224	19715
897.345	19715
897.466	19620
897.587	19780
897.708	19784
897.828	19791
897.949	19719
898.07	19529
898.19	19544
898.311	19837
898.431	19750
898.552	19795
898.672	19799
898.792	19955
898.913	19830
899.033	19723
899.153	19616
899.273	19468
899.393	19476
899.513	19616
899.633	19480
899.753	19419
899.873	19392
899.993	19449
900.113	19460
900.232	19506
900.352	19381
900.472	19308
900.591	19228
900.711	19152
900.83	19232
900.95	19244
901.069	19365
901.189	19164
901.308	18985
901.427	18901
901.546	18867
901.665	18863
901.784	18757
901.904	18734
902.023	18608
902.141	18361
902.26	18544
902.379	18536
902.498	18376
902.617	18448
902.735	18445
902.854	18414
902.973	18323
903.091	18102
903.21	18098
903.328	18091
903.446	18007
903.565	17832
903.683	18007
903.801	17783
903.919	17859
904.038	17828
904.156	17729
904.274	17760
904.392	17520
904.51	17680
904.627	17638
904.745	17687
904.863	17718
904.981	17455
905.098	17353
905.216	17474
905.334	17383
905.451	17356
905.569	17326
905.686	17372
905.803	17288
905.921	17113
906.038	17212
906.155	17147
906.272	17052
906.389	16949
906.506	16953
906.623	16927
906.74	16824
906.857	16679
906.974	16809
907.091	16949
907.208	17041
907.324	16911
907.441	16816
907.557	16512
907.674	16550
907.79	16424
907.907	16459
908.023	16664
908.139	16577
908.256	16535
908.372	16546
908.488	16470
908.604	16398
908.72	16230
908.836	16261
908.952	16261
909.068	16352
909.184	16363
909.3	16344
909.415	16322
909.531	16219
909.647	16067
909.762	15991
909.878	16055
909.993	16048
910.108	15983
910.224	16032
910.339	16051
910.454	16021
910.57	15915
910.685	15804
910.8	16051
910.915	15991
911.03	15747
911.145	15606
911.259	15690
911.374	15572
911.489	15542
911.604	15454
911.718	15469
911.833	15477
911.947	15279
912.062	15249
912.176	15405
912.291	15416
912.405	15340
912.519	15557
912.633	15595
912.748	15439
912.862	15283
912.976	15256
913.09	15112
913.204	15161
913.318	15165
913.431	15214
913.545	15218
913.659	15310
913.772	15116
913.886	14967
914	14990
914.113	15032
914.226	15081
914.34	14963
914.453	14914
914.566	15051
914.68	14979
914.793	14788
914.906	14743
915.019	14678
915.132	14625
915.245	14579
915.358	14686
915.47	14644
915.583	14552
915.696	14716
915.809	14674
915.921	14689
916.034	14590
916.146	14575
916.259	14484
916.371	14621
916.483	14541
916.595	14526
916.708	14518
916.82	14530
916.932	14434
917.044	14377
917.156	14385
917.268	14286
917.38	14317
917.491	14313
917.603	14358
917.715	14423
917.826	14381
917.938	14355
918.049	14233
918.161	14244
918.272	14393
918.384	14377
918.495	14195
918.606	14065
918.717	14024
918.828	14164
918.939	14153
919.05	13871
919.161	14043
919.272	13852
919.383	13818
919.494	14077
919.604	14263
919.715	14016
919.826	13955
919.936	14012
920.047	14142
920.157	14073
920.267	14282
920.378	14020
920.488	13993
920.598	14115
920.708	14389
920.818	14183
920.928	14123
921.038	14461
921.148	14286
921.258	14039
921.368	13925
921.477	13864
921.587	13696
921.697	13613
921.806	13795
921.916	13723
922.025	13525
922.134	13502
922.244	13365
922.353	13499
922.462	13304
922.571	13270
922.68	13171
922.789	13133
922.898	13091
923.007	13042
923.116	13046
923.224	13084
923.333	13065
923.442	12958
923.55	12966
923.659	12939
923.767	12958
923.876	12779
923.984	12954
924.092	12802
924.201	12848
924.309	12829
924.417	12833
924.525	12817
924.633	12837
924.741	13658
924.849	12608
924.956	12738
925.064	12604
925.172	12570
925.279	12578
925.387	12620
925.494	12506
925.602	12639
925.709	12532
925.816	12483
925.924	12509
926.031	12521
926.138	12437
926.245	12528
926.352	12334
926.459	12544
926.566	12506
926.673	12380
926.779	12247
926.886	12281
926.993	12201
927.099	12163
927.206	12076
927.312	12068
927.419	12247
927.525	12136
927.631	12117
927.737	12049
927.843	11927
927.95	11813
928.056	11961
928.162	11923
928.267	12019
928.373	12551
928.479	12030
928.585	11775
928.69	12003
928.796	12022
928.901	11756
929.007	11707
929.112	11863
929.218	11840
929.323	11646
929.428	11684
929.533	11843
929.638	11661
929.743	11604
929.848	11627
929.953	11596
930.058	11562
930.163	11311
930.267	11395
930.372	11524
930.477	11372
930.581	11535
930.685	11414
930.79	11235
930.894	11345
930.998	11223
931.103	11299
931.207	11052
931.311	10911
931.415	10820
931.519	10675
931.623	10573
