Data from test_V78500241_1570.txt Node
Date: Fri Mar 25 15:20:47 CST 2022
User: usil
Spectrometer: V785-0024
Trigger mode: 0
Integration Time (sec): 4.000000E-1
Scans to average: 1
Nonlinearity correction enabled: false
Boxcar width: 0
Storing dark spectrum: false
XAxis mode: Wavelengths
Number of Pixels in Spectrum: 1024
>>>>>Begin Spectral Data<<<<<
801.071	27953
801.214	27911
801.356	27500
801.499	27675
801.641	27523
801.783	27530
801.926	27561
802.068	27431
802.211	27462
802.353	27447
802.496	27123
802.638	27199
802.78	27161
802.923	27184
803.065	27108
803.208	27119
803.35	27154
803.492	27294
803.635	27264
803.777	27332
803.919	27329
804.061	27644
804.204	27321
804.346	27233
804.488	27245
804.63	27355
804.773	27272
804.915	27367
805.057	27500
805.199	27294
805.341	27389
805.483	27564
805.626	27557
805.768	27378
805.91	27561
806.052	27629
806.194	27477
806.336	27736
806.478	27523
806.62	27587
806.762	27504
806.904	27542
807.046	27808
807.188	27895
807.33	28055
807.472	27934
807.614	27816
807.756	28002
807.898	27743
808.04	27793
808.182	27778
808.324	27720
808.465	27835
808.607	28002
808.749	28112
808.891	28379
809.033	28215
809.174	28291
809.316	28109
809.458	28147
809.6	27987
809.741	28322
809.883	28158
810.025	28401
810.166	28428
810.308	28367
810.45	28375
810.591	28386
810.733	28299
810.875	28135
811.016	27987
811.158	28059
811.299	28120
811.441	28242
811.582	28158
811.724	28143
811.865	28143
812.007	28090
812.148	28177
812.29	28280
812.431	28314
812.573	28466
812.714	28626
812.855	28767
812.997	28744
813.138	28972
813.279	28824
813.421	28702
813.562	28546
813.703	28440
813.845	28413
813.986	28147
814.127	28002
814.268	27880
814.41	27869
814.551	27599
814.692	27918
814.833	27686
814.974	27781
815.115	27953
815.256	27732
815.397	27781
815.539	27686
815.68	27686
815.821	27530
815.962	27633
816.103	27622
816.244	27622
816.385	27389
816.526	27355
816.666	27142
816.807	27138
816.948	27173
817.089	27283
817.23	27329
817.371	27062
817.512	27055
817.653	27100
817.793	27207
817.934	27169
818.075	27077
818.216	27157
818.356	27077
818.497	26937
818.638	26842
818.778	26899
818.919	26902
819.06	26849
819.2	26998
819.341	27112
819.481	27077
819.622	27123
819.762	27412
819.903	27405
820.043	27344
820.184	27317
820.324	27195
820.465	27382
820.605	27123
820.746	27241
820.886	27081
821.026	27268
821.167	27127
821.307	27173
821.447	27188
821.588	27055
821.728	27005
821.868	26739
822.008	26621
822.149	26511
822.289	26427
822.429	26480
822.569	26199
822.709	26301
822.849	26210
822.99	26210
823.13	26111
823.27	26092
823.41	26043
823.55	25879
823.69	26039
823.83	25928
823.97	25951
824.11	25746
824.25	25723
824.389	25780
824.529	25830
824.669	25693
824.809	25852
824.949	25670
825.089	25704
825.228	25784
825.368	25670
825.508	25548
825.648	25647
825.787	25658
825.927	25651
826.067	25468
826.206	25495
826.346	25674
826.485	25620
826.625	25586
826.765	25628
826.904	25521
827.044	25453
827.183	25449
827.323	25304
827.462	25499
827.601	25320
827.741	25244
827.88	25460
828.02	25187
828.159	25369
828.298	25225
828.437	25293
828.577	25274
828.716	25419
828.855	25263
828.994	24996
829.134	25065
829.273	25084
829.412	25019
829.551	24962
829.69	24958
829.829	25088
829.968	25069
830.107	25126
830.246	25019
830.385	25057
830.524	24947
830.663	24764
830.802	24696
830.941	24719
831.08	24544
831.219	24726
831.357	24681
831.496	24779
831.635	24623
831.774	24563
831.913	24437
832.051	24403
832.19	24414
832.329	24521
832.467	24437
832.606	24254
832.744	24273
832.883	24228
833.022	24292
833.16	24209
833.299	24357
833.437	24380
833.576	24422
833.714	24369
833.852	24369
833.991	24369
834.129	24448
834.267	24414
834.406	24414
834.544	24407
834.682	24330
834.821	24391
834.959	24589
835.097	24350
835.235	24376
835.373	24441
835.511	24209
835.65	24239
835.788	24133
835.926	24121
836.064	24076
836.202	24148
836.34	24136
836.478	24155
836.615	24144
836.753	24144
836.891	24380
837.029	24346
837.167	24186
837.305	24163
837.443	24171
837.58	24155
837.718	24041
837.856	24098
837.993	23901
838.131	23954
838.269	23916
838.406	23866
838.544	23927
838.681	23726
838.819	23646
838.956	23615
839.094	23646
839.231	23478
839.369	23661
839.506	23927
839.643	23969
839.781	23463
839.918	23402
840.055	23524
840.193	23459
840.33	23417
840.467	23364
840.604	23414
840.742	23680
840.879	23318
841.016	23204
841.153	23345
841.29	23417
841.427	23463
841.564	23417
841.701	23360
841.838	23345
841.975	23330
842.112	23337
842.249	23109
842.385	23025
842.522	23398
842.659	23128
842.796	23185
842.933	23124
843.069	23079
843.206	23216
843.343	23261
843.479	23193
843.616	23269
843.752	22976
843.889	22957
844.025	23056
844.162	22957
844.298	23003
844.435	22923
844.571	22930
844.708	22927
844.844	23075
844.98	23010
845.117	23094
845.253	22892
845.389	22740
845.525	22778
845.661	22889
845.798	22611
845.934	22816
846.07	22622
846.206	22733
846.342	22744
846.478	22710
846.614	22360
846.75	22455
846.886	22382
847.022	22386
847.158	22348
847.294	22333
847.429	22459
847.565	22428
847.701	22573
847.837	22181
847.972	22017
848.108	22181
848.244	22249
848.379	22086
848.515	22006
848.65	21991
848.786	22086
848.921	22010
849.057	22059
849.192	22116
849.328	22154
849.463	21880
849.598	21968
849.734	21937
849.869	21838
850.004	21698
850.14	21762
850.275	21743
850.41	21587
850.545	21595
850.68	21663
850.815	21743
850.95	21717
851.085	21983
851.22	21915
851.355	21759
851.49	21587
851.625	21690
851.76	21671
851.895	21633
852.03	21606
852.165	21705
852.299	21812
852.434	21797
852.569	21762
852.703	21724
852.838	21751
852.973	21808
853.107	21918
853.242	21671
853.376	21637
853.511	21515
853.645	21466
853.78	21819
853.914	21603
854.048	21504
854.183	21519
854.317	21660
854.451	21732
854.585	21591
854.72	21572
854.854	21561
854.988	21370
855.122	21549
855.256	21500
855.39	21610
855.524	21694
855.658	21679
855.792	21564
855.926	21610
856.06	21587
856.194	21576
856.327	21656
856.461	21523
856.595	21488
856.729	21519
856.862	21660
856.996	21652
857.13	21660
857.263	21671
857.397	21644
857.53	21538
857.664	21564
857.797	21603
857.931	21724
858.064	21530
858.197	21637
858.331	21500
858.464	21485
858.597	21511
858.731	21515
858.864	21576
858.997	21530
859.13	21576
859.263	21610
859.396	21637
859.529	21618
859.662	21469
859.795	21538
859.928	21511
860.061	21759
860.194	21690
860.327	21599
860.46	21557
860.592	21736
860.725	21675
860.858	21789
860.99	21644
861.123	21530
861.256	21603
861.388	21614
861.521	22246
861.653	21401
861.786	21272
861.918	21370
862.05	21378
862.183	21435
862.315	21526
862.447	21580
862.58	21454
862.712	21359
862.844	21123
862.976	21336
863.108	21275
863.24	21599
863.372	21161
863.504	21268
863.636	21226
863.768	21237
863.9	21157
864.032	21165
864.164	21222
864.296	21355
864.428	21298
864.559	21279
864.691	21302
864.823	21252
864.954	21291
865.086	21428
865.217	21211
865.349	21085
865.48	21211
865.612	21233
865.743	21211
865.875	21233
866.006	21077
866.137	21245
866.269	21096
866.4	21211
866.531	21062
866.662	21104
866.793	21017
866.924	21062
867.055	21066
867.186	21108
867.317	20910
867.448	20914
867.579	21070
867.71	20933
867.841	20986
867.972	21081
868.103	21100
868.233	21195
868.364	21287
868.495	21176
868.625	21237
868.756	21351
868.886	21332
869.017	21351
869.147	21504
869.278	21325
869.408	21412
869.539	21291
869.669	21370
869.799	21348
869.929	21340
870.06	21435
870.19	21538
870.32	21595
870.45	21682
870.58	21698
870.71	21819
870.84	21690
870.97	21610
871.1	21717
871.23	21850
871.36	21960
871.489	21789
871.619	21838
871.749	21865
871.879	22002
872.008	21903
872.138	21888
872.267	21918
872.397	21876
872.526	21713
872.656	21705
872.785	21762
872.915	22051
873.044	21964
873.173	22006
873.303	22055
873.432	22063
873.561	21895
873.69	22010
873.819	21838
873.948	21983
874.077	21937
874.206	21838
874.335	21918
874.464	22048
874.593	22337
874.722	22070
874.851	22223
874.979	22200
875.108	22223
875.237	22131
875.365	22101
875.494	22150
875.623	22070
875.751	22211
875.88	22265
876.008	22314
876.136	22310
876.265	22626
876.393	22508
876.521	22641
876.65	22618
876.778	22557
876.906	22512
877.034	22421
877.162	22580
877.29	22489
877.418	22413
877.546	22592
877.674	22519
877.802	22432
877.93	22497
878.058	22386
878.185	22382
878.313	22409
878.441	22500
878.568	22333
878.696	22459
878.824	22455
878.951	22565
879.079	22759
879.206	22869
879.333	22611
879.461	22500
879.588	22592
879.715	22542
879.842	22736
879.97	22557
880.097	22360
880.224	22261
880.351	22333
880.478	22470
880.605	22223
880.732	22257
880.859	22664
880.986	22379
881.112	22344
881.239	22219
881.366	22131
881.493	22048
881.619	21857
881.746	21937
881.872	21907
881.999	21812
882.125	21926
882.252	21930
882.378	21892
882.505	21926
882.631	21751
882.757	21633
882.883	21709
883.01	21641
883.136	21614
883.262	21428
883.388	21511
883.514	21583
883.64	21671
883.766	21492
883.892	21287
884.018	21416
884.143	21515
884.269	21572
884.395	21275
884.52	21340
884.646	21241
884.772	21203
884.897	21077
885.023	21264
885.148	21321
885.274	21313
885.399	21302
885.524	21230
885.65	21184
885.775	21188
885.9	21192
886.025	21298
886.15	21386
886.275	21138
886.4	21055
886.525	21154
886.65	21116
886.775	21127
886.9	21298
887.025	21473
887.149	21173
887.274	21024
887.399	20963
887.523	20979
887.648	20982
887.773	20944
887.897	21104
888.021	21024
888.146	20971
888.27	21085
888.395	21093
888.519	20982
888.643	21074
888.767	21036
888.891	20948
889.015	20765
889.139	20925
889.263	20838
889.387	20876
889.511	21154
889.635	21070
889.759	20762
889.883	20712
890.006	20906
890.13	20921
890.254	20765
890.377	20727
890.501	20594
890.624	20552
890.748	20724
890.871	20484
890.995	20488
891.118	20347
891.241	20465
891.364	20419
891.488	20473
891.611	20473
891.734	20609
891.857	20530
891.98	20499
892.103	20537
892.226	20374
892.349	20336
892.471	20145
892.594	20332
892.717	20252
892.839	20153
892.962	20320
893.085	20412
893.207	20351
893.33	20142
893.452	20233
893.575	20324
893.697	20263
893.819	20362
893.941	20412
894.064	20473
894.186	20191
894.308	20180
894.43	20324
894.552	20317
894.674	20385
894.796	20248
894.918	20161
895.04	20309
895.161	20343
895.283	20328
895.405	20233
895.526	20248
895.648	20263
895.769	20298
895.891	20278
896.012	20393
896.134	20374
896.255	20229
896.376	20229
896.498	20286
896.619	20252
896.74	20214
896.861	20267
896.982	20609
897.103	20735
897.224	20568
897.345	20541
897.466	20400
897.587	20583
897.708	20739
897.828	20560
897.949	20541
898.07	20218
898.19	20412
898.311	20564
898.431	20473
898.552	20431
898.672	20560
898.792	20568
898.913	20457
899.033	20469
899.153	20298
899.273	20214
899.393	20237
899.513	20267
899.633	20233
899.753	20240
899.873	20248
899.993	20229
900.113	20153
900.232	20256
900.352	20187
900.472	20149
900.591	20008
900.711	20058
900.83	20039
900.95	20054
901.069	20084
901.189	19852
901.308	19719
901.427	19521
901.546	19609
901.665	19601
901.784	19632
901.904	19460
902.023	19358
902.141	19232
902.26	19198
902.379	19221
902.498	19183
902.617	19099
902.735	19091
902.854	19133
902.973	19004
903.091	18852
903.21	18783
903.328	18665
903.446	18719
903.565	18601
903.683	18650
903.801	18460
903.919	18582
904.038	18551
904.156	18369
904.274	18528
904.392	18452
904.51	18414
904.627	18292
904.745	18361
904.863	18441
904.981	18129
905.098	18003
905.216	18026
905.334	18091
905.451	18007
905.569	18011
905.686	18110
905.803	18041
905.921	17870
906.038	17794
906.155	17809
906.272	17741
906.389	17726
906.506	17577
906.623	17623
906.74	17512
906.857	17524
906.974	17543
907.091	17627
907.208	17672
907.324	17630
907.441	17516
907.557	17425
907.674	17254
907.79	17280
907.907	17181
908.023	17395
908.139	17284
908.256	17155
908.372	17261
908.488	17113
908.604	17098
908.72	16923
908.836	17056
908.952	16995
909.068	16976
909.184	17117
909.3	16965
909.415	16984
909.531	16965
909.647	16763
909.762	16733
909.878	16660
909.993	16733
910.108	16752
910.224	16622
910.339	16637
910.454	16580
910.57	16466
910.685	16478
910.8	16736
910.915	16603
911.03	16451
911.145	16455
911.259	16295
911.374	16325
911.489	16280
911.604	16044
911.718	16029
911.833	16063
911.947	15968
912.062	15854
912.176	15994
912.291	16128
912.405	15968
912.519	16177
912.633	16204
912.748	15975
912.862	15991
912.976	15838
913.09	15663
913.204	15720
913.318	15903
913.431	15899
913.545	15949
913.659	15934
913.772	15785
913.886	15667
914	15648
914.113	15637
914.226	15835
914.34	15587
914.453	15542
914.566	15595
914.68	15492
914.793	15469
914.906	15405
915.019	15245
915.132	15241
915.245	15199
915.358	15287
915.47	15173
915.583	15340
915.696	15321
915.809	15393
915.921	15256
916.034	15237
916.146	15214
916.259	15116
916.371	15173
916.483	15116
916.595	14994
916.708	15138
916.82	15077
916.932	15062
917.044	15043
917.156	14944
917.268	14902
917.38	14967
917.491	14842
917.603	14895
917.715	14975
917.826	15017
917.938	14807
918.049	14811
918.161	14857
918.272	14868
918.384	14963
918.495	14758
918.606	14735
918.717	14613
918.828	14712
918.939	14716
919.05	14530
919.161	14659
919.272	14393
919.383	14522
919.494	14583
919.604	14651
919.715	14674
919.826	14579
919.936	14701
920.047	14621
920.157	14621
920.267	14826
920.378	14613
920.488	14571
920.598	14872
920.708	14899
920.818	14716
920.928	14785
921.038	14876
921.148	14845
921.258	14556
921.368	14488
921.477	14381
921.587	14377
921.697	14195
921.806	14298
921.916	14142
922.025	14058
922.134	14050
922.244	13879
922.353	14088
922.462	13883
922.571	13795
922.68	13742
922.789	13639
922.898	13670
923.007	13594
923.116	13700
923.224	13571
923.333	13632
923.442	13464
923.55	13441
923.659	13548
923.767	13537
923.876	13362
923.984	13430
924.092	13449
924.201	13369
924.309	13293
924.417	13422
924.525	13213
924.633	13362
924.741	14054
924.849	13053
924.956	13259
925.064	13027
925.172	12951
925.279	12954
925.387	13099
925.494	12993
925.602	13236
925.709	13080
925.816	12928
925.924	13004
926.031	13118
926.138	12993
926.245	13027
926.352	12928
926.459	12947
926.566	13072
926.673	12848
926.779	12776
926.886	12802
926.993	12582
927.099	12684
927.206	12532
927.312	12631
927.419	12681
927.525	12574
927.631	12608
927.737	12422
927.843	12395
927.95	12338
928.056	12346
928.162	12414
928.267	12395
928.373	13110
928.479	12452
928.585	12228
928.69	12429
928.796	12445
928.901	12232
929.007	12110
929.112	12311
929.218	12277
929.323	12171
929.428	12087
929.533	12243
929.638	12087
929.743	12125
929.848	12121
929.953	12026
930.058	11901
930.163	11859
930.267	11828
930.372	11973
930.477	11752
930.581	11992
930.685	11874
930.79	11752
930.894	11657
930.998	11634
931.103	11790
931.207	11512
931.311	11368
931.415	11372
931.519	11189
931.623	11079
