Data from test_V78500241_1554.txt Node
Date: Fri Mar 25 15:20:40 CST 2022
User: usil
Spectrometer: V785-0024
Trigger mode: 0
Integration Time (sec): 4.000000E-1
Scans to average: 1
Nonlinearity correction enabled: false
Boxcar width: 0
Storing dark spectrum: false
XAxis mode: Wavelengths
Number of Pixels in Spectrum: 1024
>>>>>Begin Spectral Data<<<<<
801.071	27835
801.214	27797
801.356	27519
801.499	27431
801.641	27469
801.783	27431
801.926	27481
802.068	27321
802.211	27241
802.353	27237
802.496	27203
802.638	27062
802.78	27024
802.923	27116
803.065	26963
803.208	27077
803.35	26998
803.492	27157
803.635	27264
803.777	27028
803.919	27272
804.061	27504
804.204	27416
804.346	27085
804.488	27070
804.63	27066
804.773	27123
804.915	27154
805.057	27275
805.199	27203
805.341	27260
805.483	27420
805.626	27268
805.768	27321
805.91	27382
806.052	27488
806.194	27188
806.336	27530
806.478	27401
806.62	27405
806.762	27386
806.904	27553
807.046	27949
807.188	27709
807.33	27816
807.472	27953
807.614	27682
807.756	27808
807.898	27679
808.04	27724
808.182	27690
808.324	27778
808.465	27580
808.607	27857
808.749	28074
808.891	27983
809.033	28131
809.174	27941
809.316	27892
809.458	28044
809.6	28025
809.741	28116
809.883	28120
810.025	28246
810.166	28280
810.308	28291
810.45	28234
810.591	28234
810.733	27991
810.875	27922
811.016	27945
811.158	27911
811.299	28074
811.441	28295
811.582	28249
811.724	27960
811.865	27987
812.007	28025
812.148	27945
812.29	28059
812.431	28181
812.573	28337
812.714	28447
812.855	28523
812.997	28557
813.138	28687
813.279	28577
813.421	28538
813.562	28474
813.703	28143
813.845	28200
813.986	28017
814.127	27778
814.268	27633
814.41	27766
814.551	27583
814.692	27789
814.833	27603
814.974	27682
815.115	27682
815.256	27545
815.397	27564
815.539	27542
815.68	27500
815.821	27450
815.962	27496
816.103	27412
816.244	27325
816.385	27260
816.526	27218
816.666	27036
816.807	26853
816.948	26960
817.089	27058
817.23	26906
817.371	26998
817.512	26963
817.653	26948
817.793	26811
817.934	26883
818.075	26967
818.216	27051
818.356	26872
818.497	26834
818.638	26708
818.778	26682
818.919	26705
819.06	26746
819.2	26849
819.341	26940
819.481	26910
819.622	27005
819.762	27245
819.903	27264
820.043	27211
820.184	27104
820.324	27001
820.465	27184
820.605	27135
820.746	27089
820.886	26887
821.026	27024
821.167	27028
821.307	27116
821.447	27005
821.588	26925
821.728	26705
821.868	26583
822.008	26457
822.149	26499
822.289	26385
822.429	26153
822.569	26008
822.709	26244
822.849	25970
822.99	25913
823.13	25795
823.27	25875
823.41	25708
823.55	25727
823.69	25890
823.83	25712
823.97	25719
824.11	25434
824.25	25518
824.389	25693
824.529	25628
824.669	25487
824.809	25700
824.949	25639
825.089	25559
825.228	25719
825.368	25434
825.508	25479
825.648	25377
825.787	25510
825.927	25460
826.067	25449
826.206	25476
826.346	25331
826.485	25483
826.625	25483
826.765	25521
826.904	25426
827.044	25225
827.183	25148
827.323	25145
827.462	25251
827.601	25148
827.741	25145
827.88	25187
828.02	24989
828.159	25004
828.298	25251
828.437	25308
828.577	25171
828.716	25187
828.855	25088
828.994	24852
829.134	24913
829.273	24928
829.412	24814
829.551	24639
829.69	24973
829.829	24863
829.968	25023
830.107	24958
830.246	24848
830.385	24791
830.524	24738
830.663	24597
830.802	24627
830.941	24422
831.08	24471
831.219	24711
831.357	24582
831.496	24783
831.635	24494
831.774	24300
831.913	24334
832.051	24197
832.19	24407
832.329	24273
832.467	24167
832.606	24064
832.744	24072
832.883	24209
833.022	24152
833.16	24258
833.299	24087
833.437	24045
833.576	24304
833.714	24228
833.852	24148
833.991	24239
834.129	24178
834.267	24311
834.406	24220
834.544	24304
834.682	24129
834.821	24155
834.959	24273
835.097	24030
835.235	24152
835.373	24163
835.511	24311
835.65	24064
835.788	24220
835.926	23992
836.064	23939
836.202	23821
836.34	24079
836.478	24114
836.615	24136
836.753	24079
836.891	24095
837.029	24102
837.167	23882
837.305	23847
837.443	23893
837.58	23882
837.718	23942
837.856	23946
837.993	23821
838.131	23809
838.269	23767
838.406	23817
838.544	23649
838.681	23497
838.819	23524
838.956	23433
839.094	23231
839.231	23490
839.369	23505
839.506	23821
839.643	23581
839.781	23334
839.918	23261
840.055	23402
840.193	23337
840.33	23204
840.467	23254
840.604	23311
840.742	23551
840.879	23105
841.016	23189
841.153	23109
841.29	23322
841.427	23326
841.564	23307
841.701	23250
841.838	23277
841.975	23162
842.112	23128
842.249	23113
842.385	22904
842.522	23265
842.659	23121
842.796	22904
842.933	23056
843.069	22965
843.206	22957
843.343	23102
843.479	23048
843.616	22927
843.752	22812
843.889	22790
844.025	22953
844.162	22717
844.298	22892
844.435	22908
844.571	22771
844.708	22759
844.844	22987
844.98	22850
845.117	22889
845.253	22778
845.389	22538
845.525	22729
845.661	22740
845.798	22573
845.934	22649
846.07	22489
846.206	22561
846.342	22607
846.478	22318
846.614	22188
846.75	22169
846.886	22150
847.022	22284
847.158	22226
847.294	22257
847.429	22276
847.565	22253
847.701	22405
847.837	22032
847.972	21907
848.108	21918
848.244	22013
848.379	21903
848.515	21854
848.65	21846
848.786	21873
848.921	21956
849.057	21979
849.192	22070
849.328	21865
849.463	21831
849.598	21732
849.734	21736
849.869	21679
850.004	21545
850.14	21720
850.275	21622
850.41	21507
850.545	21580
850.68	21557
850.815	21633
850.95	21591
851.085	21797
851.22	21660
851.355	21682
851.49	21641
851.625	21622
851.76	21675
851.895	21458
852.03	21572
852.165	21709
852.299	21564
852.434	21793
852.569	21622
852.703	21690
852.838	21679
852.973	21747
853.107	21724
853.242	21656
853.376	21454
853.511	21287
853.645	21443
853.78	21511
853.914	21382
854.048	21283
854.183	21386
854.317	21389
854.451	21538
854.585	21359
854.72	21405
854.854	21408
854.988	21291
855.122	21454
855.256	21325
855.39	21397
855.524	21526
855.658	21477
855.792	21405
855.926	21545
856.06	21458
856.194	21439
856.327	21485
856.461	21370
856.595	21557
856.729	21424
856.862	21599
856.996	21374
857.13	21393
857.263	21534
857.397	21500
857.53	21416
857.664	21519
857.797	21416
857.931	21462
858.064	21618
858.197	21504
858.331	21378
858.464	21363
858.597	21344
858.731	21424
858.864	21492
858.997	21310
859.13	21447
859.263	21348
859.396	21507
859.529	21462
859.662	21439
859.795	21367
859.928	21393
860.061	21583
860.194	21682
860.327	21583
860.46	21500
860.592	21629
860.725	21492
860.858	21545
860.99	21450
861.123	21249
861.256	21317
861.388	21424
861.521	22181
861.653	21218
861.786	21173
861.918	21287
862.05	21218
862.183	21203
862.315	21370
862.447	21351
862.58	21287
862.712	21207
862.844	21131
862.976	21135
863.108	21230
863.24	21488
863.372	21173
863.504	21096
863.636	21135
863.768	21233
863.9	21135
864.032	21116
864.164	21070
864.296	21218
864.428	21283
864.559	21184
864.691	21142
864.823	21188
864.954	21123
865.086	21123
865.217	21100
865.349	20990
865.48	20941
865.612	20967
865.743	21146
865.875	21096
866.006	20944
866.137	21001
866.269	20986
866.4	21009
866.531	20857
866.662	20960
866.793	20857
866.924	20906
867.055	20937
867.186	20838
867.317	20933
867.448	20754
867.579	20925
867.71	20811
867.841	20872
867.972	21043
868.103	20960
868.233	21017
868.364	21020
868.495	20998
868.625	21169
868.756	21336
868.886	21214
869.017	21230
869.147	21351
869.278	21287
869.408	21161
869.539	21142
869.669	21222
869.799	21184
869.929	21412
870.06	21264
870.19	21450
870.32	21408
870.45	21408
870.58	21595
870.71	21690
870.84	21663
870.97	21671
871.1	21652
871.23	21804
871.36	21857
871.489	21610
871.619	21751
871.749	21785
871.879	21838
872.008	21911
872.138	21720
872.267	21747
872.397	21713
872.526	21557
872.656	21637
872.785	21660
872.915	21888
873.044	21953
873.173	21720
873.303	21937
873.432	21884
873.561	21915
873.69	21880
873.819	21907
873.948	21842
874.077	21861
874.206	21732
874.335	21728
874.464	21987
874.593	22067
874.722	21892
874.851	22082
874.979	22063
875.108	22101
875.237	21869
875.365	21907
875.494	22002
875.623	22147
875.751	21854
875.88	21998
876.008	22147
876.136	22238
876.265	22424
876.393	22497
876.521	22550
876.65	22371
876.778	22386
876.906	22428
877.034	22306
877.162	22402
877.29	22344
877.418	22314
877.546	22489
877.674	22402
877.802	22421
877.93	22363
878.058	22367
878.185	22226
878.313	22386
878.441	22367
878.568	22207
878.696	22322
878.824	22295
878.951	22413
879.079	22569
879.206	22596
879.333	22603
879.461	22447
879.588	22462
879.715	22512
879.842	22767
879.97	22409
880.097	22169
880.224	22078
880.351	22299
880.478	22185
880.605	22215
880.732	22169
880.859	22341
880.986	22215
881.112	22295
881.239	22082
881.366	21873
881.493	21884
881.619	21781
881.746	21812
881.872	21671
881.999	21679
882.125	21675
882.252	21762
882.378	21774
882.505	21804
882.631	21671
882.757	21424
882.883	21492
883.01	21523
883.136	21348
883.262	21317
883.388	21386
883.514	21458
883.64	21500
883.766	21382
883.892	21211
884.018	21291
884.143	21477
884.269	21519
884.395	21252
884.52	21074
884.646	21150
884.772	21043
884.897	21081
885.023	21032
885.148	21256
885.274	21279
885.399	21100
885.524	21081
885.65	21176
885.775	21112
885.9	21127
886.025	21150
886.15	21096
886.275	21047
886.4	20925
886.525	21245
886.65	21081
886.775	20998
886.9	21245
887.025	21260
887.149	21066
887.274	20925
887.399	20990
887.523	20944
887.648	20777
887.773	20853
887.897	20914
888.021	20914
888.146	20899
888.27	20960
888.395	21013
888.519	20925
888.643	20834
888.767	20880
888.891	20834
889.015	20689
889.139	20667
889.263	20686
889.387	20834
889.511	20876
889.635	20902
889.759	20667
889.883	20613
890.006	20720
890.13	20651
890.254	20514
890.377	20575
890.501	20499
890.624	20476
890.748	20488
890.871	20282
890.995	20142
891.118	20240
891.241	20225
891.364	20294
891.488	20381
891.611	20202
891.734	20294
891.857	20229
891.98	20183
892.103	20282
892.226	20157
892.349	20240
892.471	20145
892.594	20199
892.717	20149
892.839	20149
892.962	20130
893.085	20252
893.207	19947
893.33	20035
893.452	20065
893.575	20252
893.697	20126
893.819	20275
893.941	20324
894.064	20320
894.186	20050
894.308	20046
894.43	20221
894.552	20267
894.674	20168
894.796	20100
894.918	20096
895.04	20111
895.161	20164
895.283	20199
895.405	20031
895.526	20183
895.648	20058
895.769	20142
895.891	20107
896.012	20221
896.134	20256
896.255	20130
896.376	20199
896.498	20069
896.619	20157
896.74	20111
896.861	20180
896.982	20492
897.103	20670
897.224	20370
897.345	20332
897.466	20320
897.587	20343
897.708	20530
897.828	20362
897.949	20377
898.07	20252
898.19	20252
898.311	20427
898.431	20256
898.552	20362
898.672	20415
898.792	20271
898.913	20389
899.033	20278
899.153	20191
899.273	20157
899.393	20126
899.513	20092
899.633	20180
899.753	20187
899.873	20005
899.993	20062
900.113	19997
900.232	20134
900.352	20073
900.472	20050
900.591	19940
900.711	19864
900.83	19860
900.95	19936
901.069	19940
901.189	19875
901.308	19556
901.427	19590
901.546	19556
901.665	19476
901.784	19441
901.904	19244
902.023	19251
902.141	19076
902.26	18962
902.379	19133
902.498	19072
902.617	18897
902.735	18943
902.854	18916
902.973	18913
903.091	18734
903.21	18684
903.328	18658
903.446	18612
903.565	18502
903.683	18528
903.801	18350
903.919	18517
904.038	18448
904.156	18270
904.274	18361
904.392	18194
904.51	18136
904.627	18174
904.745	18251
904.863	18209
904.981	18087
905.098	17977
905.216	17996
905.334	17973
905.451	17882
905.569	17874
905.686	17958
905.803	17843
905.921	17596
906.038	17771
906.155	17737
906.272	17592
906.389	17562
906.506	17429
906.623	17398
906.74	17345
906.857	17330
906.974	17334
907.091	17482
907.208	17581
907.324	17406
907.441	17349
907.557	17200
907.674	17128
907.79	17151
907.907	17117
908.023	17117
908.139	17083
908.256	17052
908.372	16915
908.488	16987
908.604	16900
908.72	16885
908.836	16869
908.952	16835
909.068	16911
909.184	16953
909.3	16900
909.415	16869
909.531	16824
909.647	16611
909.762	16656
909.878	16622
909.993	16592
910.108	16535
910.224	16519
910.339	16561
910.454	16348
910.57	16386
910.685	16341
910.8	16519
910.915	16504
911.03	16371
911.145	16177
911.259	16112
911.374	16219
911.489	16067
911.604	16029
911.718	15941
911.833	15884
911.947	15842
912.062	15686
912.176	15884
912.291	15865
912.405	15888
912.519	16048
912.633	16051
912.748	15983
912.862	15892
912.976	15739
913.09	15656
913.204	15701
913.318	15789
913.431	15808
913.545	15838
913.659	15770
913.772	15747
913.886	15507
914	15504
914.113	15610
914.226	15690
914.34	15580
914.453	15367
914.566	15576
914.68	15424
914.793	15363
914.906	15169
915.019	15150
915.132	15161
915.245	15142
915.358	15184
915.47	15097
915.583	15108
915.696	15081
915.809	15218
915.921	15283
916.034	15127
916.146	15123
916.259	14994
916.371	15085
916.483	15047
916.595	14883
916.708	14887
916.82	14960
916.932	14952
917.044	14853
917.156	14933
917.268	14811
917.38	14842
917.491	14800
917.603	14720
917.715	14819
917.826	14807
917.938	14708
918.049	14602
918.161	14727
918.272	14838
918.384	14880
918.495	14697
918.606	14636
918.717	14560
918.828	14575
918.939	14613
919.05	14469
919.161	14473
919.272	14275
919.383	14377
919.494	14579
919.604	14598
919.715	14514
919.826	14396
919.936	14454
920.047	14556
920.157	14492
920.267	14712
920.378	14602
920.488	14434
920.598	14583
920.708	14762
920.818	14686
920.928	14568
921.038	14743
921.148	14678
921.258	14423
921.368	14309
921.477	14358
921.587	14202
921.697	14039
921.806	14347
921.916	14035
922.025	13936
922.134	13837
922.244	13845
922.353	13951
922.462	13727
922.571	13742
922.68	13552
922.789	13514
922.898	13491
923.007	13495
923.116	13567
923.224	13521
923.333	13514
923.442	13415
923.55	13373
923.659	13369
923.767	13415
923.876	13255
923.984	13400
924.092	13202
924.201	13335
924.309	13316
924.417	13236
924.525	13232
924.633	13156
924.741	14008
924.849	13050
924.956	13095
925.064	12970
925.172	12966
925.279	12920
925.387	12993
925.494	12890
925.602	13046
925.709	12897
925.816	12844
925.924	12897
926.031	12932
926.138	12863
926.245	12863
926.352	12768
926.459	12928
926.566	12897
926.673	12795
926.779	12688
926.886	12662
926.993	12494
927.099	12448
927.206	12486
927.312	12479
927.419	12509
927.525	12486
927.631	12521
927.737	12391
927.843	12407
927.95	12277
928.056	12289
928.162	12353
928.267	12323
928.373	13061
928.479	12441
928.585	12228
928.69	12300
928.796	12243
928.901	12243
929.007	12064
929.112	12213
929.218	12136
929.323	12053
929.428	12079
929.533	12247
929.638	11946
929.743	12038
929.848	12068
929.953	11904
930.058	11916
930.163	11786
930.267	11764
930.372	11843
930.477	11653
930.581	11988
930.685	11824
930.79	11657
930.894	11665
930.998	11611
931.103	11646
931.207	11433
931.311	11292
931.415	11231
931.519	10984
931.623	10957
