Data from test_V78500241_3619.txt Node
Date: Fri Mar 25 15:35:03 CST 2022
User: usil
Spectrometer: V785-0024
Trigger mode: 0
Integration Time (sec): 4.000000E-1
Scans to average: 1
Nonlinearity correction enabled: false
Boxcar width: 0
Storing dark spectrum: false
XAxis mode: Wavelengths
Number of Pixels in Spectrum: 1024
>>>>>Begin Spectral Data<<<<<
801.071	27374
801.214	27355
801.356	27264
801.499	27036
801.641	26975
801.783	27020
801.926	27039
802.068	27055
802.211	26868
802.353	26804
802.496	26545
802.638	26629
802.78	26419
802.923	26495
803.065	26453
803.208	26248
803.35	26484
803.492	26613
803.635	26712
803.777	26697
803.919	26754
804.061	26940
804.204	26792
804.346	26682
804.488	26587
804.63	26750
804.773	26560
804.915	26697
805.057	26845
805.199	26781
805.341	26819
805.483	26937
805.626	26838
805.768	26746
805.91	26788
806.052	26777
806.194	26872
806.336	26834
806.478	26880
806.62	26781
806.762	26925
806.904	27089
807.046	27306
807.188	27245
807.33	27226
807.472	27176
807.614	27154
807.756	27207
807.898	27146
808.04	26902
808.182	27058
808.324	26952
808.465	27173
808.607	27264
808.749	27473
808.891	27507
809.033	27523
809.174	27393
809.316	27439
809.458	27507
809.6	27420
809.741	27351
809.883	27523
810.025	27622
810.166	27629
810.308	27774
810.45	27713
810.591	27561
810.733	27462
810.875	27340
811.016	27313
811.158	27389
811.299	27469
811.441	27629
811.582	27466
811.724	27412
811.865	27405
812.007	27500
812.148	27561
812.29	27454
812.431	27564
812.573	27812
812.714	27892
812.855	28044
812.997	28093
813.138	28082
813.279	28044
813.421	27800
813.562	27804
813.703	27800
813.845	27656
813.986	27393
814.127	27119
814.268	27096
814.41	26971
814.551	27020
814.692	27199
814.833	27085
814.974	27013
815.115	27066
815.256	26986
815.397	26982
815.539	26948
815.68	26918
815.821	26648
815.962	26971
816.103	26880
816.244	26754
816.385	26781
816.526	26571
816.666	26332
816.807	26347
816.948	26431
817.089	26549
817.23	26396
817.371	26202
817.512	26415
817.653	26366
817.793	26218
817.934	26244
818.075	26484
818.216	26419
818.356	26374
818.497	26237
818.638	26088
818.778	26027
818.919	26168
819.06	26054
819.2	26282
819.341	26294
819.481	26377
819.622	26434
819.762	26701
819.903	26545
820.043	26404
820.184	26453
820.324	26374
820.465	26526
820.605	26377
820.746	26446
820.886	26290
821.026	26396
821.167	26431
821.307	26484
821.447	26514
821.588	26271
821.728	26096
821.868	25936
822.008	25830
822.149	25803
822.289	25826
822.429	25605
822.569	25533
822.709	25358
822.849	25312
822.99	25308
823.13	25384
823.27	25346
823.41	25263
823.55	25065
823.69	25114
823.83	25164
823.97	25023
824.11	24852
824.25	24856
824.389	25004
824.529	24935
824.669	24932
824.809	25053
824.949	25000
825.089	25023
825.228	25023
825.368	24753
825.508	24856
825.648	24943
825.787	24848
825.927	24764
826.067	24863
826.206	24920
826.346	24856
826.485	25008
826.625	24810
826.765	25019
826.904	24825
827.044	24612
827.183	24650
827.323	24536
827.462	24612
827.601	24544
827.741	24627
827.88	24513
828.02	24372
828.159	24410
828.298	24547
828.437	24578
828.577	24391
828.716	24654
828.855	24521
828.994	24247
829.134	24304
829.273	24289
829.412	24213
829.551	24102
829.69	24232
829.829	24277
829.968	24273
830.107	24441
830.246	24350
830.385	24289
830.524	24022
830.663	24140
830.802	23961
830.941	23760
831.08	23889
831.219	23870
831.357	24007
831.496	24011
831.635	23901
831.774	23794
831.913	23745
832.051	23764
832.19	23687
832.329	23665
832.467	23543
832.606	23573
832.744	23433
832.883	23611
833.022	23566
833.16	23543
833.299	23577
833.437	23566
833.576	23649
833.714	23604
833.852	23558
833.991	23726
834.129	23604
834.267	23676
834.406	23672
834.544	23642
834.682	23748
834.821	23608
834.959	23878
835.097	23509
835.235	23680
835.373	23642
835.511	23604
835.65	23478
835.788	23589
835.926	23471
836.064	23330
836.202	23288
836.34	23414
836.478	23634
836.615	23467
836.753	23520
836.891	23585
837.029	23516
837.167	23429
837.305	23280
837.443	23376
837.58	23299
837.718	23334
837.856	23429
837.993	23231
838.131	23372
838.269	23166
838.406	23170
838.544	23056
838.681	22854
838.819	22942
838.956	22843
839.094	22839
839.231	22786
839.369	22953
839.506	23216
839.643	23075
839.781	22763
839.918	22759
840.055	22866
840.193	22786
840.33	22637
840.467	22710
840.604	22740
840.742	23025
840.879	22584
841.016	22683
841.153	22679
841.29	22904
841.427	22588
841.564	22683
841.701	22717
841.838	22626
841.975	22660
842.112	22596
842.249	22538
842.385	22596
842.522	22725
842.659	22580
842.796	22447
842.933	22508
843.069	22474
843.206	22386
843.343	22611
843.479	22489
843.616	22470
843.752	22204
843.889	22363
844.025	22280
844.162	22242
844.298	22329
844.435	22280
844.571	22204
844.708	22230
844.844	22474
844.98	22466
845.117	22314
845.253	22211
845.389	22120
845.525	22287
845.661	22207
845.798	22055
845.934	22078
846.07	21884
846.206	22051
846.342	22105
846.478	22029
846.614	21667
846.75	21804
846.886	21873
847.022	21907
847.158	21789
847.294	21880
847.429	21747
847.565	21686
847.701	22025
847.837	21530
847.972	21416
848.108	21686
848.244	21488
848.379	21431
848.515	21340
848.65	21412
848.786	21294
848.921	21306
849.057	21534
849.192	21393
849.328	21386
849.463	21348
849.598	21275
849.734	21237
849.869	21260
850.004	21070
850.14	21096
850.275	21180
850.41	21074
850.545	21036
850.68	20986
850.815	21176
850.95	21085
851.085	21260
851.22	21188
851.355	21154
851.49	21036
851.625	21077
851.76	21047
851.895	20998
852.03	21096
852.165	21116
852.299	21230
852.434	21195
852.569	21154
852.703	21066
852.838	21074
852.973	21070
853.107	21211
853.242	21020
853.376	20880
853.511	20800
853.645	20861
853.78	20975
853.914	20986
854.048	20975
854.183	20785
854.317	20975
854.451	21089
854.585	20876
854.72	20861
854.854	21005
854.988	20765
855.122	20967
855.256	20815
855.39	20887
855.524	21020
855.658	20853
855.792	20815
855.926	21017
856.06	20963
856.194	21032
856.327	20876
856.461	20880
856.595	20891
856.729	20849
856.862	21005
856.996	20971
857.13	21074
857.263	21051
857.397	21100
857.53	20838
857.664	20944
857.797	20952
857.931	21024
858.064	20906
858.197	20967
858.331	20838
858.464	20986
858.597	20781
858.731	20902
858.864	20785
858.997	20921
859.13	20914
859.263	20967
859.396	20952
859.529	20861
859.662	20769
859.795	20929
859.928	20807
860.061	21077
860.194	21116
860.327	20887
860.46	20929
860.592	21017
860.725	21074
860.858	21043
860.99	20933
861.123	20811
861.256	20750
861.388	20861
861.521	21660
861.653	20807
861.786	20739
861.918	20735
862.05	20830
862.183	20883
862.315	20864
862.447	20982
862.58	20868
862.712	20697
862.844	20579
862.976	20701
863.108	20804
863.24	21032
863.372	20568
863.504	20644
863.636	20659
863.768	20705
863.9	20609
864.032	20731
864.164	20583
864.296	20678
864.428	20826
864.559	20629
864.691	20746
864.823	20613
864.954	20609
865.086	20625
865.217	20571
865.349	20412
865.48	20545
865.612	20621
865.743	20644
865.875	20564
866.006	20499
866.137	20552
866.269	20514
866.4	20511
866.531	20465
866.662	20514
866.793	20473
866.924	20442
867.055	20484
867.186	20511
867.317	20503
867.448	20389
867.579	20476
867.71	20328
867.841	20419
867.972	20465
868.103	20457
868.233	20431
868.364	20606
868.495	20434
868.625	20590
868.756	20667
868.886	20583
869.017	20648
869.147	20758
869.278	20921
869.408	20811
869.539	20701
869.669	20781
869.799	20712
869.929	20937
870.06	20785
870.19	21043
870.32	21020
870.45	21005
870.58	21135
870.71	21310
870.84	21203
870.97	21104
871.1	21161
871.23	21245
871.36	21363
871.489	21188
871.619	21275
871.749	21317
871.879	21340
872.008	21340
872.138	21370
872.267	21405
872.397	21203
872.526	20994
872.656	21180
872.785	21154
872.915	21439
873.044	21397
873.173	21469
873.303	21336
873.432	21447
873.561	21416
873.69	21412
873.819	21302
873.948	21382
874.077	21294
874.206	21351
874.335	21283
874.464	21549
874.593	21576
874.722	21500
874.851	21614
874.979	21724
875.108	21652
875.237	21542
875.365	21515
875.494	21660
875.623	21781
875.751	21644
875.88	21576
876.008	21705
876.136	21701
876.265	22040
876.393	22101
876.521	22082
876.65	21979
876.778	21987
876.906	21800
877.034	21945
877.162	22040
877.29	21953
877.418	22025
877.546	21934
877.674	21800
877.802	21869
877.93	21941
878.058	21857
878.185	21671
878.313	21888
878.441	21960
878.568	21766
878.696	21888
878.824	21899
878.951	22036
879.079	22120
879.206	22200
879.333	22090
879.461	21907
879.588	22063
879.715	22128
879.842	22238
879.97	21987
880.097	21698
880.224	21739
880.351	21846
880.478	21747
880.605	21873
880.732	21873
880.859	22010
880.986	21770
881.112	21880
881.239	21572
881.366	21523
881.493	21553
881.619	21310
881.746	21302
881.872	21378
881.999	21279
882.125	21184
882.252	21378
882.378	21344
882.505	21408
882.631	21214
882.757	21062
882.883	21104
883.01	20979
883.136	20967
883.262	20933
883.388	20834
883.514	20994
883.64	21154
883.766	21081
883.892	20921
884.018	20899
884.143	21055
884.269	21093
884.395	20758
884.52	20819
884.646	20686
884.772	20568
884.897	20640
885.023	20781
885.148	20750
885.274	20845
885.399	20849
885.524	20720
885.65	20792
885.775	20689
885.9	20571
886.025	20811
886.15	20815
886.275	20701
886.4	20602
886.525	20636
886.65	20594
886.775	20575
886.9	20735
887.025	20815
887.149	20598
887.274	20450
887.399	20537
887.523	20522
887.648	20370
887.773	20484
887.897	20579
888.021	20568
888.146	20355
888.27	20457
888.395	20454
888.519	20545
888.643	20518
888.767	20606
888.891	20320
889.015	20313
889.139	20317
889.263	20191
889.387	20351
889.511	20484
889.635	20366
889.759	20218
889.883	20225
890.006	20294
890.13	20332
890.254	20161
890.377	20221
890.501	19936
890.624	20058
890.748	19997
890.871	19986
890.995	19712
891.118	19780
891.241	19799
891.364	19875
891.488	19898
891.611	19822
891.734	19830
891.857	19845
891.98	19795
892.103	19963
892.226	19833
892.349	19868
892.471	19700
892.594	19655
892.717	19795
892.839	19666
892.962	19746
893.085	19712
893.207	19693
893.33	19620
893.452	19643
893.575	19738
893.697	19643
893.819	19845
893.941	19883
894.064	19833
894.186	19700
894.308	19700
894.43	19890
894.552	19921
894.674	19841
894.796	19708
894.918	19772
895.04	19689
895.161	19780
895.283	19780
895.405	19651
895.526	19750
895.648	19791
895.769	19742
895.891	19757
896.012	19868
896.134	19776
896.255	19807
896.376	19712
896.498	19799
896.619	19849
896.74	19879
896.861	19833
896.982	20081
897.103	20210
897.224	19928
897.345	19982
897.466	19967
897.587	20020
897.708	20008
897.828	20020
897.949	19868
898.07	19677
898.19	19841
898.311	20107
898.431	19898
898.552	19978
898.672	20157
898.792	20008
898.913	19864
899.033	19696
899.153	19890
899.273	19742
899.393	19704
899.513	19750
899.633	19689
899.753	19700
899.873	19693
899.993	19727
900.113	19609
900.232	19689
900.352	19529
900.472	19483
900.591	19384
900.711	19586
900.83	19419
900.95	19643
901.069	19643
901.189	19324
901.308	19187
901.427	19031
901.546	19065
901.665	19065
901.784	19145
901.904	18981
902.023	18890
902.141	18726
902.26	18604
902.379	18669
902.498	18604
902.617	18479
902.735	18551
902.854	18441
902.973	18464
903.091	18220
903.21	18346
903.328	18315
903.446	18106
903.565	18129
903.683	18076
903.801	17897
903.919	18087
904.038	18057
904.156	17939
904.274	17904
904.392	17961
904.51	17794
904.627	17805
904.745	17942
904.863	17935
904.981	17627
905.098	17592
905.216	17573
905.334	17535
905.451	17577
905.569	17585
905.686	17455
905.803	17467
905.921	17345
906.038	17459
906.155	17372
906.272	17246
906.389	17181
906.506	17117
906.623	17174
906.74	16980
906.857	17022
906.974	16972
907.091	17098
907.208	17197
907.324	17067
907.441	16934
907.557	16877
907.674	16763
907.79	16694
907.907	16801
908.023	16725
908.139	16763
908.256	16752
908.372	16748
908.488	16558
908.604	16569
908.72	16466
908.836	16550
908.952	16546
909.068	16512
909.184	16664
909.3	16489
909.415	16538
909.531	16592
909.647	16341
909.762	16325
909.878	16192
909.993	16226
910.108	16226
910.224	16166
910.339	16344
910.454	16101
910.57	16055
910.685	15918
910.8	16253
910.915	16173
911.03	16131
911.145	15903
911.259	15854
911.374	15800
911.489	15679
911.604	15720
911.718	15534
911.833	15610
911.947	15466
912.062	15416
912.176	15606
912.291	15644
912.405	15648
912.519	15743
912.633	15819
912.748	15736
912.862	15511
912.976	15412
913.09	15298
913.204	15336
913.318	15469
913.431	15428
913.545	15443
913.659	15542
913.772	15222
913.886	15268
914	15268
914.113	15325
914.226	15359
914.34	15310
914.453	15207
914.566	15272
914.68	15104
914.793	15043
914.906	15001
915.019	14929
915.132	14861
915.245	14834
915.358	14861
915.47	14838
915.583	14796
915.696	14864
915.809	14830
915.921	15024
916.034	14746
916.146	14769
916.259	14712
916.371	14811
916.483	14735
916.595	14686
916.708	14659
916.82	14689
916.932	14651
917.044	14575
917.156	14640
917.268	14511
917.38	14507
917.491	14499
917.603	14594
917.715	14537
917.826	14602
917.938	14377
918.049	14267
918.161	14522
918.272	14617
918.384	14533
918.495	14286
918.606	14248
918.717	14278
918.828	14298
918.939	14343
919.05	14123
919.161	14282
919.272	13959
919.383	14123
919.494	14271
919.604	14457
919.715	14237
919.826	14077
919.936	14221
920.047	14248
920.157	14233
920.267	14396
920.378	14286
920.488	14138
920.598	14362
920.708	14476
920.818	14404
920.928	14396
921.038	14465
921.148	14431
921.258	14256
921.368	14092
921.477	13967
921.587	13906
921.697	13864
921.806	13944
921.916	13803
922.025	13674
922.134	13639
922.244	13601
922.353	13662
922.462	13575
922.571	13453
922.68	13308
922.789	13133
922.898	13255
923.007	13282
923.116	13263
923.224	13247
923.333	13175
923.442	13057
923.55	13069
923.659	13114
923.767	13103
923.876	13061
923.984	13156
924.092	13061
924.201	13129
924.309	13053
924.417	13042
924.525	12951
924.633	12886
924.741	13887
924.849	12707
924.956	12821
925.064	12722
925.172	12677
925.279	12703
925.387	12631
925.494	12566
925.602	12741
925.709	12700
925.816	12616
925.924	12719
926.031	12764
926.138	12715
926.245	12684
926.352	12604
926.459	12681
926.566	12692
926.673	12593
926.779	12403
926.886	12407
926.993	12300
927.099	12327
927.206	12243
927.312	12220
927.419	12228
927.525	12239
927.631	12262
927.737	12178
927.843	12076
927.95	12022
928.056	12068
928.162	12083
928.267	12133
928.373	12631
928.479	12205
928.585	11950
928.69	12007
928.796	12072
928.901	11950
929.007	11843
929.112	11973
929.218	11920
929.323	11805
929.428	11817
929.533	11942
929.638	11783
929.743	11771
929.848	11855
929.953	11771
930.058	11630
930.163	11539
930.267	11505
930.372	11649
930.477	11463
930.581	11619
930.685	11634
930.79	11425
930.894	11379
930.998	11318
931.103	11459
931.207	11109
931.311	11109
931.415	10980
931.519	10866
931.623	10725
