Data from test_V78500241_994.txt Node
Date: Fri Mar 25 15:16:47 CST 2022
User: usil
Spectrometer: V785-0024
Trigger mode: 0
Integration Time (sec): 4.000000E-1
Scans to average: 1
Nonlinearity correction enabled: false
Boxcar width: 0
Storing dark spectrum: false
XAxis mode: Wavelengths
Number of Pixels in Spectrum: 1024
>>>>>Begin Spectral Data<<<<<
801.071	28481
801.214	28295
801.356	28086
801.499	28097
801.641	27960
801.783	28078
801.926	27991
802.068	27804
802.211	27899
802.353	27747
802.496	27637
802.638	27610
802.78	27770
802.923	27618
803.065	27568
803.208	27698
803.35	27576
803.492	27679
803.635	27774
803.777	27675
803.919	27850
804.061	28040
804.204	27808
804.346	27728
804.488	27720
804.63	27785
804.773	27762
804.915	27953
805.057	27987
805.199	27888
805.341	27789
805.483	27934
805.626	27911
805.768	27747
805.91	27918
806.052	27914
806.194	27816
806.336	28246
806.478	27956
806.62	27945
806.762	28067
806.904	28196
807.046	28436
807.188	28322
807.33	28356
807.472	28504
807.614	28325
807.756	28291
807.898	28329
808.04	28261
808.182	28265
808.324	28230
808.465	28299
808.607	28611
808.749	28622
808.891	28649
809.033	28782
809.174	28626
809.316	28527
809.458	28702
809.6	28630
809.741	28816
809.883	28755
810.025	28949
810.166	28949
810.308	28904
810.45	28915
810.591	29037
810.733	28645
810.875	28630
811.016	28565
811.158	28569
811.299	28763
811.441	28888
811.582	28774
811.724	28637
811.865	28599
812.007	28615
812.148	28523
812.29	28649
812.431	28923
812.573	29128
812.714	29216
812.855	29208
812.997	29277
813.138	29406
813.279	29254
813.421	29197
813.562	29174
813.703	28972
813.845	28801
813.986	28694
814.127	28367
814.268	28356
814.41	28390
814.551	28287
814.692	28371
814.833	28352
814.974	28310
815.115	28500
815.256	28204
815.397	28306
815.539	28322
815.68	28120
815.821	28063
815.962	28185
816.103	28200
816.244	28017
816.385	27884
816.526	27983
816.666	27751
816.807	27717
816.948	27633
817.089	27705
817.23	27770
817.371	27762
817.512	27583
817.653	27641
817.793	27720
817.934	27675
818.075	27606
818.216	27785
818.356	27694
818.497	27701
818.638	27534
818.778	27466
818.919	27367
819.06	27519
819.2	27622
819.341	27561
819.481	27652
819.622	27785
819.762	27979
819.903	28010
820.043	27854
820.184	27785
820.324	27884
820.465	27987
820.605	27747
820.746	27911
820.886	27587
821.026	27884
821.167	27762
821.307	27987
821.447	27690
821.588	27564
821.728	27610
821.868	27416
822.008	27218
822.149	27131
822.289	27116
822.429	26933
822.569	26967
822.709	26674
822.849	26682
822.99	26735
823.13	26689
823.27	26701
823.41	26473
823.55	26351
823.69	26552
823.83	26442
823.97	26434
824.11	26294
824.25	26218
824.389	26256
824.529	26374
824.669	26355
824.809	26579
824.949	26450
825.089	26313
825.228	26499
825.368	26199
825.508	26157
825.648	26237
825.787	26301
825.927	26366
826.067	26058
826.206	26248
826.346	26206
826.485	26252
826.625	26164
826.765	26313
826.904	26240
827.044	26005
827.183	26020
827.323	25925
827.462	25868
827.601	25966
827.741	25883
827.88	25986
828.02	25818
828.159	25966
828.298	25898
828.437	25932
828.577	26012
828.716	26046
828.855	25928
828.994	25571
829.134	25586
829.273	25731
829.412	25647
829.551	25506
829.69	25616
829.829	25628
829.968	25674
830.107	25830
830.246	25571
830.385	25601
830.524	25571
830.663	25438
830.802	25377
830.941	25308
831.08	25137
831.219	25384
831.357	25251
831.496	25460
831.635	25236
831.774	25156
831.913	25015
832.051	25118
832.19	25027
832.329	25160
832.467	25038
832.606	24894
832.744	24935
832.883	24996
833.022	24989
833.16	24985
833.299	24951
833.437	25053
833.576	25099
833.714	25015
833.852	25061
833.991	25061
834.129	25160
834.267	25148
834.406	25015
834.544	25023
834.682	24970
834.821	24886
834.959	25247
835.097	24981
835.235	25122
835.373	25061
835.511	25091
835.65	24981
835.788	24779
835.926	24722
836.064	24620
836.202	24749
836.34	24852
836.478	24897
836.615	24802
836.753	24783
836.891	24833
837.029	24817
837.167	24768
837.305	24768
837.443	24776
837.58	24757
837.718	24833
837.856	24749
837.993	24627
838.131	24620
838.269	24612
838.406	24513
838.544	24426
838.681	24228
838.819	24273
838.956	24079
839.094	24258
839.231	24251
839.369	24395
839.506	24635
839.643	24308
839.781	24083
839.918	24034
840.055	24053
840.193	24026
840.33	24064
840.467	24076
840.604	24083
840.742	24247
840.879	23923
841.016	23969
841.153	23904
841.29	24110
841.427	24068
841.564	23996
841.701	24144
841.838	24022
841.975	24007
842.112	23870
842.249	23828
842.385	23745
842.522	23923
842.659	23813
842.796	23767
842.933	23783
843.069	23794
843.206	23722
843.343	23927
843.479	23828
843.616	23726
843.752	23562
843.889	23444
844.025	23687
844.162	23630
844.298	23589
844.435	23524
844.571	23554
844.708	23608
844.844	23722
844.98	23615
845.117	23775
845.253	23482
845.389	23406
845.525	23509
845.661	23376
845.798	23349
845.934	23349
846.07	23337
846.206	23284
846.342	23410
846.478	23292
846.614	23010
846.75	22976
846.886	23033
847.022	23003
847.158	23117
847.294	23212
847.429	23064
847.565	23056
847.701	23258
847.837	22820
847.972	22744
848.108	23052
848.244	22854
848.379	22683
848.515	22550
848.65	22577
848.786	22774
848.921	22698
849.057	22729
849.192	22752
849.328	22641
849.463	22577
849.598	22470
849.734	22379
849.869	22443
850.004	22432
850.14	22367
850.275	22291
850.41	22253
850.545	22234
850.68	22352
850.815	22386
850.95	22371
851.085	22554
851.22	22481
851.355	22371
851.49	22341
851.625	22398
851.76	22310
851.895	22413
852.03	22265
852.165	22386
852.299	22417
852.434	22481
852.569	22402
852.703	22303
852.838	22405
852.973	22485
853.107	22440
853.242	22295
853.376	22177
853.511	22097
853.645	22318
853.78	22242
853.914	22219
854.048	22169
854.183	22147
854.317	22188
854.451	22443
854.585	22135
854.72	22120
854.854	22261
854.988	22067
855.122	22211
855.256	22093
855.39	22135
855.524	22215
855.658	22329
855.792	22128
855.926	22211
856.06	22147
856.194	22204
856.327	22185
856.461	22120
856.595	22158
856.729	22246
856.862	22352
856.996	22238
857.13	22329
857.263	22379
857.397	22280
857.53	22261
857.664	22173
857.797	22280
857.931	22280
858.064	22280
858.197	22352
858.331	22166
858.464	22097
858.597	22188
858.731	22295
858.864	22120
858.997	22147
859.13	22280
859.263	22162
859.396	22268
859.529	22112
859.662	22177
859.795	22120
859.928	22093
860.061	22306
860.194	22299
860.327	22268
860.46	22329
860.592	22367
860.725	22276
860.858	22303
860.99	22169
861.123	22196
861.256	22097
861.388	22295
861.521	22938
861.653	22116
861.786	22040
861.918	21983
862.05	21998
862.183	22097
862.315	22322
862.447	22162
862.58	22158
862.712	22067
862.844	21884
862.976	21975
863.108	21949
863.24	22371
863.372	21892
863.504	21968
863.636	21774
863.768	21991
863.9	21842
864.032	21865
864.164	21808
864.296	21991
864.428	21972
864.559	22086
864.691	21911
864.823	21899
864.954	21937
865.086	21854
865.217	21846
865.349	21846
865.48	21656
865.612	21778
865.743	21873
865.875	21819
866.006	21759
866.137	21739
866.269	21755
866.4	21823
866.531	21690
866.662	21698
866.793	21713
866.924	21869
867.055	21701
867.186	21854
867.317	21568
867.448	21637
867.579	21629
867.71	21675
867.841	21652
867.972	21660
868.103	21606
868.233	21682
868.364	21675
868.495	21800
868.625	21915
868.756	21994
868.886	21800
869.017	22025
869.147	22078
869.278	22044
869.408	22086
869.539	21892
869.669	22063
869.799	22070
869.929	22147
870.06	22143
870.19	22341
870.32	22181
870.45	22382
870.58	22356
870.71	22432
870.84	22325
870.97	22291
871.1	22382
871.23	22337
871.36	22599
871.489	22542
871.619	22523
871.749	22542
871.879	22500
872.008	22516
872.138	22538
872.267	22599
872.397	22504
872.526	22417
872.656	22367
872.785	22436
872.915	22599
873.044	22668
873.173	22557
873.303	22653
873.432	22603
873.561	22759
873.69	22687
873.819	22489
873.948	22584
874.077	22569
874.206	22440
874.335	22508
874.464	22660
874.593	22774
874.722	22637
874.851	22729
874.979	22809
875.108	22733
875.237	22755
875.365	22748
875.494	22702
875.623	22858
875.751	22710
875.88	22656
876.008	22885
876.136	23041
876.265	23151
876.393	23242
876.521	23231
876.65	23212
876.778	23151
876.906	23140
877.034	23060
877.162	23147
877.29	23090
877.418	23193
877.546	23151
877.674	23166
877.802	23227
877.93	23083
878.058	23090
878.185	23025
878.313	23029
878.441	23098
878.568	22873
878.696	23033
878.824	23033
878.951	23185
879.079	23345
879.206	23353
879.333	23212
879.461	22999
879.588	23197
879.715	23318
879.842	23337
879.97	23185
880.097	22995
880.224	23044
880.351	23064
880.478	22995
880.605	22911
880.732	22984
880.859	23029
880.986	23025
881.112	22934
881.239	22744
881.366	22615
881.493	22634
881.619	22615
881.746	22474
881.872	22573
881.999	22443
882.125	22447
882.252	22577
882.378	22405
882.505	22542
882.631	22325
882.757	22109
882.883	22276
883.01	22181
883.136	22158
883.262	22101
883.388	22105
883.514	22257
883.64	22158
883.766	22116
883.892	22021
884.018	21956
884.143	22200
884.269	22200
884.395	21911
884.52	21770
884.646	21865
884.772	21751
884.897	21736
885.023	21865
885.148	21789
885.274	21903
885.399	22082
885.524	21724
885.65	21781
885.775	21766
885.9	21797
886.025	21922
886.15	21915
886.275	21823
886.4	21785
886.525	21781
886.65	21633
886.775	21774
886.9	21846
887.025	22086
887.149	21686
887.274	21606
887.399	21580
887.523	21656
887.648	21507
887.773	21485
887.897	21603
888.021	21507
888.146	21492
888.27	21713
888.395	21644
888.519	21682
888.643	21591
888.767	21580
888.891	21443
889.015	21443
889.139	21462
889.263	21283
889.387	21408
889.511	21515
889.635	21428
889.759	21329
889.883	21420
890.006	21363
890.13	21458
890.254	21336
890.377	21268
890.501	21138
890.624	21028
890.748	21176
890.871	21020
890.995	20944
891.118	20906
891.241	20994
891.364	20971
891.488	21043
891.611	20929
891.734	20956
891.857	20792
891.98	20948
892.103	20971
892.226	20967
892.349	20773
892.471	20708
892.594	20769
892.717	20842
892.839	20845
892.962	20727
893.085	20883
893.207	20918
893.33	20777
893.452	20678
893.575	20887
893.697	20765
893.819	20971
893.941	20925
894.064	20952
894.186	20678
894.308	20746
894.43	20883
894.552	20967
894.674	20960
894.796	20606
894.918	20880
895.04	20754
895.161	20845
895.283	20739
895.405	20731
895.526	20750
895.648	20739
895.769	20956
895.891	20792
896.012	20872
896.134	20785
896.255	20762
896.376	20655
896.498	20800
896.619	20834
896.74	20796
896.861	20883
896.982	20990
897.103	21348
897.224	21119
897.345	20967
897.466	20956
897.587	20914
897.708	21116
897.828	21077
897.949	20990
898.07	20765
898.19	20872
898.311	21028
898.431	20823
898.552	21024
898.672	21157
898.792	20994
898.913	21024
899.033	20887
899.153	20872
899.273	20632
899.393	20689
899.513	20724
899.633	20667
899.753	20735
899.873	20682
899.993	20701
900.113	20640
900.232	20629
900.352	20648
900.472	20530
900.591	20454
900.711	20541
900.83	20438
900.95	20564
901.069	20457
901.189	20381
901.308	20126
901.427	19993
901.546	20046
901.665	20024
901.784	20180
901.904	19955
902.023	19814
902.141	19582
902.26	19670
902.379	19632
902.498	19616
902.617	19537
902.735	19529
902.854	19411
902.973	19556
903.091	19324
903.21	19259
903.328	19259
903.446	19247
903.565	19065
903.683	18981
903.801	19046
903.919	18958
904.038	19061
904.156	18848
904.274	18814
904.392	18806
904.51	18875
904.627	18688
904.745	18901
904.863	18837
904.981	18639
905.098	18338
905.216	18448
905.334	18452
905.451	18551
905.569	18448
905.686	18574
905.803	18525
905.921	18330
906.038	18388
906.155	18327
906.272	18190
906.389	18182
906.506	18053
906.623	17916
906.74	18026
906.857	17874
906.974	17912
907.091	17977
907.208	18079
907.324	18060
907.441	17942
907.557	17718
907.674	17821
907.79	17703
907.907	17726
908.023	17748
908.139	17714
908.256	17630
908.372	17570
908.488	17646
908.604	17516
908.72	17448
908.836	17406
908.952	17459
909.068	17421
909.184	17581
909.3	17429
909.415	17459
909.531	17410
909.647	17159
909.762	17109
909.878	17132
909.993	17181
910.108	17094
910.224	17022
910.339	17197
910.454	16965
910.57	16911
910.685	16991
910.8	17151
910.915	17064
911.03	16957
911.145	16664
911.259	16691
911.374	16683
911.489	16736
911.604	16611
911.718	16535
911.833	16504
911.947	16398
912.062	16257
912.176	16333
912.291	16474
912.405	16360
912.519	16637
912.633	16618
912.748	16565
912.862	16382
912.976	16230
913.09	16219
913.204	16219
913.318	16379
913.431	16356
913.545	16280
913.659	16329
913.772	16120
913.886	16101
914	16074
914.113	16101
914.226	16344
914.34	16074
914.453	15816
914.566	16021
914.68	16059
914.793	15903
914.906	15709
915.019	15656
915.132	15576
915.245	15694
915.358	15656
915.47	15709
915.583	15656
915.696	15633
915.809	15728
915.921	15831
916.034	15549
916.146	15576
916.259	15515
916.371	15641
916.483	15564
916.595	15496
916.708	15412
916.82	15450
916.932	15424
917.044	15397
917.156	15431
917.268	15222
917.38	15291
917.491	15272
917.603	15317
917.715	15466
917.826	15469
917.938	15252
918.049	15192
918.161	15264
918.272	15306
918.384	15336
918.495	15287
918.606	15028
918.717	14975
918.828	15051
918.939	15100
919.05	14842
919.161	14990
919.272	14807
919.383	14948
919.494	15074
919.604	15131
919.715	15074
919.826	14963
919.936	14910
920.047	15074
920.157	14979
920.267	15214
920.378	15043
920.488	14872
920.598	15207
920.708	15192
920.818	15062
920.928	15066
921.038	15157
921.148	15199
921.258	14815
921.368	14781
921.477	14724
921.587	14727
921.697	14473
921.806	14701
921.916	14537
922.025	14400
922.134	14309
922.244	14210
922.353	14259
922.462	14187
922.571	14221
922.68	14020
922.789	14069
922.898	13879
923.007	13902
923.116	13955
923.224	14008
923.333	13963
923.442	13791
923.55	13845
923.659	13814
923.767	13769
923.876	13738
923.984	13791
924.092	13620
924.201	13769
924.309	13780
924.417	13666
924.525	13632
924.633	13575
924.741	14613
924.849	13415
924.956	13624
925.064	13506
925.172	13327
925.279	13384
925.387	13407
925.494	13316
925.602	13422
925.709	13457
925.816	13198
925.924	13335
926.031	13415
926.138	13324
926.245	13384
926.352	13114
926.459	13274
926.566	13228
926.673	13213
926.779	13171
926.886	13084
926.993	12947
927.099	12932
927.206	12829
927.312	12871
927.419	13027
927.525	12856
927.631	12886
927.737	12791
927.843	12817
927.95	12635
928.056	12814
928.162	12734
928.267	12730
928.373	13278
928.479	12837
928.585	12604
928.69	12776
928.796	12722
928.901	12570
929.007	12334
929.112	12601
929.218	12532
929.323	12410
929.428	12410
929.533	12654
929.638	12342
929.743	12391
929.848	12445
929.953	12342
930.058	12194
930.163	12125
930.267	12057
930.372	12251
930.477	12102
930.581	12315
930.685	12121
930.79	12049
930.894	11939
930.998	12038
931.103	12098
931.207	11783
931.311	11661
931.415	11520
931.519	11376
931.623	11368
