Data from test_V78500241_144.txt Node
Date: Fri Mar 25 15:10:51 CST 2022
User: usil
Spectrometer: V785-0024
Trigger mode: 0
Integration Time (sec): 4.000000E-1
Scans to average: 1
Nonlinearity correction enabled: false
Boxcar width: 0
Storing dark spectrum: false
XAxis mode: Wavelengths
Number of Pixels in Spectrum: 1024
>>>>>Begin Spectral Data<<<<<
801.071	28116
801.214	28063
801.356	27865
801.499	27838
801.641	27736
801.783	27732
801.926	27728
802.068	27564
802.211	27534
802.353	27344
802.496	27454
802.638	27378
802.78	27302
802.923	27184
803.065	27146
803.208	27226
803.35	27241
803.492	27355
803.635	27447
803.777	27302
803.919	27481
804.061	27679
804.204	27310
804.346	27302
804.488	27184
804.63	27272
804.773	27116
804.915	27355
805.057	27431
805.199	27389
805.341	27325
805.483	27393
805.626	27408
805.768	27279
805.91	27340
806.052	27519
806.194	27466
806.336	27599
806.478	27443
806.62	27348
806.762	27557
806.904	27591
807.046	27732
807.188	27679
807.33	27675
807.472	27865
807.614	27724
807.756	27880
807.898	27732
808.04	27564
808.182	27576
808.324	27603
808.465	27667
808.607	27747
808.749	27842
808.891	27914
809.033	27983
809.174	27945
809.316	27994
809.458	28074
809.6	27865
809.741	28021
809.883	28017
810.025	28116
810.166	28173
810.308	28192
810.45	28109
810.591	28116
810.733	27884
810.875	27876
811.016	27759
811.158	27690
811.299	27918
811.441	28006
811.582	27873
811.724	27759
811.865	27819
812.007	27892
812.148	27835
812.29	27888
812.431	28006
812.573	28344
812.714	28246
812.855	28470
812.997	28466
813.138	28554
813.279	28466
813.421	28371
813.562	28314
813.703	28162
813.845	28063
813.986	27895
814.127	27610
814.268	27523
814.41	27595
814.551	27435
814.692	27663
814.833	27431
814.974	27382
815.115	27458
815.256	27332
815.397	27294
815.539	27241
815.68	27207
815.821	27062
815.962	27207
816.103	27222
816.244	27161
816.385	27043
816.526	26872
816.666	26788
816.807	26598
816.948	26788
817.089	26697
817.23	26530
817.371	26667
817.512	26651
817.653	26648
817.793	26545
817.934	26724
818.075	26636
818.216	26670
818.356	26484
818.497	26507
818.638	26290
818.778	26465
818.919	26495
819.06	26408
819.2	26419
819.341	26541
819.481	26598
819.622	26617
819.762	26887
819.903	26804
820.043	26743
820.184	26670
820.324	26541
820.465	26697
820.605	26522
820.746	26533
820.886	26606
821.026	26541
821.167	26495
821.307	26625
821.447	26526
821.588	26476
821.728	26328
821.868	26084
822.008	25944
822.149	25944
822.289	26084
822.429	25753
822.569	25689
822.709	25708
822.849	25476
822.99	25525
823.13	25506
823.27	25567
823.41	25362
823.55	25164
823.69	25263
823.83	25293
823.97	25278
824.11	25126
824.25	25023
824.389	25038
824.529	25247
824.669	25084
824.809	25202
824.949	25148
825.089	25088
825.228	25088
825.368	24913
825.508	24916
825.648	24867
825.787	24992
825.927	24916
826.067	24821
826.206	24825
826.346	24928
826.485	24943
826.625	24817
826.765	25034
826.904	24935
827.044	24684
827.183	24604
827.323	24483
827.462	24623
827.601	24547
827.741	24570
827.88	24658
828.02	24475
828.159	24555
828.298	24399
828.437	24551
828.577	24270
828.716	24635
828.855	24456
828.994	24258
829.134	24201
829.273	24197
829.412	24216
829.551	24076
829.69	24220
829.829	24277
829.968	24357
830.107	24365
830.246	24232
830.385	24091
830.524	24106
830.663	24125
830.802	23984
830.941	23813
831.08	23775
831.219	23805
831.357	23946
831.496	23927
831.635	23680
831.774	23737
831.913	23589
832.051	23478
832.19	23589
832.329	23600
832.467	23440
832.606	23452
832.744	23543
832.883	23478
833.022	23452
833.16	23535
833.299	23433
833.437	23486
833.576	23486
833.714	23398
833.852	23531
833.991	23391
834.129	23543
834.267	23573
834.406	23440
834.544	23493
834.682	23417
834.821	23417
834.959	23748
835.097	23376
835.235	23463
835.373	23315
835.511	23448
835.65	23341
835.788	23391
835.926	23208
836.064	23162
836.202	23162
836.34	23189
836.478	23178
836.615	23155
836.753	23265
836.891	23334
837.029	23349
837.167	23292
837.305	23231
837.443	23105
837.58	23109
837.718	23246
837.856	23178
837.993	23025
838.131	23109
838.269	22953
838.406	22980
838.544	22980
838.681	22706
838.819	22721
838.956	22489
839.094	22596
839.231	22512
839.369	22786
839.506	22869
839.643	22828
839.781	22516
839.918	22550
840.055	22455
840.193	22466
840.33	22451
840.467	22493
840.604	22436
840.742	22740
840.879	22398
841.016	22386
841.153	22249
841.29	22504
841.427	22443
841.564	22592
841.701	22493
841.838	22280
841.975	22402
842.112	22226
842.249	22230
842.385	22185
842.522	22295
842.659	22196
842.796	22112
842.933	22097
843.069	22158
843.206	22249
843.343	22246
843.479	22105
843.616	22128
843.752	21915
843.889	21850
844.025	22158
844.162	21953
844.298	21975
844.435	21911
844.571	21755
844.708	21899
844.844	22059
844.98	22074
845.117	22101
845.253	21888
845.389	21743
845.525	21850
845.661	21751
845.798	21606
845.934	21633
846.07	21568
846.206	21614
846.342	21842
846.478	21660
846.614	21466
846.75	21378
846.886	21492
847.022	21496
847.158	21310
847.294	21340
847.429	21393
847.565	21344
847.701	21603
847.837	21150
847.972	21081
848.108	21161
848.244	21104
848.379	21028
848.515	20819
848.65	20929
848.786	20956
848.921	20891
849.057	21062
849.192	20971
849.328	20899
849.463	20929
849.598	20933
849.734	20906
849.869	20804
850.004	20613
850.14	20746
850.275	20815
850.41	20651
850.545	20606
850.68	20613
850.815	20594
850.95	20556
851.085	20807
851.22	20750
851.355	20682
851.49	20750
851.625	20644
851.76	20568
851.895	20602
852.03	20598
852.165	20518
852.299	20693
852.434	20609
852.569	20556
852.703	20686
852.838	20659
852.973	20762
853.107	20739
853.242	20575
853.376	20541
853.511	20332
853.645	20476
853.78	20609
853.914	20488
854.048	20507
854.183	20419
854.317	20438
854.451	20579
854.585	20415
854.72	20358
854.854	20511
854.988	20431
855.122	20530
855.256	20298
855.39	20454
855.524	20571
855.658	20590
855.792	20457
855.926	20499
856.06	20583
856.194	20522
856.327	20514
856.461	20385
856.595	20484
856.729	20454
856.862	20579
856.996	20518
857.13	20488
857.263	20651
857.397	20412
857.53	20522
857.664	20579
857.797	20541
857.931	20526
858.064	20473
858.197	20579
858.331	20408
858.464	20423
858.597	20393
858.731	20381
858.864	20427
858.997	20469
859.13	20339
859.263	20377
859.396	20476
859.529	20317
859.662	20431
859.795	20423
859.928	20450
860.061	20492
860.194	20571
860.327	20514
860.46	20412
860.592	20461
860.725	20484
860.858	20560
860.99	20446
861.123	20404
861.256	20366
861.388	20446
861.521	21100
861.653	20221
861.786	20157
861.918	20271
862.05	20259
862.183	20400
862.315	20480
862.447	20514
862.58	20465
862.712	20107
862.844	20119
862.976	20298
863.108	20195
863.24	20457
863.372	19997
863.504	20267
863.636	20153
863.768	20153
863.9	20164
864.032	20073
864.164	20081
864.296	20077
864.428	20218
864.559	20142
864.691	20199
864.823	20134
864.954	20024
865.086	20081
865.217	20145
865.349	19944
865.48	20024
865.612	20069
865.743	20229
865.875	20069
866.006	20024
866.137	19947
866.269	20077
866.4	19917
866.531	19989
866.662	19909
866.793	19986
866.924	19898
867.055	20008
867.186	19917
867.317	20027
867.448	19765
867.579	19879
867.71	19841
867.841	19875
867.972	20012
868.103	20024
868.233	19925
868.364	19947
868.495	20058
868.625	20206
868.756	20393
868.886	20259
869.017	20126
869.147	20240
869.278	20313
869.408	20172
869.539	20183
869.669	20301
869.799	20183
869.929	20381
870.06	20282
870.19	20492
870.32	20446
870.45	20533
870.58	20556
870.71	20731
870.84	20575
870.97	20560
871.1	20469
871.23	20670
871.36	20735
871.489	20636
871.619	20693
871.749	20777
871.879	20735
872.008	20902
872.138	20857
872.267	20838
872.397	20533
872.526	20594
872.656	20670
872.785	20678
872.915	20746
873.044	20842
873.173	20826
873.303	20857
873.432	20792
873.561	20883
873.69	20819
873.819	20868
873.948	20872
874.077	20796
874.206	20754
874.335	20876
874.464	20937
874.593	21024
874.722	20982
874.851	21138
874.979	21096
875.108	21207
875.237	20960
875.365	21005
875.494	21009
875.623	21123
875.751	20994
875.88	21032
876.008	21089
876.136	21241
876.265	21435
876.393	21656
876.521	21519
876.65	21542
876.778	21500
876.906	21431
877.034	21473
877.162	21447
877.29	21336
877.418	21405
877.546	21367
877.674	21363
877.802	21294
877.93	21363
878.058	21306
878.185	21310
878.313	21389
878.441	21386
878.568	21180
878.696	21329
878.824	21393
878.951	21428
879.079	21561
879.206	21728
879.333	21568
879.461	21393
879.588	21538
879.715	21568
879.842	21652
879.97	21534
880.097	21077
880.224	21214
880.351	21264
880.478	21268
880.605	21180
880.732	21195
880.859	21469
880.986	21264
881.112	21199
881.239	21131
881.366	20952
881.493	20902
881.619	20735
881.746	20868
881.872	20777
881.999	20861
882.125	20815
882.252	20788
882.378	20807
882.505	20960
882.631	20739
882.757	20556
882.883	20750
883.01	20568
883.136	20370
883.262	20404
883.388	20347
883.514	20530
883.64	20663
883.766	20400
883.892	20282
884.018	20347
884.143	20560
884.269	20537
884.395	20446
884.52	20320
884.646	20244
884.772	20088
884.897	20027
885.023	20221
885.148	20294
885.274	20389
885.399	20256
885.524	20153
885.65	20195
885.775	20218
885.9	20214
886.025	20252
886.15	20305
886.275	20134
886.4	20069
886.525	20229
886.65	20069
886.775	20077
886.9	20214
887.025	20423
887.149	20240
887.274	20020
887.399	19871
887.523	19822
887.648	19951
887.773	19811
887.897	20001
888.021	19989
888.146	19852
888.27	19974
888.395	20054
888.519	20043
888.643	19925
888.767	19997
888.891	19860
889.015	19727
889.139	19860
889.263	19681
889.387	19852
889.511	19986
889.635	19841
889.759	19681
889.883	19765
890.006	19742
890.13	19791
890.254	19727
890.377	19670
890.501	19483
890.624	19514
890.748	19514
890.871	19388
890.995	19278
891.118	19209
891.241	19202
891.364	19335
891.488	19415
891.611	19293
891.734	19457
891.857	19403
891.98	19362
892.103	19400
892.226	19343
892.349	19289
892.471	19187
892.594	19251
892.717	19320
892.839	19236
892.962	19202
893.085	19301
893.207	19251
893.33	19126
893.452	19228
893.575	19426
893.697	19156
893.819	19362
893.941	19495
894.064	19407
894.186	19198
894.308	19202
894.43	19270
894.552	19518
894.674	19411
894.796	19175
894.918	19244
895.04	19076
895.161	19278
895.283	19339
895.405	19304
895.526	19221
895.648	19369
895.769	19327
895.891	19285
896.012	19282
896.134	19255
896.255	19221
896.376	19304
896.498	19411
896.619	19304
896.74	19320
896.861	19476
896.982	19628
897.103	19856
897.224	19594
897.345	19567
897.466	19586
897.587	19609
897.708	19529
897.828	19518
897.949	19506
898.07	19426
898.19	19362
898.311	19613
898.431	19415
898.552	19609
898.672	19605
898.792	19415
898.913	19597
899.033	19297
899.153	19282
899.273	19133
899.393	19293
899.513	19236
899.633	19187
899.753	19247
899.873	19084
899.993	19240
900.113	19206
900.232	19137
900.352	19190
900.472	19046
900.591	18943
900.711	19072
900.83	18993
900.95	19148
901.069	19129
901.189	18981
901.308	18787
901.427	18620
901.546	18582
901.665	18669
901.784	18612
901.904	18593
902.023	18380
902.141	18209
902.26	18190
902.379	18144
902.498	18159
902.617	18098
902.735	18114
902.854	18178
902.973	18038
903.091	17756
903.21	17779
903.328	17771
903.446	17809
903.565	17558
903.683	17642
903.801	17501
903.919	17596
904.038	17596
904.156	17402
904.274	17551
904.392	17360
904.51	17471
904.627	17364
904.745	17478
904.863	17436
904.981	17220
905.098	17124
905.216	17041
905.334	17010
905.451	17094
905.569	16904
905.686	17105
905.803	17113
905.921	16801
906.038	16949
906.155	16885
906.272	16824
906.389	16687
906.506	16531
906.623	16607
906.74	16596
906.857	16485
906.974	16519
907.091	16554
907.208	16634
907.324	16630
907.441	16523
907.557	16356
907.674	16329
907.79	16181
907.907	16322
908.023	16306
908.139	16246
908.256	16215
908.372	16150
908.488	16158
908.604	16017
908.72	15888
908.836	16048
908.952	15953
909.068	16017
909.184	16154
909.3	15911
909.415	16017
909.531	16021
909.647	15743
909.762	15717
909.878	15641
909.993	15751
910.108	15686
910.224	15595
910.339	15732
910.454	15595
910.57	15515
910.685	15420
910.8	15660
910.915	15622
911.03	15576
911.145	15287
911.259	15329
911.374	15317
911.489	15165
911.604	15192
911.718	14979
911.833	14975
911.947	14925
912.062	14750
912.176	15009
912.291	14998
912.405	14986
912.519	15176
912.633	15214
912.748	15097
912.862	15047
912.976	14773
913.09	14667
913.204	14743
913.318	14914
913.431	14933
913.545	14872
913.659	14982
913.772	14838
913.886	14689
914	14712
914.113	14754
914.226	14746
914.34	14796
914.453	14610
914.566	14746
914.68	14583
914.793	14533
914.906	14343
915.019	14202
915.132	14237
915.245	14248
915.358	14286
915.47	14263
915.583	14290
915.696	14339
915.809	14400
915.921	14469
916.034	14286
916.146	14275
916.259	14199
916.371	14259
916.483	14317
916.595	14157
916.708	14233
916.82	14183
916.932	14164
917.044	14142
917.156	13982
917.268	14016
917.38	14069
917.491	13963
917.603	14005
917.715	13967
917.826	14039
917.938	14008
918.049	13856
918.161	13932
918.272	14103
918.384	14092
918.495	13963
918.606	13734
918.717	13685
918.828	13723
918.939	13742
919.05	13666
919.161	13807
919.272	13529
919.383	13613
919.494	13738
919.604	13967
919.715	13731
919.826	13700
919.936	13719
920.047	13700
920.157	13708
920.267	13940
920.378	13807
920.488	13647
920.598	13921
920.708	14062
920.818	13883
920.928	13887
921.038	14050
921.148	13936
921.258	13655
921.368	13662
921.477	13453
921.587	13438
921.697	13392
921.806	13403
921.916	13259
922.025	13179
922.134	13088
922.244	13057
922.353	13171
922.462	13061
922.571	12928
922.68	12738
922.789	12741
922.898	12741
923.007	12688
923.116	12817
923.224	12833
923.333	12738
923.442	12616
923.55	12593
923.659	12585
923.767	12604
923.876	12525
923.984	12612
924.092	12536
924.201	12551
924.309	12441
924.417	12437
924.525	12464
924.633	12460
924.741	13179
924.849	12304
924.956	12365
925.064	12296
925.172	12201
925.279	12213
925.387	12254
925.494	12194
925.602	12285
925.709	12201
925.816	12053
925.924	12213
926.031	12247
926.138	12205
926.245	12117
926.352	12117
926.459	12190
926.566	12224
926.673	12072
926.779	11942
926.886	11935
926.993	11870
927.099	11760
927.206	11745
927.312	11699
927.419	11912
927.525	11737
927.631	11851
927.737	11638
927.843	11577
927.95	11490
928.056	11657
928.162	11608
928.267	11634
928.373	12209
928.479	11710
928.585	11490
928.69	11608
928.796	11627
928.901	11524
929.007	11395
929.112	11505
929.218	11505
929.323	11410
929.428	11448
929.533	11627
929.638	11353
929.743	11254
929.848	11368
929.953	11360
930.058	11322
930.163	11067
930.267	11178
930.372	11235
930.477	11079
930.581	11204
930.685	11162
930.79	10980
930.894	10976
930.998	11014
931.103	11018
931.207	10675
931.311	10634
931.415	10554
931.519	10246
931.623	10462
