Data from test_V78500241_664.txt Node
Date: Fri Mar 25 15:14:28 CST 2022
User: usil
Spectrometer: V785-0024
Trigger mode: 0
Integration Time (sec): 4.000000E-1
Scans to average: 1
Nonlinearity correction enabled: false
Boxcar width: 0
Storing dark spectrum: false
XAxis mode: Wavelengths
Number of Pixels in Spectrum: 1024
>>>>>Begin Spectral Data<<<<<
801.071	27800
801.214	27698
801.356	27587
801.499	27492
801.641	27454
801.783	27382
801.926	27519
802.068	27386
802.211	27313
802.353	27169
802.496	27070
802.638	27047
802.78	27058
802.923	27036
803.065	27074
803.208	26948
803.35	27131
803.492	27123
803.635	27264
803.777	27119
803.919	27260
804.061	27504
804.204	27176
804.346	27062
804.488	27180
804.63	27218
804.773	27112
804.915	27237
805.057	27397
805.199	27291
805.341	27447
805.483	27397
805.626	27226
805.768	27142
805.91	27302
806.052	27306
806.194	27363
806.336	27477
806.478	27340
806.62	27481
806.762	27462
806.904	27603
807.046	27873
807.188	27850
807.33	27857
807.472	27895
807.614	27808
807.756	27682
807.898	27633
808.04	27591
808.182	27351
808.324	27660
808.465	27572
808.607	27949
808.749	28006
808.891	28105
809.033	28078
809.174	28177
809.316	27987
809.458	27983
809.6	28029
809.741	28192
809.883	28185
810.025	28360
810.166	28276
810.308	28318
810.45	28398
810.591	28200
810.733	28150
810.875	27930
811.016	27972
811.158	27922
811.299	28044
811.441	28204
811.582	28116
811.724	28147
811.865	27983
812.007	27991
812.148	28090
812.29	28010
812.431	28173
812.573	28257
812.714	28550
812.855	28569
812.997	28713
813.138	28908
813.279	28668
813.421	28653
813.562	28531
813.703	28421
813.845	28284
813.986	27968
814.127	27831
814.268	27679
814.41	27857
814.551	27656
814.692	27827
814.833	27633
814.974	27656
815.115	27743
815.256	27622
815.397	27641
815.539	27599
815.68	27454
815.821	27443
815.962	27534
816.103	27420
816.244	27462
816.385	27355
816.526	27355
816.666	27226
816.807	26963
816.948	27188
817.089	27176
817.23	27104
817.371	27051
817.512	27043
817.653	27074
817.793	26857
817.934	27043
818.075	27119
818.216	27104
818.356	27020
818.497	26925
818.638	26674
818.778	26788
818.919	26746
819.06	26777
819.2	26948
819.341	26933
819.481	26925
819.622	27112
819.762	27408
819.903	27119
820.043	27131
820.184	27131
820.324	27131
820.465	27199
820.605	27077
820.746	27066
820.886	27039
821.026	26994
821.167	27127
821.307	27036
821.447	26925
821.588	26906
821.728	26697
821.868	26636
822.008	26434
822.149	26503
822.289	26408
822.429	26252
822.569	26088
822.709	26096
822.849	25955
822.99	25997
823.13	25890
823.27	25986
823.41	25791
823.55	25628
823.69	25913
823.83	25860
823.97	25757
824.11	25567
824.25	25487
824.389	25655
824.529	25651
824.669	25666
824.809	25685
824.949	25750
825.089	25803
825.228	25647
825.368	25434
825.508	25483
825.648	25537
825.787	25506
825.927	25624
826.067	25487
826.206	25438
826.346	25457
826.485	25521
826.625	25468
826.765	25632
826.904	25514
827.044	25251
827.183	25270
827.323	25190
827.462	25327
827.601	25209
827.741	25213
827.88	25137
828.02	25069
828.159	25152
828.298	25175
828.437	25198
828.577	25065
828.716	25312
828.855	25160
828.994	24806
829.134	25027
829.273	24871
829.412	24928
829.551	24913
829.69	24981
829.829	24951
829.968	24973
830.107	25000
830.246	25057
830.385	24738
830.524	24810
830.663	24650
830.802	24620
830.941	24505
831.08	24441
831.219	24768
831.357	24700
831.496	24749
831.635	24544
831.774	24292
831.913	24285
832.051	24334
832.19	24422
832.329	24270
832.467	24152
832.606	24102
832.744	24171
832.883	24167
833.022	24022
833.16	24266
833.299	24125
833.437	24197
833.576	24395
833.714	24273
833.852	24254
833.991	24315
834.129	24582
834.267	24357
834.406	24327
834.544	24254
834.682	24213
834.821	24273
834.959	24350
835.097	24133
835.235	24330
835.373	24277
835.511	24228
835.65	24209
835.788	24034
835.926	23942
836.064	23904
836.202	23840
836.34	24098
836.478	24262
836.615	24030
836.753	24106
836.891	24144
837.029	24076
837.167	24098
837.305	23999
837.443	23901
837.58	23916
837.718	24034
837.856	23996
837.993	23969
838.131	23790
838.269	23855
838.406	23756
838.544	23775
838.681	23558
838.819	23501
838.956	23315
839.094	23250
839.231	23539
839.369	23531
839.506	23726
839.643	23676
839.781	23463
839.918	23280
840.055	23288
840.193	23356
840.33	23406
840.467	23299
840.604	23414
840.742	23528
840.879	23208
841.016	23242
841.153	23143
841.29	23395
841.427	23269
841.564	23406
841.701	23269
841.838	23265
841.975	23166
842.112	23147
842.249	23121
842.385	23052
842.522	23258
842.659	23064
842.796	23113
842.933	23090
843.069	23022
843.206	23044
843.343	23128
843.479	23052
843.616	23010
843.752	22968
843.889	22911
844.025	23025
844.162	22881
844.298	22850
844.435	22809
844.571	22828
844.708	22892
844.844	22957
844.98	22984
845.117	22957
845.253	22778
845.389	22668
845.525	22763
845.661	22733
845.798	22565
845.934	22649
846.07	22474
846.206	22500
846.342	22713
846.478	22519
846.614	22398
846.75	22177
846.886	22348
847.022	22303
847.158	22386
847.294	22223
847.429	22436
847.565	22398
847.701	22580
847.837	22143
847.972	22010
848.108	22124
848.244	22166
848.379	21895
848.515	21816
848.65	21854
848.786	21937
848.921	21953
849.057	21854
849.192	22025
849.328	22036
849.463	21956
849.598	21785
849.734	21724
849.869	21698
850.004	21747
850.14	21743
850.275	21568
850.41	21701
850.545	21656
850.68	21606
850.815	21747
850.95	21660
851.085	21892
851.22	21724
851.355	21724
851.49	21538
851.625	21568
851.76	21492
851.895	21462
852.03	21549
852.165	21682
852.299	21618
852.434	21739
852.569	21675
852.703	21606
852.838	21713
852.973	21694
853.107	21774
853.242	21675
853.376	21511
853.511	21374
853.645	21431
853.78	21686
853.914	21595
854.048	21412
854.183	21473
854.317	21458
854.451	21606
854.585	21458
854.72	21374
854.854	21557
854.988	21416
855.122	21466
855.256	21306
855.39	21485
855.524	21595
855.658	21614
855.792	21416
855.926	21606
856.06	21511
856.194	21568
856.327	21523
856.461	21439
856.595	21363
856.729	21393
856.862	21561
856.996	21603
857.13	21564
857.263	21568
857.397	21492
857.53	21492
857.664	21523
857.797	21576
857.931	21553
858.064	21469
858.197	21519
858.331	21393
858.464	21481
858.597	21454
858.731	21481
858.864	21454
858.997	21500
859.13	21397
859.263	21492
859.396	21629
859.529	21367
859.662	21412
859.795	21492
859.928	21572
860.061	21553
860.194	21568
860.327	21720
860.46	21447
860.592	21534
860.725	21591
860.858	21663
860.99	21492
861.123	21420
861.256	21496
861.388	21435
861.521	22200
861.653	21310
861.786	21336
861.918	21180
862.05	21431
862.183	21378
862.315	21454
862.447	21561
862.58	21393
862.712	21161
862.844	21161
862.976	21245
863.108	21340
863.24	21625
863.372	21096
863.504	21195
863.636	21321
863.768	21256
863.9	21138
864.032	21093
864.164	21116
864.296	21173
864.428	21165
864.559	21237
864.691	21222
864.823	21249
864.954	21176
865.086	21169
865.217	21093
865.349	20948
865.48	21024
865.612	21142
865.743	21203
865.875	21108
866.006	21036
866.137	20891
866.269	20986
866.4	20937
866.531	20895
866.662	20986
866.793	20956
866.924	21058
867.055	21100
867.186	21001
867.317	21100
867.448	20918
867.579	20960
867.71	20979
867.841	20948
867.972	21036
868.103	21032
868.233	20994
868.364	20998
868.495	21207
868.625	21245
868.756	21336
868.886	21176
869.017	21176
869.147	21443
869.278	21241
869.408	21260
869.539	21195
869.669	21313
869.799	21310
869.929	21268
870.06	21340
870.19	21481
870.32	21397
870.45	21580
870.58	21766
870.71	21743
870.84	21656
870.97	21682
871.1	21732
871.23	21869
871.36	21778
871.489	21743
871.619	21781
871.749	21861
871.879	21819
872.008	21964
872.138	21888
872.267	21873
872.397	21804
872.526	21717
872.656	21629
872.785	21732
872.915	21903
873.044	22010
873.173	21835
873.303	21857
873.432	21960
873.561	21884
873.69	21941
873.819	21846
873.948	21857
874.077	21991
874.206	21789
874.335	21808
874.464	21930
874.593	22257
874.722	22109
874.851	22048
874.979	22067
875.108	22074
875.237	22105
875.365	21930
875.494	21991
875.623	22196
875.751	22051
875.88	22097
876.008	22112
876.136	22291
876.265	22523
876.393	22637
876.521	22554
876.65	22588
876.778	22405
876.906	22356
877.034	22303
877.162	22398
877.29	22424
877.418	22443
877.546	22531
877.674	22398
877.802	22394
877.93	22322
878.058	22394
878.185	22223
878.313	22341
878.441	22500
878.568	22261
878.696	22405
878.824	22344
878.951	22542
879.079	22577
879.206	22694
879.333	22641
879.461	22516
879.588	22546
879.715	22561
879.842	22733
879.97	22382
880.097	22287
880.224	22242
880.351	22363
880.478	22265
880.605	22169
880.732	22215
880.859	22455
880.986	22291
881.112	22280
881.239	22181
881.366	21983
881.493	21964
881.619	21774
881.746	21888
881.872	21884
881.999	21816
882.125	21816
882.252	21751
882.378	21873
882.505	21857
882.631	21587
882.757	21378
882.883	21747
883.01	21576
883.136	21526
883.262	21492
883.388	21256
883.514	21515
883.64	21618
883.766	21393
883.892	21424
884.018	21389
884.143	21393
884.269	21519
884.395	21184
884.52	21138
884.646	21119
884.772	21074
884.897	21131
885.023	21070
885.148	21096
885.274	21184
885.399	21287
885.524	21112
885.65	21241
885.775	21146
885.9	21066
886.025	21138
886.15	21279
886.275	21116
886.4	21104
886.525	21058
886.65	21081
886.775	21077
886.9	21245
887.025	21275
887.149	21036
887.274	21112
887.399	20948
887.523	20979
887.648	20921
887.773	20853
887.897	21112
888.021	20944
888.146	20883
888.27	21043
888.395	21043
888.519	20929
888.643	20937
888.767	21077
888.891	20819
889.015	20689
889.139	20765
889.263	20705
889.387	20777
889.511	20925
889.635	20834
889.759	20708
889.883	20670
890.006	20754
890.13	20899
890.254	20758
890.377	20648
890.501	20400
890.624	20423
890.748	20457
890.871	20427
890.995	20252
891.118	20263
891.241	20324
891.364	20320
891.488	20358
891.611	20271
891.734	20218
891.857	20396
891.98	20237
892.103	20176
892.226	20199
892.349	20286
892.471	20191
892.594	20206
892.717	20298
892.839	20161
892.962	20187
893.085	20214
893.207	20218
893.33	20100
893.452	20180
893.575	20275
893.697	20103
893.819	20495
893.941	20309
894.064	20332
894.186	20130
894.308	20172
894.43	20275
894.552	20488
894.674	20336
894.796	20111
894.918	20199
895.04	20195
895.161	20320
895.283	20233
895.405	20119
895.526	20161
895.648	20161
895.769	20149
895.891	20332
896.012	20183
896.134	20176
896.255	20145
896.376	20157
896.498	20202
896.619	20191
896.74	20054
896.861	20218
896.982	20522
897.103	20564
897.224	20488
897.345	20480
897.466	20381
897.587	20355
897.708	20465
897.828	20469
897.949	20305
898.07	20237
898.19	20412
898.311	20454
898.431	20332
898.552	20347
898.672	20461
898.792	20381
898.913	20533
899.033	20278
899.153	20259
899.273	20142
899.393	20092
899.513	20126
899.633	20248
899.753	20111
899.873	20168
899.993	20088
900.113	20111
900.232	20111
900.352	20142
900.472	20035
900.591	19970
900.711	19986
900.83	19799
900.95	20096
901.069	19928
901.189	19856
901.308	19578
901.427	19487
901.546	19537
901.665	19521
901.784	19510
901.904	19426
902.023	19255
902.141	19156
902.26	19091
902.379	19091
902.498	19065
902.617	18947
902.735	19042
902.854	18951
902.973	18970
903.091	18745
903.21	18711
903.328	18654
903.446	18601
903.565	18544
903.683	18521
903.801	18395
903.919	18471
904.038	18467
904.156	18308
904.274	18357
904.392	18171
904.51	18289
904.627	18228
904.745	18243
904.863	18281
904.981	18030
905.098	17935
905.216	17996
905.334	17893
905.451	18015
905.569	17821
905.686	17889
905.803	17908
905.921	17748
906.038	17760
906.155	17733
906.272	17589
906.389	17661
906.506	17570
906.623	17604
906.74	17433
906.857	17303
906.974	17471
907.091	17452
907.208	17600
907.324	17543
907.441	17364
907.557	17185
907.674	17200
907.79	17155
907.907	17212
908.023	17185
908.139	17170
908.256	17102
908.372	17121
908.488	17140
908.604	16934
908.72	16892
908.836	16987
908.952	16839
909.068	16885
909.184	17048
909.3	16862
909.415	16915
909.531	17071
909.647	16653
909.762	16500
909.878	16554
909.993	16634
910.108	16569
910.224	16649
910.339	16569
910.454	16508
910.57	16390
910.685	16382
910.8	16698
910.915	16649
911.03	16394
911.145	16329
911.259	16200
911.374	16234
911.489	16071
911.604	16154
911.718	15964
911.833	15949
911.947	15850
912.062	15766
912.176	15934
912.291	15865
912.405	15907
912.519	16090
912.633	16169
912.748	15857
912.862	15953
912.976	15865
913.09	15701
913.204	15747
913.318	15762
913.431	15835
913.545	15732
913.659	15865
913.772	15660
913.886	15515
914	15534
914.113	15667
914.226	15637
914.34	15701
914.453	15454
914.566	15618
914.68	15511
914.793	15454
914.906	15287
915.019	15230
915.132	15150
915.245	15146
915.358	15230
915.47	15138
915.583	15123
915.696	15188
915.809	15188
915.921	15313
916.034	15108
916.146	15020
916.259	15062
916.371	15119
916.483	15154
916.595	15043
916.708	14941
916.82	15001
916.932	15020
917.044	14994
917.156	14849
917.268	14762
917.38	14857
917.491	14883
917.603	14857
917.715	14952
917.826	14861
917.938	14735
918.049	14667
918.161	14819
918.272	14868
918.384	14937
918.495	14750
918.606	14583
918.717	14530
918.828	14640
918.939	14617
919.05	14499
919.161	14545
919.272	14362
919.383	14473
919.494	14549
919.604	14731
919.715	14507
919.826	14473
919.936	14556
920.047	14610
920.157	14579
920.267	14773
920.378	14610
920.488	14560
920.598	14648
920.708	14731
920.818	14708
920.928	14644
921.038	14834
921.148	14765
921.258	14507
921.368	14385
921.477	14328
921.587	14355
921.697	14240
921.806	14286
921.916	14119
922.025	13928
922.134	13921
922.244	13833
922.353	13864
922.462	13860
922.571	13826
922.68	13601
922.789	13616
922.898	13597
923.007	13476
923.116	13499
923.224	13586
923.333	13514
923.442	13331
923.55	13396
923.659	13476
923.767	13419
923.876	13434
923.984	13472
924.092	13293
924.201	13339
924.309	13316
924.417	13304
924.525	13232
924.633	13221
924.741	14001
924.849	13110
924.956	13171
925.064	13038
925.172	12973
925.279	12894
925.387	12973
925.494	12935
925.602	13088
925.709	12947
925.816	12806
925.924	13015
926.031	13027
926.138	12909
926.245	12996
926.352	12856
926.459	12966
926.566	12909
926.673	12840
926.779	12791
926.886	12734
926.993	12665
927.099	12509
927.206	12582
927.312	12536
927.419	12604
927.525	12517
927.631	12642
927.737	12426
927.843	12384
927.95	12338
928.056	12315
928.162	12357
928.267	12437
928.373	13050
928.479	12433
928.585	12254
928.69	12311
928.796	12338
928.901	12228
929.007	12022
929.112	12209
929.218	12224
929.323	12129
929.428	12079
929.533	12197
929.638	12068
929.743	12110
929.848	12038
929.953	12087
930.058	12034
930.163	11779
930.267	11809
930.372	11889
930.477	11729
930.581	11916
930.685	11885
930.79	11707
930.894	11695
930.998	11638
931.103	11817
931.207	11402
931.311	11318
931.415	11235
931.519	11003
931.623	11067
