Data from test_V78500241_2775.txt Node
Date: Fri Mar 25 15:29:10 CST 2022
User: usil
Spectrometer: V785-0024
Trigger mode: 0
Integration Time (sec): 4.000000E-1
Scans to average: 1
Nonlinearity correction enabled: false
Boxcar width: 0
Storing dark spectrum: false
XAxis mode: Wavelengths
Number of Pixels in Spectrum: 1024
>>>>>Begin Spectral Data<<<<<
801.071	27062
801.214	27127
801.356	26807
801.499	26777
801.641	26644
801.783	26495
801.926	26697
802.068	26484
802.211	26507
802.353	26385
802.496	26324
802.638	26370
802.78	26176
802.923	26202
803.065	26153
803.208	26027
803.35	26305
803.492	26530
803.635	26263
803.777	26119
803.919	26457
804.061	26659
804.204	26473
804.346	26453
804.488	26328
804.63	26522
804.773	26336
804.915	26465
805.057	26556
805.199	26385
805.341	26499
805.483	26431
805.626	26385
805.768	26465
805.91	26552
806.052	26613
806.194	26408
806.336	26670
806.478	26632
806.62	26488
806.762	26678
806.904	26651
807.046	27077
807.188	26887
807.33	26925
807.472	26940
807.614	26933
807.756	26963
807.898	26785
808.04	26712
808.182	26746
808.324	26811
808.465	26823
808.607	27024
808.749	27275
808.891	27169
809.033	27233
809.174	27116
809.316	27058
809.458	27112
809.6	27119
809.741	27127
809.883	27306
810.025	27363
810.166	27439
810.308	27412
810.45	27382
810.591	27336
810.733	27096
810.875	27020
811.016	26925
811.158	26830
811.299	27283
811.441	27154
811.582	27203
811.724	27150
811.865	27089
812.007	27135
812.148	26986
812.29	27077
812.431	27169
812.573	27488
812.714	27363
812.855	27637
812.997	27648
813.138	27827
813.279	27652
813.421	27542
813.562	27466
813.703	27439
813.845	27241
813.986	26929
814.127	26781
814.268	26697
814.41	26613
814.551	26788
814.692	26792
814.833	26716
814.974	26674
815.115	26659
815.256	26708
815.397	26609
815.539	26587
815.68	26507
815.821	26499
815.962	26552
816.103	26556
816.244	26495
816.385	26358
816.526	26256
816.666	26111
816.807	26054
816.948	26115
817.089	26157
817.23	26031
817.371	25997
817.512	25940
817.653	26008
817.793	26016
817.934	25993
818.075	26050
818.216	26031
818.356	25837
818.497	25879
818.638	25693
818.778	25826
818.919	25772
819.06	25791
819.2	25909
819.341	25936
819.481	25849
819.622	26062
819.762	26240
819.903	26259
820.043	26202
820.184	26172
820.324	25959
820.465	26176
820.605	26065
820.746	26134
820.886	26039
821.026	26107
821.167	26024
821.307	26195
821.447	25982
821.588	26008
821.728	25746
821.868	25734
822.008	25510
822.149	25468
822.289	25445
822.429	25228
822.569	25091
822.709	25103
822.849	25061
822.99	25065
823.13	24924
823.27	24871
823.41	24741
823.55	24635
823.69	24719
823.83	24753
823.97	24719
824.11	24532
824.25	24528
824.389	24505
824.529	24597
824.669	24665
824.809	24779
824.949	24684
825.089	24642
825.228	24753
825.368	24399
825.508	24418
825.648	24460
825.787	24464
825.927	24498
826.067	24395
826.206	24410
826.346	24513
826.485	24547
826.625	24372
826.765	24608
826.904	24361
827.044	24262
827.183	24254
827.323	24144
827.462	24270
827.601	24174
827.741	24117
827.88	24319
828.02	24041
828.159	24140
828.298	24201
828.437	24239
828.577	23988
828.716	24327
828.855	24030
828.994	23931
829.134	23840
829.273	23824
829.412	23726
829.551	23824
829.69	23745
829.829	23889
829.968	23920
830.107	23866
830.246	23889
830.385	23794
830.524	23779
830.663	23562
830.802	23577
830.941	23493
831.08	23410
831.219	23573
831.357	23581
831.496	23813
831.635	23444
831.774	23379
831.913	23246
832.051	23280
832.19	23208
832.329	23105
832.467	23075
832.606	23018
832.744	23071
832.883	23071
833.022	23052
833.16	23181
833.299	23204
833.437	23216
833.576	23147
833.714	23090
833.852	23265
833.991	23117
834.129	23204
834.267	23147
834.406	23307
834.544	23261
834.682	23159
834.821	23220
834.959	23349
835.097	23296
835.235	23204
835.373	23079
835.511	23132
835.65	23212
835.788	22991
835.926	22915
836.064	22965
836.202	22835
836.34	22995
836.478	23117
836.615	23090
836.753	23044
836.891	22892
837.029	23136
837.167	22984
837.305	23052
837.443	22835
837.58	22850
837.718	22930
837.856	22862
837.993	22805
838.131	22957
838.269	22812
838.406	22755
838.544	22790
838.681	22615
838.819	22538
838.956	22314
839.094	22478
839.231	22443
839.369	22462
839.506	22809
839.643	22550
839.781	22405
839.918	22265
840.055	22344
840.193	22295
840.33	22424
840.467	22329
840.604	22440
840.742	22489
840.879	22185
841.016	22234
841.153	22230
841.29	22428
841.427	22162
841.564	22310
841.701	22276
841.838	22291
841.975	22272
842.112	22204
842.249	22219
842.385	22067
842.522	22291
842.659	22211
842.796	22070
842.933	22090
843.069	22025
843.206	21994
843.343	22131
843.479	22086
843.616	22078
843.752	21778
843.889	21842
844.025	21979
844.162	21797
844.298	21884
844.435	21789
844.571	21812
844.708	21793
844.844	22082
844.98	21835
845.117	21907
845.253	21766
845.389	21660
845.525	21774
845.661	21682
845.798	21530
845.934	21709
846.07	21610
846.206	21545
846.342	21682
846.478	21511
846.614	21279
846.75	21275
846.886	21272
847.022	21397
847.158	21207
847.294	21218
847.429	21298
847.565	21294
847.701	21587
847.837	21154
847.972	21112
848.108	21211
848.244	21138
848.379	20979
848.515	20838
848.65	20925
848.786	20933
848.921	20853
849.057	21104
849.192	21074
849.328	21028
849.463	20899
849.598	20853
849.734	20811
849.869	20758
850.004	20750
850.14	20739
850.275	20765
850.41	20533
850.545	20590
850.68	20545
850.815	20701
850.95	20686
851.085	20830
851.22	20705
851.355	20777
851.49	20640
851.625	20621
851.76	20663
851.895	20492
852.03	20549
852.165	20716
852.299	20823
852.434	20777
852.569	20644
852.703	20708
852.838	20682
852.973	20773
853.107	20937
853.242	20705
853.376	20556
853.511	20358
853.645	20492
853.78	20606
853.914	20537
854.048	20457
854.183	20431
854.317	20594
854.451	20674
854.585	20507
854.72	20400
854.854	20476
854.988	20476
855.122	20431
855.256	20271
855.39	20495
855.524	20522
855.658	20621
855.792	20564
855.926	20522
856.06	20499
856.194	20568
856.327	20480
856.461	20476
856.595	20332
856.729	20499
856.862	20518
856.996	20522
857.13	20682
857.263	20530
857.397	20560
857.53	20431
857.664	20476
857.797	20503
857.931	20594
858.064	20427
858.197	20602
858.331	20412
858.464	20476
858.597	20484
858.731	20469
858.864	20434
858.997	20457
859.13	20419
859.263	20427
859.396	20480
859.529	20370
859.662	20454
859.795	20370
859.928	20484
860.061	20712
860.194	20674
860.327	20492
860.46	20522
860.592	20640
860.725	20727
860.858	20495
860.99	20514
861.123	20434
861.256	20343
861.388	20492
861.521	21096
861.653	20408
861.786	20351
861.918	20119
862.05	20450
862.183	20499
862.315	20461
862.447	20457
862.58	20454
862.712	20278
862.844	20126
862.976	20282
863.108	20290
863.24	20663
863.372	20229
863.504	20225
863.636	20153
863.768	20195
863.9	20183
864.032	20229
864.164	20271
864.296	20263
864.428	20320
864.559	20298
864.691	20252
864.823	20180
864.954	20252
865.086	20221
865.217	20145
865.349	20088
865.48	20161
865.612	20062
865.743	20339
865.875	20180
866.006	20092
866.137	20092
866.269	20088
866.4	20012
866.531	20039
866.662	20027
866.793	20100
866.924	20035
867.055	20130
867.186	20142
867.317	20084
867.448	20050
867.579	20039
867.71	20077
867.841	20081
867.972	20039
868.103	20077
868.233	20058
868.364	20142
868.495	20115
868.625	20240
868.756	20263
868.886	20339
869.017	20358
869.147	20366
869.278	20419
869.408	20278
869.539	20305
869.669	20454
869.799	20419
869.929	20309
870.06	20408
870.19	20575
870.32	20663
870.45	20598
870.58	20640
870.71	20765
870.84	20826
870.97	20697
871.1	20674
871.23	20925
871.36	20975
871.489	20807
871.619	20849
871.749	20914
871.879	20876
872.008	20967
872.138	20773
872.267	20857
872.397	20746
872.526	20769
872.656	20788
872.785	20697
872.915	20906
873.044	21028
873.173	20861
873.303	20967
873.432	21077
873.561	20998
873.69	20979
873.819	20842
873.948	20956
874.077	21005
874.206	20883
874.335	20807
874.464	21085
874.593	21116
874.722	21180
874.851	21135
874.979	21043
875.108	21157
875.237	21230
875.365	21051
875.494	21188
875.623	21203
875.751	21001
875.88	21192
876.008	21287
876.136	21332
876.265	21629
876.393	21633
876.521	21618
876.65	21576
876.778	21542
876.906	21515
877.034	21526
877.162	21534
877.29	21405
877.418	21492
877.546	21587
877.674	21515
877.802	21526
877.93	21671
878.058	21431
878.185	21443
878.313	21549
878.441	21439
878.568	21370
878.696	21412
878.824	21572
878.951	21629
879.079	21614
879.206	21823
879.333	21606
879.461	21568
879.588	21724
879.715	21694
879.842	21633
879.97	21507
880.097	21450
880.224	21462
880.351	21439
880.478	21367
880.605	21454
880.732	21420
880.859	21553
880.986	21405
881.112	21393
881.239	21165
881.366	21249
881.493	21043
881.619	20807
881.746	20933
881.872	20941
881.999	20880
882.125	20975
882.252	20864
882.378	20925
882.505	21013
882.631	20785
882.757	20705
882.883	20701
883.01	20667
883.136	20686
883.262	20381
883.388	20526
883.514	20602
883.64	20651
883.766	20651
883.892	20408
884.018	20465
884.143	20518
884.269	20758
884.395	20343
884.52	20214
884.646	20324
884.772	20267
884.897	20313
885.023	20355
885.148	20400
885.274	20514
885.399	20381
885.524	20210
885.65	20301
885.775	20328
885.9	20256
886.025	20324
886.15	20438
886.275	20187
886.4	20290
886.525	20202
886.65	20100
886.775	20294
886.9	20317
887.025	20469
887.149	20317
887.274	19970
887.399	20111
887.523	20077
887.648	20077
887.773	19951
887.897	20138
888.021	20115
888.146	19890
888.27	20092
888.395	20183
888.519	20111
888.643	20062
888.767	20096
888.891	19997
889.015	19917
889.139	19890
889.263	19883
889.387	19959
889.511	20024
889.635	19974
889.759	19803
889.883	19883
890.006	19883
890.13	19951
890.254	19837
890.377	19814
890.501	19575
890.624	19655
890.748	19548
890.871	19807
890.995	19346
891.118	19480
891.241	19426
891.364	19377
891.488	19658
891.611	19411
891.734	19415
891.857	19480
891.98	19365
892.103	19441
892.226	19445
892.349	19396
892.471	19285
892.594	19297
892.717	19350
892.839	19396
892.962	19460
893.085	19384
893.207	19422
893.33	19301
893.452	19274
893.575	19377
893.697	19403
893.819	19571
893.941	19609
894.064	19472
894.186	19301
894.308	19327
894.43	19327
894.552	19510
894.674	19441
894.796	19381
894.918	19331
895.04	19362
895.161	19540
895.283	19350
895.405	19259
895.526	19407
895.648	19441
895.769	19445
895.891	19468
896.012	19457
896.134	19499
896.255	19392
896.376	19388
896.498	19392
896.619	19430
896.74	19381
896.861	19438
896.982	19757
897.103	19788
897.224	19635
897.345	19590
897.466	19514
897.587	19643
897.708	19639
897.828	19537
897.949	19540
898.07	19468
898.19	19506
898.311	19708
898.431	19521
898.552	19594
898.672	19677
898.792	19833
898.913	19613
899.033	19476
899.153	19464
899.273	19407
899.393	19381
899.513	19388
899.633	19320
899.753	19464
899.873	19362
899.993	19403
900.113	19346
900.232	19384
900.352	19400
900.472	19285
900.591	19160
900.711	19251
900.83	19050
900.95	19228
901.069	19255
901.189	18989
901.308	18817
901.427	18787
901.546	18692
901.665	18825
901.784	18779
901.904	18700
902.023	18589
902.141	18433
902.26	18391
902.379	18395
902.498	18308
902.617	18224
902.735	18399
902.854	18194
902.973	18148
903.091	18026
903.21	18083
903.328	17923
903.446	17863
903.565	17783
903.683	17752
903.801	17699
903.919	17699
904.038	17707
904.156	17566
904.274	17573
904.392	17672
904.51	17478
904.627	17478
904.745	17608
904.863	17638
904.981	17421
905.098	17288
905.216	17307
905.334	17349
905.451	17231
905.569	17216
905.686	17299
905.803	17235
905.921	17083
906.038	17143
906.155	17033
906.272	16904
906.389	16942
906.506	16759
906.623	16740
906.74	16748
906.857	16656
906.974	16653
907.091	16892
907.208	16877
907.324	16778
907.441	16713
907.557	16409
907.674	16561
907.79	16318
907.907	16451
908.023	16561
908.139	16455
908.256	16451
908.372	16409
908.488	16447
908.604	16291
908.72	16177
908.836	16204
908.952	16188
909.068	16207
909.184	16337
909.3	16314
909.415	16375
909.531	16261
909.647	15979
909.762	15911
909.878	15975
909.993	16082
910.108	15895
910.224	15964
910.339	15926
910.454	15812
910.57	15652
910.685	15633
910.8	15895
910.915	15884
911.03	15747
911.145	15561
911.259	15481
911.374	15511
911.489	15557
911.604	15408
911.718	15272
911.833	15355
911.947	15256
912.062	15214
912.176	15287
912.291	15283
912.405	15359
912.519	15462
912.633	15523
912.748	15351
912.862	15203
912.976	15241
913.09	14956
913.204	15123
913.318	15180
913.431	15142
913.545	15264
913.659	15233
913.772	15119
913.886	14891
914	14876
914.113	14918
914.226	15074
914.34	14979
914.453	14880
914.566	14929
914.68	14701
914.793	14731
914.906	14617
915.019	14541
915.132	14480
915.245	14457
915.358	14590
915.47	14442
915.583	14564
915.696	14492
915.809	14655
915.921	14533
916.034	14533
916.146	14404
916.259	14419
916.371	14583
916.483	14537
916.595	14393
916.708	14374
916.82	14415
916.932	14442
917.044	14301
917.156	14362
917.268	14317
917.38	14157
917.491	14214
917.603	14138
917.715	14286
917.826	14275
917.938	14164
918.049	14138
918.161	14161
918.272	14339
918.384	14275
918.495	14100
918.606	14187
918.717	13967
918.828	13978
918.939	14039
919.05	13928
919.161	13986
919.272	13811
919.383	13906
919.494	14100
919.604	14115
919.715	13986
919.826	13883
919.936	13837
920.047	13993
920.157	14035
920.267	14229
920.378	13925
920.488	13974
920.598	14103
920.708	14317
920.818	14084
920.928	14073
921.038	14263
921.148	14142
921.258	13913
921.368	13864
921.477	13670
921.587	13651
921.697	13540
921.806	13681
921.916	13571
922.025	13392
922.134	13407
922.244	13316
922.353	13487
922.462	13244
922.571	13141
922.68	13141
922.789	13027
922.898	13076
923.007	12977
923.116	13004
923.224	13057
923.333	12977
923.442	12856
923.55	12852
923.659	12844
923.767	12882
923.876	12772
923.984	12894
924.092	12802
924.201	12787
924.309	12688
924.417	12760
924.525	12734
924.633	12745
924.741	13445
924.849	12494
924.956	12677
925.064	12532
925.172	12475
925.279	12407
925.387	12574
925.494	12460
925.602	12547
925.709	12559
925.816	12346
925.924	12369
926.031	12498
926.138	12342
926.245	12429
926.352	12372
926.459	12536
926.566	12407
926.673	12361
926.779	12190
926.886	12213
926.993	12155
927.099	11977
927.206	12038
927.312	11969
927.419	12045
927.525	11996
927.631	12083
927.737	11946
927.843	11904
927.95	11878
928.056	11794
928.162	11859
928.267	11901
928.373	12456
928.479	11958
928.585	11710
928.69	11809
928.796	11958
928.901	11707
929.007	11623
929.112	11707
929.218	11634
929.323	11615
929.428	11619
929.533	11691
929.638	11573
929.743	11657
929.848	11585
929.953	11512
930.058	11376
930.163	11356
930.267	11284
930.372	11493
930.477	11254
930.581	11448
930.685	11292
930.79	11098
930.894	11189
930.998	11143
931.103	11189
931.207	10968
931.311	10873
931.415	10831
931.519	10599
931.623	10523
