Data from test_V78500241_375.txt Node
Date: Fri Mar 25 15:12:28 CST 2022
User: usil
Spectrometer: V785-0024
Trigger mode: 0
Integration Time (sec): 4.000000E-1
Scans to average: 1
Nonlinearity correction enabled: false
Boxcar width: 0
Storing dark spectrum: false
XAxis mode: Wavelengths
Number of Pixels in Spectrum: 1024
>>>>>Begin Spectral Data<<<<<
801.071	26902
801.214	26800
801.356	26606
801.499	26556
801.641	26434
801.783	26351
801.926	26507
802.068	26469
802.211	26332
802.353	26237
802.496	26088
802.638	26145
802.78	25917
802.923	25959
803.065	25936
803.208	25959
803.35	26031
803.492	26126
803.635	26256
803.777	26138
803.919	26225
804.061	26507
804.204	26355
804.346	26191
804.488	26164
804.63	26145
804.773	26005
804.915	26221
805.057	26191
805.199	26263
805.341	26313
805.483	26271
805.626	26191
805.768	26180
805.91	26206
806.052	26282
806.194	26202
806.336	26507
806.478	26366
806.62	26183
806.762	26362
806.904	26526
807.046	26716
807.188	26621
807.33	26670
807.472	26727
807.614	26640
807.756	26663
807.898	26507
808.04	26530
808.182	26389
808.324	26598
808.465	26465
808.607	26697
808.749	26743
808.891	26902
809.033	27032
809.174	26864
809.316	26746
809.458	26834
809.6	26883
809.741	26986
809.883	26940
810.025	27112
810.166	27161
810.308	27108
810.45	27135
810.591	27123
810.733	26895
810.875	26815
811.016	26834
811.158	26731
811.299	26937
811.441	26963
811.582	26994
811.724	26693
811.865	26823
812.007	26838
812.148	26765
812.29	26811
812.431	27032
812.573	27252
812.714	27268
812.855	27363
812.997	27367
813.138	27561
813.279	27534
813.421	27515
813.562	27340
813.703	27157
813.845	27001
813.986	26701
814.127	26720
814.268	26484
814.41	26473
814.551	26465
814.692	26499
814.833	26385
814.974	26313
815.115	26431
815.256	26271
815.397	26351
815.539	26313
815.68	26256
815.821	26202
815.962	26206
816.103	26202
816.244	26195
816.385	25986
816.526	26027
816.666	25978
816.807	25799
816.948	25818
817.089	25757
817.23	25898
817.371	25677
817.512	25715
817.653	25605
817.793	25704
817.934	25693
818.075	25719
818.216	25643
818.356	25643
818.497	25632
818.638	25487
818.778	25438
818.919	25548
819.06	25590
819.2	25506
819.341	25651
819.481	25826
819.622	25814
819.762	26062
819.903	26046
820.043	25921
820.184	25769
820.324	25864
820.465	25864
820.605	25833
820.746	25852
820.886	25601
821.026	25799
821.167	25791
821.307	25841
821.447	25799
821.588	25521
821.728	25499
821.868	25502
822.008	25171
822.149	25198
822.289	25221
822.429	25072
822.569	24981
822.709	24783
822.849	24665
822.99	24844
823.13	24604
823.27	24589
823.41	24608
823.55	24323
823.69	24578
823.83	24403
823.97	24410
824.11	24315
824.25	24330
824.389	24296
824.529	24376
824.669	24376
824.809	24525
824.949	24414
825.089	24407
825.228	24395
825.368	24194
825.508	24152
825.648	24129
825.787	24251
825.927	24372
826.067	24095
826.206	24277
826.346	24228
826.485	24334
826.625	24224
826.765	24346
826.904	24247
827.044	23798
827.183	23961
827.323	23935
827.462	23874
827.601	23912
827.741	23767
827.88	24034
828.02	23775
828.159	23783
828.298	23946
828.437	24026
828.577	23809
828.716	24038
828.855	23859
828.994	23653
829.134	23452
829.273	23726
829.412	23642
829.551	23585
829.69	23657
829.829	23585
829.968	23741
830.107	23672
830.246	23608
830.385	23585
830.524	23600
830.663	23444
830.802	23311
830.941	23147
831.08	23155
831.219	23395
831.357	23258
831.496	23406
831.635	23109
831.774	23227
831.913	23124
832.051	23060
832.19	22968
832.329	23006
832.467	22946
832.606	22972
832.744	22862
832.883	22995
833.022	22896
833.16	22896
833.299	22881
833.437	22961
833.576	23064
833.714	22976
833.852	23060
833.991	23010
834.129	23079
834.267	23181
834.406	22976
834.544	23041
834.682	23033
834.821	22942
834.959	23151
835.097	22797
835.235	23094
835.373	22965
835.511	22946
835.65	22835
835.788	22847
835.926	22691
836.064	22653
836.202	22698
836.34	22759
836.478	22965
836.615	22843
836.753	22805
836.891	22949
837.029	22839
837.167	22778
837.305	22683
837.443	22733
837.58	22763
837.718	22801
837.856	22771
837.993	22679
838.131	22660
838.269	22462
838.406	22584
838.544	22489
838.681	22329
838.819	22405
838.956	22280
839.094	22158
839.231	22253
839.369	22322
839.506	22535
839.643	22451
839.781	22158
839.918	22188
840.055	22097
840.193	22063
840.33	22074
840.467	22204
840.604	22192
840.742	22405
840.879	21968
841.016	22070
841.153	22074
841.29	22238
841.427	22097
841.564	22185
841.701	22173
841.838	21922
841.975	22090
842.112	22013
842.249	21918
842.385	21857
842.522	21953
842.659	21960
842.796	21907
842.933	21865
843.069	21759
843.206	21964
843.343	21991
843.479	21899
843.616	21899
843.752	21625
843.889	21682
844.025	21873
844.162	21671
844.298	21713
844.435	21755
844.571	21747
844.708	21690
844.844	21880
844.98	21823
845.117	21701
845.253	21679
845.389	21580
845.525	21481
845.661	21561
845.798	21416
845.934	21397
846.07	21424
846.206	21393
846.342	21583
846.478	21416
846.614	21233
846.75	21108
846.886	21100
847.022	21207
847.158	21165
847.294	21173
847.429	21173
847.565	21066
847.701	21355
847.837	20979
847.972	20842
848.108	20937
848.244	20929
848.379	20804
848.515	20689
848.65	20765
848.786	20765
848.921	20613
849.057	20849
849.192	20883
849.328	20754
849.463	20792
849.598	20731
849.734	20541
849.869	20701
850.004	20507
850.14	20537
850.275	20545
850.41	20351
850.545	20404
850.68	20537
850.815	20484
850.95	20530
851.085	20754
851.22	20564
851.355	20560
851.49	20533
851.625	20389
851.76	20469
851.895	20305
852.03	20415
852.165	20454
852.299	20484
852.434	20651
852.569	20499
852.703	20415
852.838	20625
852.973	20629
853.107	20663
853.242	20507
853.376	20377
853.511	20290
853.645	20187
853.78	20457
853.914	20351
854.048	20138
854.183	20305
854.317	20343
854.451	20495
854.585	20221
854.72	20358
854.854	20423
854.988	20206
855.122	20206
855.256	20214
855.39	20286
855.524	20434
855.658	20366
855.792	20290
855.926	20396
856.06	20225
856.194	20396
856.327	20332
856.461	20282
856.595	20286
856.729	20454
856.862	20423
856.996	20381
857.13	20438
857.263	20355
857.397	20431
857.53	20442
857.664	20320
857.797	20454
857.931	20412
858.064	20419
858.197	20412
858.331	20256
858.464	20305
858.597	20107
858.731	20278
858.864	20328
858.997	20336
859.13	20313
859.263	20408
859.396	20473
859.529	20351
859.662	20267
859.795	20275
859.928	20377
860.061	20339
860.194	20518
860.327	20374
860.46	20294
860.592	20446
860.725	20488
860.858	20480
860.99	20332
861.123	20286
861.256	20256
861.388	20294
861.521	20921
861.653	20305
861.786	20092
861.918	20088
862.05	20221
862.183	20324
862.315	20275
862.447	20358
862.58	20187
862.712	20119
862.844	19982
862.976	20084
863.108	20096
863.24	20503
863.372	20081
863.504	20046
863.636	20233
863.768	20062
863.9	20039
864.032	20001
864.164	19932
864.296	20031
864.428	20176
864.559	20199
864.691	20031
864.823	20062
864.954	19902
865.086	20043
865.217	19928
865.349	19845
865.48	19909
865.612	19951
865.743	20073
865.875	19947
866.006	19868
866.137	19913
866.269	19967
866.4	19772
866.531	19917
866.662	19879
866.793	19795
866.924	19913
867.055	19932
867.186	20012
867.317	19769
867.448	19833
867.579	19860
867.71	19845
867.841	19791
867.972	19921
868.103	19925
868.233	19955
868.364	19852
868.495	20054
868.625	20092
868.756	20225
868.886	20122
869.017	20206
869.147	20202
869.278	20313
869.408	20142
869.539	20176
869.669	20153
869.799	20240
869.929	20347
870.06	20225
870.19	20408
870.32	20450
870.45	20476
870.58	20454
870.71	20712
870.84	20648
870.97	20549
871.1	20518
871.23	20678
871.36	20701
871.489	20629
871.619	20678
871.749	20720
871.879	20727
872.008	20948
872.138	20754
872.267	20724
872.397	20625
872.526	20465
872.656	20613
872.785	20514
872.915	20777
873.044	20914
873.173	20731
873.303	20842
873.432	20716
873.561	20823
873.69	20872
873.819	20853
873.948	20906
874.077	20777
874.206	20678
874.335	20800
874.464	21005
874.593	21024
874.722	20929
874.851	21123
874.979	21085
875.108	21119
875.237	20876
875.365	20952
875.494	20910
875.623	21081
875.751	20952
875.88	21039
876.008	21184
876.136	21142
876.265	21428
876.393	21538
876.521	21504
876.65	21405
876.778	21504
876.906	21405
877.034	21317
877.162	21389
877.29	21272
877.418	21287
877.546	21416
877.674	21180
877.802	21473
877.93	21466
878.058	21401
878.185	21245
878.313	21351
878.441	21310
878.568	21260
878.696	21306
878.824	21340
878.951	21336
879.079	21549
879.206	21591
879.333	21595
879.461	21424
879.588	21462
879.715	21492
879.842	21698
879.97	21447
880.097	21241
880.224	21093
880.351	21176
880.478	21142
880.605	21207
880.732	21173
880.859	21389
880.986	21260
881.112	21222
881.239	21009
881.366	21013
881.493	20807
881.619	20739
881.746	20754
881.872	20880
881.999	20823
882.125	20629
882.252	20902
882.378	20743
882.505	20971
882.631	20587
882.757	20568
882.883	20617
883.01	20396
883.136	20423
883.262	20427
883.388	20438
883.514	20457
883.64	20454
883.766	20518
883.892	20210
884.018	20252
884.143	20446
884.269	20541
884.395	20142
884.52	20092
884.646	20164
884.772	20111
884.897	20092
885.023	20092
885.148	20168
885.274	20252
885.399	20248
885.524	20256
885.65	20157
885.775	20039
885.9	20100
886.025	20374
886.15	20248
886.275	20020
886.4	20084
886.525	20199
886.65	20100
886.775	20020
886.9	20237
887.025	20400
887.149	20065
887.274	19967
887.399	19932
887.523	19928
887.648	19917
887.773	19715
887.897	19951
888.021	19936
888.146	19940
888.27	19974
888.395	20016
888.519	19906
888.643	19894
888.767	19947
888.891	19852
889.015	19597
889.139	19799
889.263	19746
889.387	19814
889.511	20016
889.635	19757
889.759	19658
889.883	19696
890.006	19746
890.13	19845
890.254	19639
890.377	19487
890.501	19613
890.624	19453
890.748	19529
890.871	19362
890.995	19331
891.118	19160
891.241	19278
891.364	19354
891.488	19369
891.611	19373
891.734	19324
891.857	19293
891.98	19365
892.103	19396
892.226	19244
892.349	19266
892.471	19110
892.594	19202
892.717	19312
892.839	19232
892.962	19240
893.085	19297
893.207	19221
893.33	19095
893.452	19076
893.575	19304
893.697	19217
893.819	19343
893.941	19403
894.064	19362
894.186	19107
894.308	19202
894.43	19331
894.552	19362
894.674	19316
894.796	19156
894.918	19175
895.04	19255
895.161	19396
895.283	19297
895.405	19175
895.526	19228
895.648	19168
895.769	19327
895.891	19312
896.012	19198
896.134	19251
896.255	19247
896.376	19145
896.498	19118
896.619	19274
896.74	19137
896.861	19343
896.982	19658
897.103	19681
897.224	19529
897.345	19506
897.466	19411
897.587	19400
897.708	19460
897.828	19552
897.949	19388
898.07	19301
898.19	19381
898.311	19510
898.431	19487
898.552	19430
898.672	19548
898.792	19639
898.913	19415
899.033	19362
899.153	19278
899.273	19190
899.393	19316
899.513	19209
899.633	19240
899.753	19202
899.873	19141
899.993	19282
900.113	19213
900.232	19324
900.352	19027
900.472	19050
900.591	19076
900.711	19099
900.83	18996
900.95	19019
901.069	19091
901.189	18951
901.308	18658
901.427	18650
901.546	18665
901.665	18654
901.784	18639
901.904	18380
902.023	18475
902.141	18197
902.26	18201
902.379	18155
902.498	18079
902.617	18152
902.735	18243
902.854	18041
902.973	18110
903.091	17821
903.21	17798
903.328	17828
903.446	17745
903.565	17726
903.683	17653
903.801	17444
903.919	17543
904.038	17543
904.156	17463
904.274	17433
904.392	17387
904.51	17383
904.627	17455
904.745	17433
904.863	17463
904.981	17326
905.098	16991
905.216	17086
905.334	17132
905.451	17079
905.569	17109
905.686	17121
905.803	17136
905.921	16885
906.038	17071
906.155	16881
906.272	16828
906.389	16839
906.506	16759
906.623	16580
906.74	16637
906.857	16558
906.974	16558
907.091	16691
907.208	16752
907.324	16577
907.441	16542
907.557	16375
907.674	16371
907.79	16318
907.907	16325
908.023	16402
908.139	16428
908.256	16303
908.372	16253
908.488	16280
908.604	16188
908.72	16051
908.836	16040
908.952	16032
909.068	16093
909.184	16276
909.3	16036
909.415	16238
909.531	16086
909.647	15884
909.762	15884
909.878	15736
909.993	15861
910.108	15800
910.224	15819
910.339	15816
910.454	15641
910.57	15564
910.685	15572
910.8	15778
910.915	15781
911.03	15568
911.145	15530
911.259	15401
911.374	15401
911.489	15507
911.604	15287
911.718	15116
911.833	15241
911.947	14960
912.062	14956
912.176	15097
912.291	15135
912.405	15055
912.519	15367
912.633	15226
912.748	15169
912.862	15157
912.976	15062
913.09	14872
913.204	14910
913.318	14982
913.431	15077
913.545	15055
913.659	15097
913.772	14918
913.886	14906
914	14708
914.113	14750
914.226	14910
914.34	14842
914.453	14648
914.566	14769
914.68	14746
914.793	14674
914.906	14499
915.019	14358
915.132	14332
915.245	14560
915.358	14412
915.47	14408
915.583	14503
915.696	14495
915.809	14575
915.921	14583
916.034	14374
916.146	14389
916.259	14298
916.371	14419
916.483	14385
916.595	14263
916.708	14164
916.82	14199
916.932	14252
917.044	14195
917.156	14134
917.268	14138
917.38	14115
917.491	14077
917.603	14096
917.715	14233
917.826	14180
917.938	14103
918.049	13959
918.161	14100
918.272	14210
918.384	14233
918.495	14107
918.606	13864
918.717	13833
918.828	13852
918.939	13913
919.05	13807
919.161	13883
919.272	13670
919.383	13738
919.494	13909
919.604	14176
919.715	13871
919.826	13742
919.936	13871
920.047	13871
920.157	13879
920.267	14035
920.378	13822
920.488	13769
920.598	13978
920.708	14065
920.818	13932
920.928	13970
921.038	14176
921.148	14157
921.258	13761
921.368	13689
921.477	13643
921.587	13601
921.697	13487
921.806	13533
921.916	13445
922.025	13312
922.134	13244
922.244	13198
922.353	13289
922.462	13137
922.571	12996
922.68	13023
922.789	12973
922.898	12890
923.007	12753
923.116	12935
923.224	12890
923.333	12901
923.442	12764
923.55	12673
923.659	12760
923.767	12852
923.876	12692
923.984	12745
924.092	12730
924.201	12757
924.309	12669
924.417	12627
924.525	12635
924.633	12646
924.741	13316
924.849	12388
924.956	12486
925.064	12330
925.172	12334
925.279	12319
925.387	12361
925.494	12357
925.602	12502
925.709	12494
925.816	12277
925.924	12300
926.031	12410
926.138	12380
926.245	12384
926.352	12136
926.459	12353
926.566	12464
926.673	12239
926.779	12083
926.886	12076
926.993	11950
927.099	11931
927.206	11813
927.312	11927
927.419	11969
927.525	11893
927.631	11954
927.737	11748
927.843	11779
927.95	11726
928.056	11821
928.162	11828
928.267	11722
928.373	12486
928.479	11878
928.585	11657
928.69	11733
928.796	11847
928.901	11805
929.007	11554
929.112	11748
929.218	11608
929.323	11535
929.428	11532
929.533	11600
929.638	11360
929.743	11395
929.848	11570
929.953	11516
930.058	11273
930.163	11246
930.267	11299
930.372	11288
930.477	11162
930.581	11379
930.685	11269
930.79	11041
930.894	11117
930.998	11098
931.103	11212
931.207	10839
931.311	10793
931.415	10714
931.519	10497
931.623	10497
