Data from test_V78500241_3009.txt Node
Date: Fri Mar 25 15:30:48 CST 2022
User: usil
Spectrometer: V785-0024
Trigger mode: 0
Integration Time (sec): 4.000000E-1
Scans to average: 1
Nonlinearity correction enabled: false
Boxcar width: 0
Storing dark spectrum: false
XAxis mode: Wavelengths
Number of Pixels in Spectrum: 1024
>>>>>Begin Spectral Data<<<<<
801.071	27264
801.214	27264
801.356	26910
801.499	27043
801.641	26712
801.783	26845
801.926	27001
802.068	26864
802.211	26838
802.353	26648
802.496	26667
802.638	26560
802.78	26305
802.923	26328
803.065	26450
803.208	26389
803.35	26514
803.492	26571
803.635	26686
803.777	26533
803.919	26594
804.061	27013
804.204	26739
804.346	26556
804.488	26526
804.63	26575
804.773	26556
804.915	26625
805.057	26659
805.199	26632
805.341	26598
805.483	26746
805.626	26739
805.768	26651
805.91	26705
806.052	26781
806.194	26746
806.336	26815
806.478	26758
806.62	26746
806.762	26876
806.904	26990
807.046	27241
807.188	27173
807.33	27169
807.472	27230
807.614	27058
807.756	27100
807.898	26952
808.04	26899
808.182	26845
808.324	27081
808.465	27116
808.607	27176
808.749	27275
808.891	27511
809.033	27641
809.174	27393
809.316	27226
809.458	27249
809.6	27291
809.741	27412
809.883	27302
810.025	27591
810.166	27633
810.308	27572
810.45	27564
810.591	27439
810.733	27397
810.875	27332
811.016	27173
811.158	27241
811.299	27279
811.441	27603
811.582	27454
811.724	27389
811.865	27298
812.007	27283
812.148	27355
812.29	27435
812.431	27485
812.573	27568
812.714	27770
812.855	27785
812.997	27785
813.138	28067
813.279	27956
813.421	27812
813.562	27804
813.703	27504
813.845	27485
813.986	27298
814.127	27138
814.268	27085
814.41	26994
814.551	26967
814.692	26937
814.833	26971
814.974	26853
815.115	27051
815.256	26967
815.397	26868
815.539	26853
815.68	26811
815.821	26632
815.962	26830
816.103	26682
816.244	26587
816.385	26518
816.526	26492
816.666	26339
816.807	26191
816.948	26286
817.089	26298
817.23	26332
817.371	26332
817.512	26126
817.653	26214
817.793	26130
817.934	26149
818.075	26225
818.216	26172
818.356	26126
818.497	26031
818.638	25826
818.778	25936
818.919	25959
819.06	26103
819.2	26046
819.341	26187
819.481	26206
819.622	26423
819.762	26427
819.903	26381
820.043	26317
820.184	26225
820.324	26347
820.465	26332
820.605	26336
820.746	26290
820.886	26176
821.026	26305
821.167	26199
821.307	26191
821.447	26259
821.588	26149
821.728	26092
821.868	25811
822.008	25715
822.149	25685
822.289	25651
822.429	25506
822.569	25346
822.709	25381
822.849	25251
822.99	25107
823.13	25084
823.27	25263
823.41	24992
823.55	24905
823.69	25015
823.83	24947
823.97	24878
824.11	24878
824.25	24707
824.389	24764
824.529	24916
824.669	24753
824.809	24897
824.949	24966
825.089	24791
825.228	24863
825.368	24631
825.508	24681
825.648	24635
825.787	24639
825.927	24711
826.067	24776
826.206	24700
826.346	24658
826.485	24665
826.625	24646
826.765	24897
826.904	24684
827.044	24479
827.183	24471
827.323	24338
827.462	24582
827.601	24216
827.741	24448
827.88	24437
828.02	24369
828.159	24464
828.298	24315
828.437	24365
828.577	24334
828.716	24395
828.855	24117
828.994	23946
829.134	24079
829.273	24038
829.412	24060
829.551	23988
829.69	24106
829.829	24072
829.968	24026
830.107	24091
830.246	24064
830.385	24026
830.524	23980
830.663	23885
830.802	23863
830.941	23817
831.08	23786
831.219	23866
831.357	23809
831.496	23961
831.635	23600
831.774	23581
831.913	23493
832.051	23547
832.19	23501
832.329	23452
832.467	23459
832.606	23387
832.744	23387
832.883	23387
833.022	23383
833.16	23299
833.299	23417
833.437	23315
833.576	23486
833.714	23379
833.852	23425
833.991	23429
834.129	23600
834.267	23478
834.406	23448
834.544	23463
834.682	23395
834.821	23402
834.959	23570
835.097	23376
835.235	23353
835.373	23501
835.511	23429
835.65	23246
835.788	23189
835.926	23136
836.064	23083
836.202	22976
836.34	23353
836.478	23315
836.615	23193
836.753	23292
836.891	23334
837.029	23341
837.167	23223
837.305	23075
837.443	23189
837.58	23090
837.718	23273
837.856	23086
837.993	23010
838.131	23136
838.269	22991
838.406	23071
838.544	22812
838.681	22854
838.819	22744
838.956	22641
839.094	22516
839.231	22702
839.369	22675
839.506	23155
839.643	22782
839.781	22580
839.918	22588
840.055	22516
840.193	22588
840.33	22554
840.467	22493
840.604	22653
840.742	22790
840.879	22417
841.016	22504
841.153	22314
841.29	22500
841.427	22542
841.564	22557
841.701	22409
841.838	22424
841.975	22542
842.112	22497
842.249	22287
842.385	22333
842.522	22569
842.659	22398
842.796	22405
842.933	22295
843.069	22181
843.206	22249
843.343	22223
843.479	22246
843.616	22280
843.752	21937
843.889	22029
844.025	22169
844.162	21972
844.298	22082
844.435	22013
844.571	21922
844.708	21987
844.844	22070
844.98	22230
845.117	22025
845.253	22074
845.389	21808
845.525	21819
845.661	21876
845.798	21728
845.934	21857
846.07	21538
846.206	21781
846.342	21915
846.478	21739
846.614	21660
846.75	21408
846.886	21526
847.022	21595
847.158	21515
847.294	21507
847.429	21549
847.565	21374
847.701	21804
847.837	21294
847.972	21302
848.108	21294
848.244	21382
848.379	21195
848.515	21074
848.65	21058
848.786	21009
848.921	21013
849.057	21169
849.192	21112
849.328	21180
849.463	21150
849.598	21116
849.734	21020
849.869	21017
850.004	21047
850.14	20994
850.275	20845
850.41	20826
850.545	20960
850.68	20785
850.815	20861
850.95	20910
851.085	21036
851.22	20952
851.355	20872
851.49	20849
851.625	20746
851.76	20880
851.895	20765
852.03	20765
852.165	20883
852.299	20853
852.434	20910
852.569	20853
852.703	20800
852.838	20952
852.973	20982
853.107	20937
853.242	20796
853.376	20724
853.511	20571
853.645	20602
853.78	20819
853.914	20648
854.048	20651
854.183	20613
854.317	20686
854.451	20925
854.585	20708
854.72	20629
854.854	20830
854.988	20625
855.122	20777
855.256	20556
855.39	20712
855.524	20750
855.658	20792
855.792	20720
855.926	20769
856.06	20792
856.194	20781
856.327	20583
856.461	20670
856.595	20682
856.729	20617
856.862	20644
856.996	20682
857.13	20838
857.263	20921
857.397	20769
857.53	20716
857.664	20800
857.797	20773
857.931	20762
858.064	20651
858.197	20804
858.331	20560
858.464	20705
858.597	20598
858.731	20708
858.864	20549
858.997	20701
859.13	20693
859.263	20792
859.396	20727
859.529	20716
859.662	20708
859.795	20537
859.928	20765
860.061	20819
860.194	20887
860.327	20720
860.46	20583
860.592	20842
860.725	20838
860.858	20788
860.99	20629
861.123	20667
861.256	20499
861.388	20659
861.521	21207
861.653	20606
861.786	20347
861.918	20423
862.05	20609
862.183	20621
862.315	20613
862.447	20765
862.58	20590
862.712	20351
862.844	20457
862.976	20495
863.108	20503
863.24	20899
863.372	20396
863.504	20400
863.636	20381
863.768	20442
863.9	20366
864.032	20347
864.164	20408
864.296	20518
864.428	20438
864.559	20492
864.691	20469
864.823	20461
864.954	20461
865.086	20355
865.217	20252
865.349	20176
865.48	20374
865.612	20358
865.743	20328
865.875	20396
866.006	20332
866.137	20362
866.269	20294
866.4	20278
866.531	20278
866.662	20282
866.793	20119
866.924	20275
867.055	20305
867.186	20233
867.317	20290
867.448	20157
867.579	20267
867.71	20221
867.841	20039
867.972	20164
868.103	20278
868.233	20221
868.364	20202
868.495	20347
868.625	20545
868.756	20495
868.886	20454
869.017	20560
869.147	20579
869.278	20556
869.408	20541
869.539	20552
869.669	20625
869.799	20568
869.929	20560
870.06	20495
870.19	20849
870.32	20788
870.45	20899
870.58	20834
870.71	21020
870.84	20986
870.97	20864
871.1	20830
871.23	20990
871.36	20998
871.489	20918
871.619	21119
871.749	21055
871.879	21138
872.008	21245
872.138	21165
872.267	21157
872.397	20982
872.526	20975
872.656	20887
872.785	20899
872.915	20986
873.044	21184
873.173	21135
873.303	21085
873.432	21184
873.561	21184
873.69	21020
873.819	21161
873.948	21089
874.077	21199
874.206	21039
874.335	21104
874.464	21260
874.593	21268
874.722	21370
874.851	21279
874.979	21405
875.108	21351
875.237	21389
875.365	21275
875.494	21408
875.623	21462
875.751	21439
875.88	21420
876.008	21572
876.136	21538
876.265	21732
876.393	21899
876.521	21835
876.65	21774
876.778	21675
876.906	21705
877.034	21622
877.162	21747
877.29	21648
877.418	21705
877.546	21648
877.674	21717
877.802	21652
877.93	21622
878.058	21652
878.185	21538
878.313	21686
878.441	21625
878.568	21599
878.696	21644
878.824	21690
878.951	21831
879.079	21850
879.206	21842
879.333	21846
879.461	21599
879.588	21789
879.715	21789
879.842	22017
879.97	21770
880.097	21641
880.224	21481
880.351	21576
880.478	21576
880.605	21526
880.732	21534
880.859	21766
880.986	21481
881.112	21618
881.239	21405
881.366	21214
881.493	21211
881.619	21070
881.746	21165
881.872	21070
881.999	21089
882.125	21017
882.252	21017
882.378	21085
882.505	21135
882.631	20937
882.757	20842
882.883	20963
883.01	20872
883.136	20826
883.262	20720
883.388	20560
883.514	20826
883.64	20864
883.766	20792
883.892	20598
884.018	20598
884.143	20765
884.269	20880
884.395	20587
884.52	20446
884.646	20537
884.772	20328
884.897	20484
885.023	20423
885.148	20526
885.274	20606
885.399	20621
885.524	20484
885.65	20492
885.775	20507
885.9	20370
886.025	20537
886.15	20541
886.275	20328
886.4	20301
886.525	20301
886.65	20412
886.775	20427
886.9	20590
887.025	20792
887.149	20522
887.274	20313
887.399	20275
887.523	20240
887.648	20267
887.773	20046
887.897	20374
888.021	20218
888.146	20100
888.27	20237
888.395	20233
888.519	20229
888.643	20229
888.767	20240
888.891	20122
889.015	19997
889.139	20134
889.263	19951
889.387	20149
889.511	20142
889.635	20164
889.759	20126
889.883	20065
890.006	20115
890.13	20115
890.254	20001
890.377	19936
890.501	19799
890.624	19769
890.748	19776
890.871	19689
890.995	19529
891.118	19620
891.241	19597
891.364	19651
891.488	19723
891.611	19624
891.734	19616
891.857	19632
891.98	19647
892.103	19677
892.226	19639
892.349	19559
892.471	19476
892.594	19529
892.717	19525
892.839	19556
892.962	19609
893.085	19639
893.207	19556
893.33	19396
893.452	19388
893.575	19567
893.697	19480
893.819	19738
893.941	19807
894.064	19734
894.186	19525
894.308	19483
894.43	19518
894.552	19719
894.674	19681
894.796	19514
894.918	19514
895.04	19571
895.161	19544
895.283	19594
895.405	19502
895.526	19453
895.648	19483
895.769	19586
895.891	19502
896.012	19712
896.134	19632
896.255	19533
896.376	19449
896.498	19499
896.619	19613
896.74	19616
896.861	19613
896.982	19909
897.103	20058
897.224	19750
897.345	19753
897.466	19727
897.587	19791
897.708	19822
897.828	19776
897.949	19784
898.07	19571
898.19	19609
898.311	19936
898.431	19822
898.552	19795
898.672	19818
898.792	19780
898.913	19856
899.033	19605
899.153	19655
899.273	19495
899.393	19586
899.513	19624
899.633	19590
899.753	19563
899.873	19438
899.993	19571
900.113	19495
900.232	19586
900.352	19502
900.472	19339
900.591	19240
900.711	19362
900.83	19266
900.95	19407
901.069	19445
901.189	19316
901.308	19122
901.427	18791
901.546	19004
901.665	18951
901.784	18924
901.904	18753
902.023	18787
902.141	18467
902.26	18490
902.379	18536
902.498	18475
902.617	18422
902.735	18563
902.854	18414
902.973	18338
903.091	18125
903.21	18136
903.328	18015
903.446	17984
903.565	17977
903.683	17893
903.801	17821
903.919	17832
904.038	17851
904.156	17775
904.274	17794
904.392	17657
904.51	17687
904.627	17608
904.745	17745
904.863	17726
904.981	17547
905.098	17417
905.216	17307
905.334	17345
905.451	17376
905.569	17299
905.686	17341
905.803	17318
905.921	17162
906.038	17239
906.155	17174
906.272	17094
906.389	16984
906.506	16892
906.623	16919
906.74	16984
906.857	16854
906.974	16828
907.091	16980
907.208	16995
907.324	16896
907.441	16866
907.557	16653
907.674	16599
907.79	16542
907.907	16573
908.023	16698
908.139	16782
908.256	16592
908.372	16580
908.488	16527
908.604	16436
908.72	16310
908.836	16367
908.952	16322
909.068	16443
909.184	16512
909.3	16402
909.415	16272
909.531	16363
909.647	16124
909.762	16131
909.878	15964
909.993	16044
910.108	16048
910.224	16010
910.339	15998
910.454	15998
910.57	15991
910.685	15854
910.8	15956
910.915	15994
911.03	15857
911.145	15648
911.259	15698
911.374	15595
911.489	15610
911.604	15469
911.718	15519
911.833	15439
911.947	15401
912.062	15325
912.176	15458
912.291	15443
912.405	15405
912.519	15663
912.633	15603
912.748	15416
912.862	15386
912.976	15279
913.09	15146
913.204	15199
913.318	15226
913.431	15294
913.545	15340
913.659	15378
913.772	15180
913.886	15020
914	15009
914.113	15173
914.226	15173
914.34	15123
914.453	14899
914.566	15020
914.68	14967
914.793	14910
914.906	14655
915.019	14648
915.132	14537
915.245	14590
915.358	14693
915.47	14746
915.583	14651
915.696	14712
915.809	14735
915.921	14838
916.034	14602
916.146	14530
916.259	14503
916.371	14636
916.483	14530
916.595	14434
916.708	14518
916.82	14526
916.932	14473
917.044	14400
917.156	14549
917.268	14301
917.38	14370
917.491	14313
917.603	14324
917.715	14339
917.826	14400
917.938	14396
918.049	14191
918.161	14183
918.272	14473
918.384	14358
918.495	14225
918.606	14077
918.717	14111
918.828	14065
918.939	14073
919.05	14043
919.161	14012
919.272	13852
919.383	13925
919.494	14126
919.604	14370
919.715	14142
919.826	14020
919.936	14084
920.047	14157
920.157	14096
920.267	14218
920.378	14153
920.488	14065
920.598	14244
920.708	14278
920.818	14180
920.928	14286
921.038	14351
921.148	14343
921.258	14031
921.368	13898
921.477	13837
921.587	13799
921.697	13803
921.806	13811
921.916	13594
922.025	13567
922.134	13491
922.244	13430
922.353	13495
922.462	13350
922.571	13381
922.68	13232
922.789	13091
922.898	13126
923.007	13069
923.116	13065
923.224	13149
923.333	13053
923.442	12985
923.55	12882
923.659	12916
923.767	13012
923.876	12867
923.984	13000
924.092	12871
924.201	12897
924.309	12817
924.417	12825
924.525	12814
924.633	12932
924.741	13533
924.849	12646
924.956	12715
925.064	12646
925.172	12509
925.279	12642
925.387	12525
925.494	12509
925.602	12639
925.709	12570
925.816	12448
925.924	12544
926.031	12658
926.138	12532
926.245	12525
926.352	12456
926.459	12578
926.566	12498
926.673	12509
926.779	12334
926.886	12273
926.993	12171
927.099	12087
927.206	12121
927.312	12102
927.419	12201
927.525	12106
927.631	12171
927.737	12038
927.843	11980
927.95	11912
928.056	11965
928.162	12049
928.267	12022
928.373	12692
928.479	12022
928.585	11843
928.69	11973
928.796	11988
928.901	11847
929.007	11726
929.112	11859
929.218	11764
929.323	11710
929.428	11737
929.533	11794
929.638	11630
929.743	11714
929.848	11752
929.953	11592
930.058	11554
930.163	11417
930.267	11486
930.372	11524
930.477	11376
930.581	11642
930.685	11402
930.79	11239
930.894	11364
930.998	11296
931.103	11356
931.207	11025
931.311	10968
931.415	10744
931.519	10752
931.623	10634
