Data from test_V78500241_1166.txt Node
Date: Fri Mar 25 15:17:58 CST 2022
User: usil
Spectrometer: V785-0024
Trigger mode: 0
Integration Time (sec): 4.000000E-1
Scans to average: 1
Nonlinearity correction enabled: false
Boxcar width: 0
Storing dark spectrum: false
XAxis mode: Wavelengths
Number of Pixels in Spectrum: 1024
>>>>>Begin Spectral Data<<<<<
801.071	28440
801.214	28310
801.356	28112
801.499	28010
801.641	27926
801.783	27934
801.926	27968
802.068	28048
802.211	27972
802.353	27895
802.496	27549
802.638	27667
802.78	27591
802.923	27648
803.065	27530
803.208	27416
803.35	27599
803.492	27694
803.635	27819
803.777	27755
803.919	27861
804.061	28097
804.204	27865
804.346	27766
804.488	27842
804.63	27914
804.773	27774
804.915	27793
805.057	28021
805.199	27732
805.341	27937
805.483	27956
805.626	27926
805.768	27857
805.91	27960
806.052	27983
806.194	27953
806.336	28158
806.478	27960
806.62	27998
806.762	28059
806.904	28185
807.046	28622
807.188	28489
807.33	28432
807.472	28303
807.614	28261
807.756	28440
807.898	28257
808.04	28246
808.182	28303
808.324	28238
808.465	28287
808.607	28554
808.749	28630
808.891	28748
809.033	28687
809.174	28660
809.316	28603
809.458	28641
809.6	28736
809.741	28820
809.883	28831
810.025	28896
810.166	28866
810.308	29006
810.45	28965
810.591	28957
810.733	28596
810.875	28641
811.016	28557
811.158	28550
811.299	28778
811.441	28740
811.582	28816
811.724	28797
811.865	28615
812.007	28691
812.148	28763
812.29	28790
812.431	28839
812.573	29128
812.714	29197
812.855	29227
812.997	29269
813.138	29410
813.279	29334
813.421	29174
813.562	29231
813.703	29064
813.845	28839
813.986	28706
814.127	28470
814.268	28322
814.41	28550
814.551	28348
814.692	28447
814.833	28398
814.974	28325
815.115	28207
815.256	28131
815.397	28280
815.539	28268
815.68	28147
815.821	28044
815.962	28344
816.103	28181
816.244	27880
816.385	27930
816.526	28032
816.666	27831
816.807	27633
816.948	27789
817.089	27903
817.23	27717
817.371	27667
817.512	27724
817.653	27591
817.793	27667
817.934	27698
818.075	27728
818.216	27713
818.356	27732
818.497	27652
818.638	27458
818.778	27454
818.919	27439
819.06	27549
819.2	27580
819.341	27667
819.481	27785
819.622	27888
819.762	27987
819.903	27895
820.043	27804
820.184	27907
820.324	27755
820.465	27846
820.605	27778
820.746	27781
820.886	27717
821.026	27789
821.167	27724
821.307	27869
821.447	27648
821.588	27591
821.728	27458
821.868	27283
822.008	27214
822.149	27313
822.289	27127
822.429	26948
822.569	26762
822.709	26746
822.849	26708
822.99	26712
823.13	26667
823.27	26575
823.41	26457
823.55	26355
823.69	26484
823.83	26423
823.97	26313
824.11	26278
824.25	26434
824.389	26336
824.529	26431
824.669	26389
824.809	26431
824.949	26313
825.089	26389
825.228	26366
825.368	26164
825.508	26142
825.648	26183
825.787	26351
825.927	26355
826.067	26161
826.206	26069
826.346	26278
826.485	26336
826.625	26138
826.765	26237
826.904	26252
827.044	25913
827.183	25951
827.323	25803
827.462	26046
827.601	25989
827.741	25986
827.88	26046
828.02	25776
828.159	25852
828.298	25887
828.437	26077
828.577	25860
828.716	26195
828.855	25993
828.994	25548
829.134	25693
829.273	25811
829.412	25742
829.551	25571
829.69	25563
829.829	25685
829.968	25822
830.107	25696
830.246	25590
830.385	25605
830.524	25559
830.663	25415
830.802	25445
830.941	25358
831.08	25426
831.219	25430
831.357	25365
831.496	25510
831.635	25301
831.774	25213
831.913	25183
832.051	25015
832.19	25122
832.329	25072
832.467	25118
832.606	24837
832.744	24920
832.883	24996
833.022	24985
833.16	25000
833.299	24901
833.437	24985
833.576	25000
833.714	25137
833.852	25031
833.991	24973
834.129	24992
834.267	25084
834.406	25110
834.544	24996
834.682	24992
834.821	25107
834.959	25145
835.097	24947
835.235	25019
835.373	25091
835.511	25103
835.65	24817
835.788	24943
835.926	24677
836.064	24650
836.202	24635
836.34	24848
836.478	24958
836.615	24856
836.753	24909
836.891	24996
837.029	24863
837.167	24837
837.305	24795
837.443	24749
837.58	24772
837.718	24738
837.856	24806
837.993	24658
838.131	24642
838.269	24540
838.406	24669
838.544	24620
838.681	24403
838.819	24361
838.956	24194
839.094	24076
839.231	24197
839.369	24350
839.506	24532
839.643	24456
839.781	24174
839.918	24110
840.055	24049
840.193	24285
840.33	24117
840.467	24102
840.604	24049
840.742	24372
840.879	23939
841.016	23999
841.153	23916
841.29	24068
841.427	24087
841.564	24117
841.701	23969
841.838	24136
841.975	23885
842.112	23969
842.249	23916
842.385	23790
842.522	23988
842.659	23798
842.796	23798
842.933	23718
843.069	23718
843.206	23771
843.343	23866
843.479	23893
843.616	23847
843.752	23524
843.889	23600
844.025	23741
844.162	23539
844.298	23668
844.435	23638
844.571	23573
844.708	23729
844.844	23775
844.98	23714
845.117	23680
845.253	23570
845.389	23444
845.525	23497
845.661	23337
845.798	23372
845.934	23501
846.07	23254
846.206	23204
846.342	23429
846.478	23277
846.614	23200
846.75	23067
846.886	23128
847.022	23094
847.158	23083
847.294	23128
847.429	23010
847.565	23041
847.701	23387
847.837	22790
847.972	22797
848.108	22881
848.244	22736
848.379	22691
848.515	22664
848.65	22660
848.786	22706
848.921	22645
849.057	22725
849.192	22752
849.328	22664
849.463	22744
849.598	22622
849.734	22535
849.869	22485
850.004	22413
850.14	22470
850.275	22573
850.41	22447
850.545	22352
850.68	22428
850.815	22599
850.95	22455
851.085	22626
851.22	22557
851.355	22447
851.49	22409
851.625	22413
851.76	22306
851.895	22478
852.03	22303
852.165	22466
852.299	22481
852.434	22462
852.569	22371
852.703	22478
852.838	22462
852.973	22497
853.107	22485
853.242	22363
853.376	22188
853.511	22139
853.645	22211
853.78	22341
853.914	22310
854.048	22246
854.183	22188
854.317	22306
854.451	22417
854.585	22223
854.72	22169
854.854	22249
854.988	22101
855.122	22192
855.256	22090
855.39	22284
855.524	22230
855.658	22238
855.792	22246
855.926	22230
856.06	22196
856.194	22219
856.327	22120
856.461	22131
856.595	22154
856.729	22238
856.862	22402
856.996	22276
857.13	22006
857.263	22280
857.397	22371
857.53	22261
857.664	22166
857.797	22280
857.931	22291
858.064	22360
858.197	22386
858.331	22196
858.464	22204
858.597	22131
858.731	22299
858.864	22204
858.997	22242
859.13	22295
859.263	22188
859.396	22306
859.529	22265
859.662	22234
859.795	22196
859.928	22185
860.061	22382
860.194	22337
860.327	22253
860.46	22238
860.592	22413
860.725	22432
860.858	22379
860.99	22276
861.123	22139
861.256	22181
861.388	22223
861.521	22927
861.653	22166
861.786	22063
861.918	22070
862.05	22143
862.183	22074
862.315	22143
862.447	22139
862.58	22093
862.712	22010
862.844	21987
862.976	22029
863.108	21956
863.24	22268
863.372	21778
863.504	21842
863.636	21918
863.768	21998
863.9	21895
864.032	21991
864.164	21975
864.296	22017
864.428	22101
864.559	21956
864.691	22013
864.823	21838
864.954	21911
865.086	21899
865.217	21842
865.349	21736
865.48	21915
865.612	21846
865.743	21960
865.875	21960
866.006	21930
866.137	21705
866.269	21812
866.4	21819
866.531	21705
866.662	21698
866.793	21732
866.924	21686
867.055	21808
867.186	21785
867.317	21663
867.448	21576
867.579	21622
867.71	21663
867.841	21785
867.972	21728
868.103	21759
868.233	21713
868.364	21694
868.495	21812
868.625	21937
868.756	22147
868.886	21968
869.017	21934
869.147	22048
869.278	22051
869.408	21987
869.539	21964
869.669	22097
869.799	21987
869.929	22017
870.06	21964
870.19	22394
870.32	22204
870.45	22356
870.58	22360
870.71	22485
870.84	22333
870.97	22386
871.1	22363
871.23	22538
871.36	22561
871.489	22478
871.619	22557
871.749	22603
871.879	22538
872.008	22557
872.138	22523
872.267	22561
872.397	22371
872.526	22417
872.656	22421
872.785	22363
872.915	22622
873.044	22592
873.173	22573
873.303	22641
873.432	22611
873.561	22687
873.69	22447
873.819	22630
873.948	22660
874.077	22459
874.206	22462
874.335	22599
874.464	22797
874.593	22721
874.722	22801
874.851	22820
874.979	22812
875.108	22771
875.237	22755
875.365	22694
875.494	22786
875.623	22824
875.751	22759
875.88	22843
876.008	22942
876.136	22942
876.265	23189
876.393	23212
876.521	23292
876.65	23204
876.778	23197
876.906	23261
877.034	23113
877.162	23151
877.29	23121
877.418	23147
877.546	23223
877.674	23067
877.802	23109
877.93	23189
878.058	22965
878.185	22949
878.313	23239
878.441	23117
878.568	23037
878.696	23113
878.824	23143
878.951	23136
879.079	23269
879.206	23463
879.333	23242
879.461	23136
879.588	23277
879.715	23292
879.842	23444
879.97	23208
880.097	22923
880.224	22999
880.351	23022
880.478	22980
880.605	22881
880.732	22877
880.859	23254
880.986	22991
881.112	22957
881.239	22858
881.366	22713
881.493	22626
881.619	22523
881.746	22516
881.872	22481
881.999	22413
882.125	22348
882.252	22542
882.378	22516
882.505	22550
882.631	22432
882.757	22284
882.883	22363
883.01	22303
883.136	22082
883.262	22128
883.388	22188
883.514	22185
883.64	22135
883.766	22070
883.892	22074
884.018	21903
884.143	22105
884.269	22124
884.395	21934
884.52	21861
884.646	21934
884.772	21800
884.897	21625
885.023	21930
885.148	21899
885.274	22055
885.399	21991
885.524	21724
885.65	21793
885.775	21861
885.9	21762
886.025	22002
886.15	21937
886.275	21888
886.4	21698
886.525	21812
886.65	21774
886.775	21717
886.9	21907
887.025	22124
887.149	21778
887.274	21660
887.399	21610
887.523	21663
887.648	21545
887.773	21591
887.897	21698
888.021	21580
888.146	21576
888.27	21682
888.395	21648
888.519	21675
888.643	21564
888.767	21485
888.891	21466
889.015	21496
889.139	21466
889.263	21348
889.387	21439
889.511	21511
889.635	21519
889.759	21275
889.883	21336
890.006	21325
890.13	21511
890.254	21264
890.377	21310
890.501	21081
890.624	21150
890.748	21241
890.871	21039
890.995	20883
891.118	20872
891.241	20845
891.364	20941
891.488	21093
891.611	20975
891.734	21017
891.857	21005
891.98	21017
892.103	20933
892.226	20849
892.349	20918
892.471	20785
892.594	20842
892.717	20910
892.839	20724
892.962	20887
893.085	20998
893.207	20842
893.33	20758
893.452	20762
893.575	20906
893.697	20872
893.819	20925
893.941	21001
894.064	20979
894.186	20743
894.308	20842
894.43	20914
894.552	20998
894.674	20819
894.796	20670
894.918	20655
895.04	20857
895.161	20910
895.283	20815
895.405	20667
895.526	20811
895.648	20830
895.769	20868
895.891	20849
896.012	20857
896.134	20921
896.255	20838
896.376	20758
896.498	20689
896.619	20796
896.74	20815
896.861	20800
896.982	21096
897.103	21230
897.224	21051
897.345	20982
897.466	20929
897.587	20921
897.708	21298
897.828	21051
897.949	20963
898.07	20834
898.19	20921
898.311	21127
898.431	20979
898.552	20979
898.672	21036
898.792	21116
898.913	20990
899.033	21009
899.153	20788
899.273	20632
899.393	20697
899.513	20807
899.633	20727
899.753	20746
899.873	20682
899.993	20754
900.113	20686
900.232	20758
900.352	20735
900.472	20609
900.591	20480
900.711	20587
900.83	20355
900.95	20587
901.069	20636
901.189	20339
901.308	20237
901.427	20016
901.546	20100
901.665	20111
901.784	20145
901.904	19742
902.023	19811
902.141	19594
902.26	19670
902.379	19651
902.498	19597
902.617	19578
902.735	19605
902.854	19567
902.973	19445
903.091	19354
903.21	19259
903.328	19209
903.446	19152
903.565	18989
903.683	19091
903.801	18935
903.919	18871
904.038	18920
904.156	18894
904.274	18856
904.392	18859
904.51	18578
904.627	18688
904.745	18757
904.863	18863
904.981	18608
905.098	18452
905.216	18509
905.334	18582
905.451	18456
905.569	18395
905.686	18525
905.803	18502
905.921	18346
906.038	18270
906.155	18342
906.272	18213
906.389	18235
906.506	18038
906.623	18007
906.74	18171
906.857	17920
906.974	17923
907.091	18019
907.208	18129
907.324	18129
907.441	17988
907.557	17866
907.674	17745
907.79	17722
907.907	17741
908.023	17741
908.139	17771
908.256	17802
908.372	17608
908.488	17672
908.604	17520
908.72	17524
908.836	17406
908.952	17448
909.068	17490
909.184	17520
909.3	17421
909.415	17532
909.531	17353
909.647	17113
909.762	17132
909.878	17140
909.993	17235
910.108	17189
910.224	17208
910.339	17174
910.454	17079
910.57	17006
910.685	16968
910.8	17212
910.915	17151
911.03	16957
911.145	16934
911.259	16672
911.374	16725
911.489	16717
911.604	16565
911.718	16554
911.833	16516
911.947	16367
912.062	16314
912.176	16500
912.291	16649
912.405	16440
912.519	16694
912.633	16527
912.748	16485
912.862	16474
912.976	16360
913.09	16158
913.204	16249
913.318	16253
913.431	16455
913.545	16382
913.659	16405
913.772	16291
913.886	16131
914	16173
914.113	16268
914.226	16185
914.34	16147
914.453	15937
914.566	16188
914.68	16071
914.793	15911
914.906	15732
915.019	15759
915.132	15728
915.245	15679
915.358	15808
915.47	15671
915.583	15778
915.696	15732
915.809	15835
915.921	15850
916.034	15663
916.146	15526
916.259	15507
916.371	15686
916.483	15625
916.595	15595
916.708	15576
916.82	15568
916.932	15526
917.044	15469
917.156	15447
917.268	15405
917.38	15397
917.491	15245
917.603	15313
917.715	15291
917.826	15431
917.938	15169
918.049	15119
918.161	15329
918.272	15363
918.384	15294
918.495	15245
918.606	15058
918.717	14990
918.828	15058
918.939	15135
919.05	15009
919.161	15074
919.272	14891
919.383	14952
919.494	15047
919.604	15237
919.715	15074
919.826	14925
919.936	14960
920.047	15055
920.157	15066
920.267	15252
920.378	15051
920.488	15020
920.598	15199
920.708	15214
920.818	15112
920.928	15127
921.038	15272
921.148	15287
921.258	14929
921.368	14830
921.477	14712
921.587	14773
921.697	14613
921.806	14705
921.916	14617
922.025	14507
922.134	14267
922.244	14412
922.353	14339
922.462	14240
922.571	14233
922.68	14043
922.789	13963
922.898	13978
923.007	14008
923.116	14073
923.224	13993
923.333	13967
923.442	13925
923.55	13696
923.659	13951
923.767	13864
923.876	13902
923.984	13856
924.092	13757
924.201	13715
924.309	13795
924.417	13677
924.525	13761
924.633	13708
924.741	14606
924.849	13499
924.956	13655
925.064	13502
925.172	13422
925.279	13331
925.387	13540
925.494	13419
925.602	13502
925.709	13415
925.816	13335
925.924	13350
926.031	13457
926.138	13225
926.245	13403
926.352	13217
926.459	13327
926.566	13324
926.673	13247
926.779	13164
926.886	13103
926.993	13046
927.099	13019
927.206	12878
927.312	12951
927.419	12973
927.525	12894
927.631	12989
927.737	12886
927.843	12757
927.95	12688
928.056	12764
928.162	12772
928.267	12833
928.373	13297
928.479	12871
928.585	12566
928.69	12730
928.796	12722
928.901	12620
929.007	12544
929.112	12631
929.218	12555
929.323	12547
929.428	12483
929.533	12570
929.638	12369
929.743	12433
929.848	12494
929.953	12403
930.058	12258
930.163	12235
930.267	12197
930.372	12365
930.477	12087
930.581	12319
930.685	12190
930.79	12019
930.894	12060
930.998	12019
931.103	12117
931.207	11775
931.311	11722
931.415	11707
931.519	11490
931.623	11436
