Data from test_V78500241_3130.txt Node
Date: Fri Mar 25 15:31:39 CST 2022
User: usil
Spectrometer: V785-0024
Trigger mode: 0
Integration Time (sec): 4.000000E-1
Scans to average: 1
Nonlinearity correction enabled: false
Boxcar width: 0
Storing dark spectrum: false
XAxis mode: Wavelengths
Number of Pixels in Spectrum: 1024
>>>>>Begin Spectral Data<<<<<
801.071	27123
801.214	27192
801.356	26902
801.499	26861
801.641	26716
801.783	26644
801.926	26727
802.068	26640
802.211	26644
802.353	26655
802.496	26275
802.638	26374
802.78	26233
802.923	26313
803.065	26088
803.208	26221
803.35	26263
803.492	26442
803.635	26465
803.777	26336
803.919	26488
804.061	26826
804.204	26587
804.346	26389
804.488	26347
804.63	26431
804.773	26374
804.915	26423
805.057	26514
805.199	26469
805.341	26408
805.483	26556
805.626	26469
805.768	26355
805.91	26522
806.052	26762
806.194	26533
806.336	26659
806.478	26545
806.62	26476
806.762	26693
806.904	26765
807.046	27051
807.188	27024
807.33	26944
807.472	27013
807.614	26895
807.756	26883
807.898	26746
808.04	26773
808.182	26765
808.324	26670
808.465	26785
808.607	27032
808.749	27055
808.891	27355
809.033	27287
809.174	27317
809.316	27104
809.458	27146
809.6	27043
809.741	27249
809.883	27294
810.025	27504
810.166	27420
810.308	27435
810.45	27382
810.591	27283
810.733	27150
810.875	27127
811.016	27070
811.158	27146
811.299	27386
811.441	27340
811.582	27427
811.724	27192
811.865	27020
812.007	27024
812.148	27192
812.29	27199
812.431	27237
812.573	27561
812.714	27557
812.855	27576
812.997	27656
813.138	27857
813.279	27743
813.421	27603
813.562	27663
813.703	27519
813.845	27363
813.986	26975
814.127	26952
814.268	26948
814.41	26906
814.551	26781
814.692	26918
814.833	26872
814.974	26792
815.115	26777
815.256	26750
815.397	26625
815.539	26697
815.68	26499
815.821	26522
815.962	26556
816.103	26415
816.244	26492
816.385	26237
816.526	26339
816.666	26282
816.807	26024
816.948	26096
817.089	26142
817.23	26077
817.371	25932
817.512	25947
817.653	25906
817.793	25944
817.934	25898
818.075	25860
818.216	26005
818.356	25947
818.497	25925
818.638	25803
818.778	25685
818.919	25856
819.06	25856
819.2	25902
819.341	25959
819.481	26058
819.622	26324
819.762	26320
819.903	26248
820.043	26111
820.184	26119
820.324	26119
820.465	26176
820.605	26073
820.746	26138
820.886	26043
821.026	25993
821.167	26050
821.307	26149
821.447	26050
821.588	25955
821.728	25753
821.868	25811
822.008	25438
822.149	25521
822.289	25457
822.429	25251
822.569	25209
822.709	25194
822.849	25084
822.99	24985
823.13	25004
823.27	24954
823.41	24757
823.55	24749
823.69	24848
823.83	24798
823.97	24772
824.11	24559
824.25	24635
824.389	24547
824.529	24715
824.669	24692
824.809	24772
824.949	24681
825.089	24776
825.228	24677
825.368	24494
825.508	24521
825.648	24528
825.787	24521
825.927	24536
826.067	24403
826.206	24426
826.346	24654
826.485	24582
826.625	24528
826.765	24757
826.904	24422
827.044	24194
827.183	24357
827.323	24209
827.462	24277
827.601	24194
827.741	24197
827.88	24243
828.02	23954
828.159	24182
828.298	24262
828.437	24133
828.577	24091
828.716	24254
828.855	24079
828.994	24007
829.134	23988
829.273	23984
829.412	23878
829.551	23817
829.69	23923
829.829	24018
829.968	24053
830.107	23973
830.246	23935
830.385	23912
830.524	23805
830.663	23809
830.802	23634
830.941	23455
831.08	23589
831.219	23691
831.357	23562
831.496	23832
831.635	23531
831.774	23463
831.913	23429
832.051	23372
832.19	23322
832.329	23395
832.467	23261
832.606	23136
832.744	23018
832.883	23200
833.022	23109
833.16	23109
833.299	23193
833.437	23246
833.576	23216
833.714	23311
833.852	23231
833.991	23265
834.129	23318
834.267	23379
834.406	23231
834.544	23337
834.682	23227
834.821	23212
834.959	23444
835.097	23277
835.235	23326
835.373	23193
835.511	23193
835.65	23200
835.788	23052
835.926	23022
836.064	22908
836.202	22976
836.34	23113
836.478	23151
836.615	23052
836.753	23166
836.891	23174
837.029	23208
837.167	23048
837.305	23003
837.443	22862
837.58	22801
837.718	23079
837.856	22957
837.993	22889
838.131	22839
838.269	22828
838.406	22805
838.544	22816
838.681	22611
838.819	22645
838.956	22512
839.094	22356
839.231	22409
839.369	22637
839.506	22934
839.643	22679
839.781	22504
839.918	22363
840.055	22386
840.193	22371
840.33	22249
840.467	22280
840.604	22470
840.742	22649
840.879	22303
841.016	22329
841.153	22238
841.29	22417
841.427	22272
841.564	22329
841.701	22322
841.838	22265
841.975	22424
842.112	22356
842.249	22318
842.385	22139
842.522	22295
842.659	22154
842.796	22173
842.933	22181
843.069	22063
843.206	22044
843.343	22215
843.479	22166
843.616	22074
843.752	21956
843.889	21975
844.025	22063
844.162	21816
844.298	21994
844.435	21850
844.571	21835
844.708	21880
844.844	21991
844.98	22017
845.117	21975
845.253	21915
845.389	21690
845.525	21922
845.661	21587
845.798	21564
845.934	21713
846.07	21633
846.206	21770
846.342	21785
846.478	21656
846.614	21378
846.75	21264
846.886	21450
847.022	21408
847.158	21355
847.294	21435
847.429	21401
847.565	21435
847.701	21724
847.837	21157
847.972	21036
848.108	21237
848.244	21131
848.379	21051
848.515	20971
848.65	20914
848.786	20960
848.921	20944
849.057	21074
849.192	20979
849.328	20971
849.463	20861
849.598	20986
849.734	20838
849.869	20895
850.004	20815
850.14	20842
850.275	20724
850.41	20606
850.545	20724
850.68	20708
850.815	20697
850.95	20750
851.085	20823
851.22	20918
851.355	20773
851.49	20701
851.625	20629
851.76	20708
851.895	20575
852.03	20613
852.165	20716
852.299	20796
852.434	20819
852.569	20773
852.703	20800
852.838	20811
852.973	20845
853.107	20952
853.242	20727
853.376	20617
853.511	20400
853.645	20560
853.78	20686
853.914	20655
854.048	20450
854.183	20545
854.317	20556
854.451	20708
854.585	20568
854.72	20499
854.854	20598
854.988	20571
855.122	20663
855.256	20412
855.39	20419
855.524	20636
855.658	20682
855.792	20530
855.926	20533
856.06	20617
856.194	20727
856.327	20587
856.461	20617
856.595	20476
856.729	20434
856.862	20552
856.996	20629
857.13	20720
857.263	20708
857.397	20758
857.53	20552
857.664	20640
857.797	20663
857.931	20606
858.064	20667
858.197	20644
858.331	20644
858.464	20537
858.597	20549
858.731	20537
858.864	20404
858.997	20514
859.13	20621
859.263	20640
859.396	20807
859.529	20503
859.662	20609
859.795	20526
859.928	20648
860.061	20697
860.194	20857
860.327	20587
860.46	20541
860.592	20545
860.725	20609
860.858	20621
860.99	20575
861.123	20454
861.256	20613
861.388	20617
861.521	21142
861.653	20457
861.786	20336
861.918	20503
862.05	20530
862.183	20514
862.315	20533
862.447	20587
862.58	20476
862.712	20358
862.844	20164
862.976	20336
863.108	20343
863.24	20594
863.372	20309
863.504	20286
863.636	20240
863.768	20320
863.9	20343
864.032	20138
864.164	20278
864.296	20252
864.428	20366
864.559	20370
864.691	20450
864.823	20351
864.954	20301
865.086	20180
865.217	20187
865.349	20153
865.48	20199
865.612	20206
865.743	20199
865.875	20240
866.006	20142
866.137	20259
866.269	20138
866.4	20180
866.531	20168
866.662	20210
866.793	20149
866.924	20077
867.055	20039
867.186	20164
867.317	20134
867.448	19993
867.579	20244
867.71	20016
867.841	20168
867.972	20142
868.103	20172
868.233	20077
868.364	20130
868.495	20305
868.625	20355
868.756	20408
868.886	20237
869.017	20362
869.147	20530
869.278	20526
869.408	20313
869.539	20309
869.669	20507
869.799	20461
869.929	20549
870.06	20495
870.19	20556
870.32	20651
870.45	20648
870.58	20701
870.71	20933
870.84	20944
870.97	20750
871.1	20788
871.23	20948
871.36	20941
871.489	20918
871.619	20910
871.749	20994
871.879	20887
872.008	21119
872.138	20979
872.267	20956
872.397	20792
872.526	20834
872.656	20773
872.785	20754
872.915	21077
873.044	21028
873.173	20944
873.303	21032
873.432	21154
873.561	21074
873.69	21070
873.819	20994
873.948	21051
874.077	21051
874.206	20925
874.335	20998
874.464	21074
874.593	21180
874.722	21237
874.851	21226
874.979	21256
875.108	21157
875.237	21154
875.365	21112
875.494	21272
875.623	21389
875.751	21199
875.88	21336
876.008	21393
876.136	21405
876.265	21682
876.393	21663
876.521	21827
876.65	21595
876.778	21675
876.906	21496
877.034	21686
877.162	21625
877.29	21519
877.418	21667
877.546	21606
877.674	21625
877.802	21504
877.93	21534
878.058	21572
878.185	21583
878.313	21454
878.441	21701
878.568	21408
878.696	21557
878.824	21557
878.951	21675
879.079	21747
879.206	21949
879.333	21656
879.461	21591
879.588	21701
879.715	21675
879.842	21842
879.97	21759
880.097	21458
880.224	21466
880.351	21526
880.478	21477
880.605	21332
880.732	21462
880.859	21614
880.986	21534
881.112	21439
881.239	21260
881.366	21100
881.493	21039
881.619	20994
881.746	21074
881.872	21032
881.999	20914
882.125	20891
882.252	21009
882.378	21028
882.505	21112
882.631	20956
882.757	20781
882.883	20788
883.01	20845
883.136	20663
883.262	20602
883.388	20442
883.514	20762
883.64	20781
883.766	20552
883.892	20541
884.018	20545
884.143	20629
884.269	20758
884.395	20412
884.52	20393
884.646	20317
884.772	20419
884.897	20225
885.023	20317
885.148	20495
885.274	20465
885.399	20465
885.524	20450
885.65	20358
885.775	20336
885.9	20286
886.025	20457
886.15	20465
886.275	20347
886.4	20275
886.525	20164
886.65	20324
886.775	20358
886.9	20393
887.025	20518
887.149	20400
887.274	20180
887.399	20142
887.523	20172
887.648	20069
887.773	20005
887.897	20210
888.021	20244
888.146	20058
888.27	20168
888.395	20282
888.519	20164
888.643	20134
888.767	20157
888.891	20062
889.015	20027
889.139	19970
889.263	19944
889.387	19997
889.511	20164
889.635	19989
889.759	19860
889.883	19906
890.006	19932
890.13	20024
890.254	19852
890.377	19784
890.501	19799
890.624	19601
890.748	19757
890.871	19620
890.995	19491
891.118	19552
891.241	19552
891.364	19582
891.488	19674
891.611	19518
891.734	19468
891.857	19514
891.98	19544
892.103	19518
892.226	19601
892.349	19472
892.471	19282
892.594	19575
892.717	19403
892.839	19350
892.962	19552
893.085	19613
893.207	19365
893.33	19175
893.452	19358
893.575	19525
893.697	19540
893.819	19567
893.941	19647
894.064	19685
894.186	19308
894.308	19362
894.43	19533
894.552	19635
894.674	19586
894.796	19285
894.918	19438
895.04	19415
895.161	19422
895.283	19445
895.405	19453
895.526	19514
895.648	19502
895.769	19392
895.891	19518
896.012	19540
896.134	19578
896.255	19483
896.376	19384
896.498	19350
896.619	19468
896.74	19457
896.861	19540
896.982	19788
897.103	19944
897.224	19597
897.345	19693
897.466	19696
897.587	19746
897.708	19731
897.828	19647
897.949	19537
898.07	19567
898.19	19639
898.311	19772
898.431	19616
898.552	19647
898.672	19837
898.792	19712
898.913	19803
899.033	19597
899.153	19529
899.273	19460
899.393	19400
899.513	19537
899.633	19430
899.753	19502
899.873	19426
899.993	19525
900.113	19365
900.232	19434
900.352	19365
900.472	19240
900.591	19156
900.711	19247
900.83	19168
900.95	19232
901.069	19274
901.189	19095
901.308	18928
901.427	18810
901.546	18913
901.665	18920
901.784	18920
901.904	18730
902.023	18574
902.141	18471
902.26	18327
902.379	18380
902.498	18365
902.617	18308
902.735	18460
902.854	18327
902.973	18323
903.091	18030
903.21	17980
903.328	18038
903.446	18038
903.565	17855
903.683	17836
903.801	17714
903.919	17775
904.038	17733
904.156	17668
904.274	17676
904.392	17592
904.51	17600
904.627	17566
904.745	17737
904.863	17733
904.981	17391
905.098	17277
905.216	17235
905.334	17383
905.451	17315
905.569	17197
905.686	17212
905.803	17341
905.921	17045
906.038	17239
906.155	17098
906.272	16949
906.389	16908
906.506	16896
906.623	16858
906.74	16786
906.857	16634
906.974	16771
907.091	16934
907.208	16927
907.324	16752
907.441	16721
907.557	16558
907.674	16599
907.79	16516
907.907	16500
908.023	16607
908.139	16542
908.256	16432
908.372	16443
908.488	16489
908.604	16333
908.72	16215
908.836	16246
908.952	16268
909.068	16196
909.184	16375
909.3	16147
909.415	16303
909.531	16284
909.647	15960
909.762	15987
909.878	15838
909.993	15983
910.108	16021
910.224	15823
910.339	15941
910.454	15861
910.57	15823
910.685	15724
910.8	15846
910.915	15930
911.03	15789
911.145	15633
911.259	15587
911.374	15580
911.489	15553
911.604	15545
911.718	15302
911.833	15310
911.947	15283
912.062	15203
912.176	15408
912.291	15397
912.405	15332
912.519	15500
912.633	15477
912.748	15344
912.862	15268
912.976	15127
913.09	15077
913.204	15066
913.318	15188
913.431	15268
913.545	15108
913.659	15214
913.772	15112
913.886	14990
914	14864
914.113	15009
914.226	15062
914.34	15020
914.453	14899
914.566	14895
914.68	14868
914.793	14838
914.906	14663
915.019	14594
915.132	14465
915.245	14617
915.358	14594
915.47	14602
915.583	14610
915.696	14552
915.809	14636
915.921	14659
916.034	14564
916.146	14549
916.259	14438
916.371	14545
916.483	14511
916.595	14408
916.708	14476
916.82	14381
916.932	14362
917.044	14408
917.156	14355
917.268	14214
917.38	14286
917.491	14206
917.603	14229
917.715	14298
917.826	14427
917.938	14191
918.049	14096
918.161	14145
918.272	14313
918.384	14339
918.495	14180
918.606	14043
918.717	14035
918.828	14001
918.939	14111
919.05	13955
919.161	13963
919.272	13818
919.383	13826
919.494	14027
919.604	14263
919.715	13947
919.826	13871
919.936	14001
920.047	14092
920.157	13951
920.267	14161
920.378	13951
920.488	13917
920.598	14164
920.708	14225
920.818	14138
920.928	14195
921.038	14263
921.148	14282
921.258	13967
921.368	13875
921.477	13750
921.587	13814
921.697	13708
921.806	13632
921.916	13666
922.025	13518
922.134	13567
922.244	13362
922.353	13502
922.462	13278
922.571	13141
922.68	13133
922.789	13084
922.898	13046
923.007	13000
923.116	13065
923.224	13042
923.333	13069
923.442	12863
923.55	12875
923.659	12951
923.767	12886
923.876	12859
923.984	12890
924.092	12700
924.201	12848
924.309	12783
924.417	12776
924.525	12665
924.633	12738
924.741	13647
924.849	12601
924.956	12684
925.064	12506
925.172	12342
925.279	12460
925.387	12502
925.494	12551
925.602	12650
925.709	12509
925.816	12418
925.924	12448
926.031	12445
926.138	12418
926.245	12498
926.352	12273
926.459	12460
926.566	12566
926.673	12353
926.779	12281
926.886	12292
926.993	12095
927.099	12095
927.206	11935
927.312	11996
927.419	12053
927.525	12022
927.631	12106
927.737	11999
927.843	12022
927.95	11756
928.056	11840
928.162	12038
928.267	11942
928.373	12578
928.479	12034
928.585	11756
928.69	11783
928.796	11908
928.901	11752
929.007	11604
929.112	11722
929.218	11627
929.323	11642
929.428	11589
929.533	11805
929.638	11528
929.743	11646
929.848	11642
929.953	11615
930.058	11524
930.163	11368
930.267	11315
930.372	11509
930.477	11330
930.581	11414
930.685	11433
930.79	11239
930.894	11360
930.998	11155
931.103	11299
931.207	10923
931.311	10949
931.415	10790
931.519	10660
931.623	10538
