Data from test_V78500241_3515.txt Node
Date: Fri Mar 25 15:34:20 CST 2022
User: usil
Spectrometer: V785-0024
Trigger mode: 0
Integration Time (sec): 4.000000E-1
Scans to average: 1
Nonlinearity correction enabled: false
Boxcar width: 0
Storing dark spectrum: false
XAxis mode: Wavelengths
Number of Pixels in Spectrum: 1024
>>>>>Begin Spectral Data<<<<<
801.071	27397
801.214	27405
801.356	27081
801.499	26952
801.641	26960
801.783	26956
801.926	26998
802.068	26914
802.211	26769
802.353	26754
802.496	26625
802.638	26549
802.78	26556
802.923	26427
803.065	26503
803.208	26415
803.35	26537
803.492	26602
803.635	26716
803.777	26689
803.919	26853
804.061	26861
804.204	26720
804.346	26777
804.488	26564
804.63	26762
804.773	26537
804.915	26686
805.057	26887
805.199	26701
805.341	26712
805.483	26800
805.626	26849
805.768	26792
805.91	26823
806.052	26792
806.194	26777
806.336	27028
806.478	26914
806.62	26914
806.762	26990
806.904	27089
807.046	27321
807.188	27203
807.33	27184
807.472	27214
807.614	27188
807.756	27157
807.898	26952
808.04	26963
808.182	27001
808.324	27036
808.465	27123
808.607	27321
808.749	27416
808.891	27526
809.033	27549
809.174	27477
809.316	27370
809.458	27378
809.6	27351
809.741	27454
809.883	27397
810.025	27500
810.166	27641
810.308	27766
810.45	27587
810.591	27739
810.733	27492
810.875	27439
811.016	27462
811.158	27310
811.299	27450
811.441	27477
811.582	27652
811.724	27408
811.865	27519
812.007	27561
812.148	27367
812.29	27454
812.431	27557
812.573	27785
812.714	27690
812.855	27953
812.997	27838
813.138	28105
813.279	27945
813.421	27854
813.562	27884
813.703	27762
813.845	27515
813.986	27287
814.127	27252
814.268	27104
814.41	27142
814.551	27077
814.692	27150
814.833	27108
814.974	27013
815.115	26960
815.256	26880
815.397	27001
815.539	26944
815.68	26857
815.821	26807
815.962	26914
816.103	26830
816.244	26659
816.385	26594
816.526	26571
816.666	26419
816.807	26290
816.948	26434
817.089	26442
817.23	26301
817.371	26263
817.512	26351
817.653	26370
817.793	26206
817.934	26305
818.075	26294
818.216	26324
818.356	26244
818.497	26278
818.638	26119
818.778	26065
818.919	26039
819.06	26081
819.2	26206
819.341	26328
819.481	26355
819.622	26469
819.762	26598
819.903	26587
820.043	26552
820.184	26457
820.324	26423
820.465	26552
820.605	26465
820.746	26381
820.886	26343
821.026	26355
821.167	26336
821.307	26488
821.447	26267
821.588	26157
821.728	26164
821.868	26107
822.008	25666
822.149	25970
822.289	25738
822.429	25605
822.569	25533
822.709	25415
822.849	25346
822.99	25320
823.13	25369
823.27	25263
823.41	25084
823.55	25065
823.69	25118
823.83	25114
823.97	25015
824.11	25019
824.25	24894
824.389	24992
824.529	25042
824.669	24981
824.809	25004
824.949	25129
825.089	25069
825.228	25008
825.368	24776
825.508	24760
825.648	24878
825.787	24852
825.927	24882
826.067	24703
826.206	24719
826.346	25015
826.485	24886
826.625	24810
826.765	24852
826.904	24859
827.044	24726
827.183	24612
827.323	24540
827.462	24631
827.601	24627
827.741	24578
827.88	24589
828.02	24479
828.159	24410
828.298	24608
828.437	24490
828.577	24513
828.716	24783
828.855	24498
828.994	24273
829.134	24152
829.273	24232
829.412	24167
829.551	24144
829.69	24285
829.829	24262
829.968	24391
830.107	24292
830.246	24129
830.385	24220
830.524	24205
830.663	24140
830.802	24022
830.941	23802
831.08	23859
831.219	23836
831.357	24034
831.496	24034
831.635	23893
831.774	23718
831.913	23695
832.051	23695
832.19	23615
832.329	23509
832.467	23490
832.606	23455
832.744	23421
832.883	23531
833.022	23444
833.16	23516
833.299	23543
833.437	23558
833.576	23703
833.714	23539
833.852	23653
833.991	23687
834.129	23733
834.267	23874
834.406	23691
834.544	23714
834.682	23737
834.821	23615
834.959	23790
835.097	23547
835.235	23627
835.373	23646
835.511	23600
835.65	23497
835.788	23581
835.926	23318
836.064	23379
836.202	23356
836.34	23577
836.478	23608
836.615	23471
836.753	23455
836.891	23570
837.029	23509
837.167	23436
837.305	23471
837.443	23429
837.58	23254
837.718	23444
837.856	23410
837.993	23303
838.131	23315
838.269	23197
838.406	23292
838.544	23075
838.681	23128
838.819	22938
838.956	22713
839.094	22767
839.231	22812
839.369	23018
839.506	23124
839.643	23155
839.781	22786
839.918	22774
840.055	22854
840.193	22790
840.33	22653
840.467	22653
840.604	22877
840.742	23056
840.879	22599
841.016	22752
841.153	22478
841.29	22820
841.427	22850
841.564	22694
841.701	22611
841.838	22554
841.975	22596
842.112	22805
842.249	22523
842.385	22470
842.522	22599
842.659	22550
842.796	22379
842.933	22542
843.069	22363
843.206	22382
843.343	22535
843.479	22504
843.616	22565
843.752	22261
843.889	22211
844.025	22466
844.162	22303
844.298	22356
844.435	22158
844.571	22238
844.708	22360
844.844	22280
844.98	22371
845.117	22440
845.253	22246
845.389	22287
845.525	22105
845.661	22025
845.798	21911
845.934	22101
846.07	22029
846.206	22109
846.342	22116
846.478	22017
846.614	21789
846.75	21759
846.886	21793
847.022	21850
847.158	21823
847.294	21694
847.429	21762
847.565	21671
847.701	22090
847.837	21561
847.972	21492
848.108	21629
848.244	21542
848.379	21431
848.515	21317
848.65	21165
848.786	21317
848.921	21412
849.057	21336
849.192	21443
849.328	21279
849.463	21249
849.598	21256
849.734	21256
849.869	21192
850.004	21096
850.14	21066
850.275	21108
850.41	20990
850.545	21135
850.68	21077
850.815	21146
850.95	21161
851.085	21355
851.22	21199
851.355	21100
851.49	21055
851.625	21028
851.76	21093
851.895	21039
852.03	21020
852.165	21157
852.299	21173
852.434	21199
852.569	21066
852.703	21150
852.838	21062
852.973	21192
853.107	21256
853.242	21055
853.376	20933
853.511	20830
853.645	20819
853.78	20891
853.914	21062
854.048	21001
854.183	20925
854.317	21001
854.451	21096
854.585	20948
854.72	21047
854.854	21066
854.988	20811
855.122	20914
855.256	20796
855.39	20944
855.524	20982
855.658	20891
855.792	20914
855.926	20921
856.06	20960
856.194	20979
856.327	20899
856.461	20925
856.595	20800
856.729	20849
856.862	20933
856.996	20963
857.13	21081
857.263	21001
857.397	21081
857.53	21001
857.664	20857
857.797	21032
857.931	20929
858.064	20910
858.197	21150
858.331	20921
858.464	20838
858.597	20788
858.731	20975
858.864	20883
858.997	20758
859.13	20937
859.263	20941
859.396	20990
859.529	20990
859.662	20823
859.795	20792
859.928	20952
860.061	21055
860.194	21096
860.327	21032
860.46	20990
860.592	20986
860.725	21127
860.858	21062
860.99	21009
861.123	20842
861.256	20845
861.388	20758
861.521	21720
861.653	20880
861.786	20640
861.918	20708
862.05	20792
862.183	20800
862.315	20823
862.447	20952
862.58	20838
862.712	20754
862.844	20629
862.976	20682
863.108	20819
863.24	21077
863.372	20590
863.504	20705
863.636	20617
863.768	20659
863.9	20636
864.032	20682
864.164	20670
864.296	20629
864.428	20804
864.559	20670
864.691	20739
864.823	20636
864.954	20716
865.086	20579
865.217	20598
865.349	20450
865.48	20537
865.612	20522
865.743	20579
865.875	20537
866.006	20552
866.137	20541
866.269	20511
866.4	20556
866.531	20507
866.662	20358
866.793	20488
866.924	20594
867.055	20454
867.186	20609
867.317	20541
867.448	20412
867.579	20370
867.71	20503
867.841	20336
867.972	20434
868.103	20473
868.233	20480
868.364	20530
868.495	20541
868.625	20629
868.756	20899
868.886	20632
869.017	20667
869.147	20765
869.278	20921
869.408	20826
869.539	20750
869.669	20758
869.799	20785
869.929	20788
870.06	20948
870.19	20994
870.32	20979
870.45	21070
870.58	21127
870.71	21207
870.84	21249
870.97	21127
871.1	21264
871.23	21374
871.36	21370
871.489	21329
871.619	21370
871.749	21420
871.879	21279
872.008	21340
872.138	21283
872.267	21359
872.397	21332
872.526	21173
872.656	21192
872.785	21218
872.915	21450
873.044	21431
873.173	21332
873.303	21378
873.432	21287
873.561	21397
873.69	21443
873.819	21439
873.948	21378
874.077	21321
874.206	21355
874.335	21408
874.464	21454
874.593	21610
874.722	21500
874.851	21778
874.979	21564
875.108	21603
875.237	21641
875.365	21462
875.494	21580
875.623	21648
875.751	21488
875.88	21599
876.008	21850
876.136	21785
876.265	22002
876.393	22181
876.521	22128
876.65	22059
876.778	22021
876.906	21983
877.034	21964
877.162	21949
877.29	21781
877.418	22029
877.546	22086
877.674	21850
877.802	21972
877.93	21953
878.058	21854
878.185	21709
878.313	21918
878.441	21857
878.568	21800
878.696	21918
878.824	22032
878.951	22105
879.079	22093
879.206	22135
879.333	22097
879.461	22017
879.588	22029
879.715	22044
879.842	22242
879.97	21983
880.097	21816
880.224	21797
880.351	21869
880.478	21717
880.605	21823
880.732	21766
880.859	21975
880.986	21842
881.112	21747
881.239	21652
881.366	21504
881.493	21386
881.619	21450
881.746	21275
881.872	21359
881.999	21378
882.125	21245
882.252	21329
882.378	21241
882.505	21564
882.631	21180
882.757	20990
882.883	21135
883.01	21058
883.136	21058
883.262	20998
883.388	21024
883.514	21055
883.64	21135
883.766	20921
883.892	20842
884.018	20777
884.143	20963
884.269	20986
884.395	20773
884.52	20815
884.646	20769
884.772	20629
884.897	20651
885.023	20648
885.148	20785
885.274	20872
885.399	20861
885.524	20746
885.65	20720
885.775	20667
885.9	20754
886.025	20765
886.15	20941
886.275	20606
886.4	20663
886.525	20686
886.65	20556
886.775	20541
886.9	20800
887.025	20819
887.149	20651
887.274	20530
887.399	20465
887.523	20549
887.648	20404
887.773	20408
887.897	20568
888.021	20454
888.146	20442
888.27	20552
888.395	20609
888.519	20514
888.643	20507
888.767	20434
888.891	20393
889.015	20298
889.139	20286
889.263	20225
889.387	20320
889.511	20377
889.635	20366
889.759	20298
889.883	20275
890.006	20396
890.13	20404
890.254	20202
890.377	20199
890.501	20031
890.624	19982
890.748	20191
890.871	20012
890.995	19753
891.118	19791
891.241	19818
891.364	19841
891.488	19913
891.611	19947
891.734	19864
891.857	19814
891.98	19875
892.103	19852
892.226	19849
892.349	19856
892.471	19731
892.594	19670
892.717	19731
892.839	19803
892.962	19639
893.085	19830
893.207	19757
893.33	19727
893.452	19700
893.575	19951
893.697	19685
893.819	19890
893.941	20031
894.064	19822
894.186	19712
894.308	19651
894.43	19776
894.552	19849
894.674	19852
894.796	19624
894.918	19780
895.04	19670
895.161	19902
895.283	19833
895.405	19712
895.526	19799
895.648	19727
895.769	19799
895.891	19822
896.012	19974
896.134	19883
896.255	19795
896.376	19818
896.498	19746
896.619	19852
896.74	19712
896.861	19776
896.982	20164
897.103	20172
897.224	19989
897.345	20027
897.466	19967
897.587	19993
897.708	20138
897.828	20077
897.949	20012
898.07	19871
898.19	19860
898.311	20039
898.431	19963
898.552	19993
898.672	20126
898.792	20119
898.913	19982
899.033	19890
899.153	19894
899.273	19685
899.393	19803
899.513	19803
899.633	19799
899.753	19811
899.873	19742
899.993	19696
900.113	19658
900.232	19712
900.352	19651
900.472	19468
900.591	19430
900.711	19628
900.83	19411
900.95	19643
901.069	19700
901.189	19453
901.308	19266
901.427	19046
901.546	19061
901.665	19148
901.784	19110
901.904	19000
902.023	18878
902.141	18566
902.26	18677
902.379	18726
902.498	18536
902.617	18570
902.735	18597
902.854	18597
902.973	18551
903.091	18391
903.21	18277
903.328	18258
903.446	18197
903.565	18163
903.683	18140
903.801	18011
903.919	18045
904.038	18045
904.156	17969
904.274	17939
904.392	17946
904.51	17859
904.627	17832
904.745	17866
904.863	17897
904.981	17703
905.098	17615
905.216	17691
905.334	17516
905.451	17520
905.569	17520
905.686	17573
905.803	17570
905.921	17406
906.038	17467
906.155	17288
906.272	17341
906.389	17277
906.506	17128
906.623	17071
906.74	17174
906.857	16987
906.974	17022
907.091	17143
907.208	17223
907.324	17151
907.441	17018
907.557	16896
907.674	16854
907.79	16752
907.907	16733
908.023	16824
908.139	16892
908.256	16748
908.372	16816
908.488	16668
908.604	16538
908.72	16451
908.836	16649
908.952	16584
909.068	16516
909.184	16653
909.3	16618
909.415	16538
909.531	16466
909.647	16333
909.762	16223
909.878	16295
909.993	16192
910.108	16207
910.224	16150
910.339	16207
910.454	16090
910.57	16055
910.685	15953
910.8	16299
910.915	16261
911.03	16101
911.145	15835
911.259	15854
911.374	15835
911.489	15827
911.604	15770
911.718	15595
911.833	15637
911.947	15538
912.062	15485
912.176	15622
912.291	15637
912.405	15572
912.519	15800
912.633	15774
912.748	15679
912.862	15538
912.976	15397
913.09	15275
913.204	15310
913.318	15435
913.431	15454
913.545	15538
913.659	15450
913.772	15435
913.886	15291
914	15230
914.113	15199
914.226	15378
914.34	15382
914.453	15104
914.566	15272
914.68	15157
914.793	15150
914.906	14849
915.019	14823
915.132	14804
915.245	14880
915.358	14815
915.47	14845
915.583	14804
915.696	14887
915.809	14868
915.921	14857
916.034	14788
916.146	14769
916.259	14705
916.371	14826
916.483	14819
916.595	14659
916.708	14667
916.82	14682
916.932	14701
917.044	14610
917.156	14781
917.268	14594
917.38	14621
917.491	14438
917.603	14530
917.715	14617
917.826	14640
917.938	14412
918.049	14442
918.161	14503
918.272	14701
918.384	14564
918.495	14571
918.606	14332
918.717	14248
918.828	14358
918.939	14362
919.05	14225
919.161	14298
919.272	14100
919.383	14218
919.494	14377
919.604	14484
919.715	14362
919.826	14115
919.936	14328
920.047	14412
920.157	14256
920.267	14339
920.378	14309
920.488	14259
920.598	14415
920.708	14625
920.818	14465
920.928	14415
921.038	14716
921.148	14511
921.258	14248
921.368	14183
921.477	13982
921.587	14062
921.697	13909
921.806	13970
921.916	13852
922.025	13761
922.134	13636
922.244	13670
922.353	13753
922.462	13510
922.571	13578
922.68	13274
922.789	13320
922.898	13373
923.007	13278
923.116	13346
923.224	13396
923.333	13198
923.442	13198
923.55	13069
923.659	13179
923.767	13259
923.876	13129
923.984	13202
924.092	13038
924.201	13080
924.309	13042
924.417	13031
924.525	13012
924.633	13008
924.741	13723
924.849	12837
924.956	12844
925.064	12825
925.172	12669
925.279	12684
925.387	12852
925.494	12757
925.602	12875
925.709	12814
925.816	12616
925.924	12700
926.031	12707
926.138	12757
926.245	12741
926.352	12589
926.459	12700
926.566	12696
926.673	12585
926.779	12532
926.886	12517
926.993	12407
927.099	12384
927.206	12258
927.312	12311
927.419	12334
927.525	12353
927.631	12369
927.737	12171
927.843	12209
927.95	12121
928.056	12110
928.162	12235
928.267	12273
928.373	12627
928.479	12155
928.585	11988
928.69	12175
928.796	12148
928.901	11988
929.007	11828
929.112	12034
929.218	12053
929.323	11958
929.428	11828
929.533	12083
929.638	11889
929.743	11821
929.848	11908
929.953	11832
930.058	11710
930.163	11543
930.267	11535
930.372	11703
930.477	11570
930.581	11764
930.685	11619
930.79	11364
930.894	11478
930.998	11444
931.103	11505
931.207	11254
931.311	11166
931.415	11083
931.519	10862
931.623	10790
