Data from test_V78500241_966.txt Node
Date: Fri Mar 25 15:16:35 CST 2022
User: usil
Spectrometer: V785-0024
Trigger mode: 0
Integration Time (sec): 4.000000E-1
Scans to average: 1
Nonlinearity correction enabled: false
Boxcar width: 0
Storing dark spectrum: false
XAxis mode: Wavelengths
Number of Pixels in Spectrum: 1024
>>>>>Begin Spectral Data<<<<<
801.071	27991
801.214	27949
801.356	27728
801.499	27770
801.641	27625
801.783	27580
801.926	27690
802.068	27603
802.211	27564
802.353	27454
802.496	27249
802.638	27302
802.78	27340
802.923	27138
803.065	27233
803.208	27252
803.35	27237
803.492	27317
803.635	27488
803.777	27252
803.919	27519
804.061	27751
804.204	27473
804.346	27222
804.488	27317
804.63	27534
804.773	27348
804.915	27412
805.057	27568
805.199	27408
805.341	27576
805.483	27580
805.626	27701
805.768	27370
805.91	27603
806.052	27595
806.194	27420
806.336	27732
806.478	27686
806.62	27561
806.762	27705
806.904	27888
807.046	28021
807.188	27888
807.33	27983
807.472	27983
807.614	27884
807.756	27876
807.898	27968
808.04	27964
808.182	27892
808.324	27869
808.465	28017
808.607	28002
808.749	28272
808.891	28265
809.033	28455
809.174	28322
809.316	28299
809.458	28261
809.6	28204
809.741	28379
809.883	28508
810.025	28523
810.166	28436
810.308	28508
810.45	28398
810.591	28607
810.733	28348
810.875	28204
811.016	28272
811.158	28204
811.299	28398
811.441	28440
811.582	28337
811.724	28272
811.865	28268
812.007	28192
812.148	28291
812.29	28352
812.431	28394
812.573	28664
812.714	28599
812.855	28824
812.997	29044
813.138	29022
813.279	28976
813.421	28713
813.562	28782
813.703	28683
813.845	28630
813.986	28257
814.127	28112
814.268	27956
814.41	27964
814.551	27812
814.692	28036
814.833	27987
814.974	27987
815.115	28029
815.256	27880
815.397	27816
815.539	27751
815.68	27603
815.821	27698
815.962	27819
816.103	27880
816.244	27587
816.385	27603
816.526	27667
816.666	27450
816.807	27195
816.948	27348
817.089	27329
817.23	27264
817.371	27283
817.512	27100
817.653	27298
817.793	27230
817.934	27386
818.075	27332
818.216	27195
818.356	27195
818.497	27184
818.638	27020
818.778	27157
818.919	27066
819.06	27009
819.2	27165
819.341	27138
819.481	27272
819.622	27378
819.762	27701
819.903	27606
820.043	27424
820.184	27348
820.324	27462
820.465	27595
820.605	27355
820.746	27443
820.886	27165
821.026	27321
821.167	27256
821.307	27378
821.447	27291
821.588	27070
821.728	26990
821.868	26914
822.008	26785
822.149	26777
822.289	26712
822.429	26507
822.569	26518
822.709	26408
822.849	26320
822.99	26259
823.13	26332
823.27	26107
823.41	26122
823.55	26027
823.69	26130
823.83	26119
823.97	26138
824.11	25894
824.25	25856
824.389	25902
824.529	26024
824.669	26046
824.809	25989
824.949	25940
825.089	25982
825.228	25921
825.368	25731
825.508	25776
825.648	25788
825.787	25860
825.927	25928
826.067	25753
826.206	25738
826.346	25845
826.485	25879
826.625	25871
826.765	25974
826.904	25879
827.044	25537
827.183	25601
827.323	25495
827.462	25586
827.601	25556
827.741	25521
827.88	25518
828.02	25499
828.159	25468
828.298	25525
828.437	25533
828.577	25457
828.716	25643
828.855	25483
828.994	25190
829.134	25259
829.273	25324
829.412	25164
829.551	25198
829.69	25194
829.829	25251
829.968	25259
830.107	25297
830.246	25274
830.385	25152
830.524	25065
830.663	24970
830.802	24913
830.941	25008
831.08	24901
831.219	24992
831.357	24954
831.496	25156
831.635	24806
831.774	24684
831.913	24711
832.051	24669
832.19	24639
832.329	24627
832.467	24620
832.606	24517
832.744	24486
832.883	24551
833.022	24570
833.16	24521
833.299	24593
833.437	24593
833.576	24741
833.714	24566
833.852	24726
833.991	24597
834.129	24791
834.267	24654
834.406	24532
834.544	24578
834.682	24513
834.821	24509
834.959	24688
835.097	24467
835.235	24688
835.373	24502
835.511	24513
835.65	24334
835.788	24555
835.926	24273
836.064	24262
836.202	24258
836.34	24452
836.478	24494
836.615	24456
836.753	24315
836.891	24517
837.029	24376
837.167	24372
837.305	24418
837.443	24448
837.58	24292
837.718	24376
837.856	24296
837.993	24251
838.131	24213
838.269	24178
838.406	24152
838.544	23988
838.681	23870
838.819	24049
838.956	23695
839.094	23760
839.231	23847
839.369	23866
839.506	24167
839.643	24022
839.781	23710
839.918	23570
840.055	23699
840.193	23714
840.33	23551
840.467	23687
840.604	23649
840.742	23939
840.879	23360
841.016	23535
841.153	23604
841.29	23729
841.427	23589
841.564	23661
841.701	23661
841.838	23672
841.975	23528
842.112	23516
842.249	23433
842.385	23376
842.522	23604
842.659	23440
842.796	23395
842.933	23406
843.069	23433
843.206	23345
843.343	23528
843.479	23395
843.616	23391
843.752	23208
843.889	23155
844.025	23364
844.162	23143
844.298	23284
844.435	23261
844.571	23094
844.708	23204
844.844	23337
844.98	23299
845.117	23166
845.253	23121
845.389	23048
845.525	22980
845.661	22930
845.798	22869
845.934	22957
846.07	22896
846.206	22900
846.342	23048
846.478	22915
846.614	22759
846.75	22634
846.886	22645
847.022	22786
847.158	22626
847.294	22713
847.429	22752
847.565	22630
847.701	22965
847.837	22325
847.972	22428
848.108	22466
848.244	22440
848.379	22318
848.515	22261
848.65	22078
848.786	22226
848.921	22352
849.057	22303
849.192	22276
849.328	22398
849.463	22211
849.598	22150
849.734	22158
849.869	22169
850.004	21972
850.14	22086
850.275	21956
850.41	21960
850.545	21907
850.68	21949
850.815	21979
850.95	21953
851.085	22078
851.22	22078
851.355	21983
851.49	22025
851.625	21972
851.76	21831
851.895	21869
852.03	21880
852.165	22055
852.299	21922
852.434	22082
852.569	21964
852.703	21949
852.838	22032
852.973	22181
853.107	22017
853.242	21903
853.376	21915
853.511	21641
853.645	21854
853.78	21797
853.914	21778
854.048	21728
854.183	21892
854.317	21812
854.451	21915
854.585	21819
854.72	21869
854.854	21838
854.988	21606
855.122	21759
855.256	21698
855.39	21728
855.524	21876
855.658	21873
855.792	21827
855.926	21751
856.06	21800
856.194	22036
856.327	21823
856.461	21736
856.595	21705
856.729	21918
856.862	21865
856.996	21846
857.13	21953
857.263	21926
857.397	22010
857.53	21838
857.664	21861
857.797	21793
857.931	22036
858.064	21823
858.197	21899
858.331	21759
858.464	21770
858.597	21610
858.731	21709
858.864	21812
858.997	21641
859.13	21774
859.263	21823
859.396	21903
859.529	21835
859.662	21770
859.795	21781
859.928	21797
860.061	21956
860.194	22078
860.327	21842
860.46	21888
860.592	21960
860.725	22013
860.858	21915
860.99	21857
861.123	21774
861.256	21766
861.388	21781
861.521	22497
861.653	21717
861.786	21511
861.918	21603
862.05	21679
862.183	21755
862.315	21800
862.447	21797
862.58	21656
862.712	21538
862.844	21500
862.976	21595
863.108	21599
863.24	21964
863.372	21424
863.504	21519
863.636	21526
863.768	21591
863.9	21538
864.032	21511
864.164	21511
864.296	21500
864.428	21488
864.559	21580
864.691	21614
864.823	21534
864.954	21526
865.086	21507
865.217	21443
865.349	21279
865.48	21412
865.612	21428
865.743	21496
865.875	21424
866.006	21389
866.137	21408
866.269	21431
866.4	21393
866.531	21252
866.662	21272
866.793	21283
866.924	21393
867.055	21462
867.186	21378
867.317	21233
867.448	21218
867.579	21245
867.71	21241
867.841	21211
867.972	21302
868.103	21287
868.233	21291
868.364	21367
868.495	21351
868.625	21583
868.756	21789
868.886	21587
869.017	21519
869.147	21743
869.278	21766
869.408	21644
869.539	21481
869.669	21656
869.799	21679
869.929	21660
870.06	21660
870.19	21854
870.32	21937
870.45	21892
870.58	21968
870.71	22032
870.84	22147
870.97	21884
871.1	21918
871.23	22097
871.36	22169
871.489	21922
871.619	22131
871.749	22154
871.879	22272
872.008	22299
872.138	22036
872.267	22181
872.397	21983
872.526	21918
872.656	22032
872.785	22032
872.915	22211
873.044	22265
873.173	22291
873.303	22223
873.432	22261
873.561	22272
873.69	22093
873.819	22204
873.948	22242
874.077	22192
874.206	22128
874.335	22211
874.464	22230
874.593	22329
874.722	22440
874.851	22421
874.979	22432
875.108	22409
875.237	22246
875.365	22261
875.494	22325
875.623	22451
875.751	22265
875.88	22493
876.008	22603
876.136	22512
876.265	22767
876.393	22866
876.521	22801
876.65	22862
876.778	22733
876.906	22656
877.034	22664
877.162	22820
877.29	22622
877.418	22763
877.546	22668
877.674	22831
877.802	22816
877.93	22656
878.058	22824
878.185	22504
878.313	22702
878.441	22641
878.568	22584
878.696	22656
878.824	22755
878.951	22831
879.079	22930
879.206	23067
879.333	22949
879.461	22717
879.588	22763
879.715	22900
879.842	22999
879.97	22805
880.097	22660
880.224	22565
880.351	22577
880.478	22588
880.605	22417
880.732	22577
880.859	22706
880.986	22618
881.112	22641
881.239	22375
881.366	22276
881.493	22204
881.619	22265
881.746	22158
881.872	21953
881.999	22135
882.125	21998
882.252	22139
882.378	22010
882.505	22280
882.631	21888
882.757	21880
882.883	21884
883.01	21964
883.136	21812
883.262	21603
883.388	21675
883.514	21937
883.64	21797
883.766	21603
883.892	21504
884.018	21701
884.143	21660
884.269	21846
884.395	21534
884.52	21435
884.646	21507
884.772	21515
884.897	21428
885.023	21515
885.148	21576
885.274	21557
885.399	21629
885.524	21507
885.65	21466
885.775	21469
885.9	21485
886.025	21507
886.15	21542
886.275	21424
886.4	21462
886.525	21450
886.65	21359
886.775	21287
886.9	21447
887.025	21557
887.149	21313
887.274	21382
887.399	21188
887.523	21275
887.648	21157
887.773	21214
887.897	21287
888.021	21340
888.146	21325
888.27	21237
888.395	21256
888.519	21218
888.643	21275
888.767	21116
888.891	21279
889.015	21032
889.139	21165
889.263	21013
889.387	21146
889.511	21112
889.635	21142
889.759	21020
889.883	21028
890.006	21051
890.13	21028
890.254	20952
890.377	20956
890.501	20849
890.624	20735
890.748	20834
890.871	20682
890.995	20594
891.118	20564
891.241	20621
891.364	20564
891.488	20636
891.611	20701
891.734	20640
891.857	20678
891.98	20602
892.103	20636
892.226	20530
892.349	20476
892.471	20446
892.594	20419
892.717	20408
892.839	20526
892.962	20499
893.085	20484
893.207	20454
893.33	20347
893.452	20419
893.575	20476
893.697	20564
893.819	20488
893.941	20613
894.064	20636
894.186	20465
894.308	20393
894.43	20560
894.552	20762
894.674	20575
894.796	20324
894.918	20556
895.04	20374
895.161	20476
895.283	20556
895.405	20408
895.526	20541
895.648	20377
895.769	20476
895.891	20469
896.012	20503
896.134	20556
896.255	20412
896.376	20393
896.498	20438
896.619	20503
896.74	20412
896.861	20575
896.982	20876
897.103	20952
897.224	20705
897.345	20735
897.466	20583
897.587	20655
897.708	20697
897.828	20811
897.949	20682
898.07	20526
898.19	20575
898.311	20705
898.431	20492
898.552	20617
898.672	20727
898.792	20792
898.913	20609
899.033	20674
899.153	20366
899.273	20415
899.393	20423
899.513	20495
899.633	20347
899.753	20423
899.873	20313
899.993	20389
900.113	20328
900.232	20492
900.352	20358
900.472	20195
900.591	20256
900.711	20229
900.83	20138
900.95	20400
901.069	20237
901.189	20149
901.308	19868
901.427	19723
901.546	19776
901.665	19708
901.784	19803
901.904	19639
902.023	19525
902.141	19274
902.26	19175
902.379	19373
902.498	19145
902.617	19308
902.735	19209
902.854	19278
902.973	19141
903.091	19034
903.21	18993
903.328	18989
903.446	18890
903.565	18711
903.683	18795
903.801	18658
903.919	18791
904.038	18623
904.156	18528
904.274	18661
904.392	18460
904.51	18311
904.627	18456
904.745	18513
904.863	18528
904.981	18429
905.098	18095
905.216	18216
905.334	18152
905.451	18121
905.569	18110
905.686	18285
905.803	18167
905.921	18011
906.038	18038
906.155	18041
906.272	17847
906.389	17878
906.506	17722
906.623	17779
906.74	17687
906.857	17608
906.974	17562
907.091	17714
907.208	17817
907.324	17775
907.441	17493
907.557	17448
907.674	17528
907.79	17341
907.907	17425
908.023	17406
908.139	17452
908.256	17277
908.372	17368
908.488	17330
908.604	17208
908.72	17140
908.836	17277
908.952	17200
909.068	17189
909.184	17200
909.3	17208
909.415	17265
909.531	17022
909.647	16869
909.762	16881
909.878	16839
909.993	16984
910.108	16812
910.224	16774
910.339	16904
910.454	16755
910.57	16580
910.685	16656
910.8	16900
910.915	16729
911.03	16675
911.145	16462
911.259	16424
911.374	16466
911.489	16314
911.604	16207
911.718	16131
911.833	16219
911.947	16093
912.062	16040
912.176	16071
912.291	16150
912.405	16211
912.519	16333
912.633	16325
912.748	16166
912.862	16177
912.976	15975
913.09	15899
913.204	15991
913.318	15998
913.431	16063
913.545	16124
913.659	15987
913.772	15869
913.886	15934
914	15934
914.113	15854
914.226	15895
914.34	15960
914.453	15679
914.566	15781
914.68	15720
914.793	15648
914.906	15500
915.019	15408
915.132	15393
915.245	15313
915.358	15408
915.47	15416
915.583	15382
915.696	15431
915.809	15500
915.921	15504
916.034	15313
916.146	15260
916.259	15287
916.371	15336
916.483	15378
916.595	15298
916.708	15199
916.82	15214
916.932	15188
917.044	15116
917.156	15211
917.268	14986
917.38	15074
917.491	15055
917.603	15032
917.715	15104
917.826	15119
917.938	14971
918.049	14971
918.161	14937
918.272	15207
918.384	15058
918.495	14990
918.606	14902
918.717	14800
918.828	14830
918.939	14773
919.05	14735
919.161	14788
919.272	14537
919.383	14621
919.494	14724
919.604	14967
919.715	14815
919.826	14648
919.936	14712
920.047	14845
920.157	14689
920.267	14914
920.378	14807
920.488	14701
920.598	14921
920.708	15039
920.818	14853
920.928	14834
921.038	15058
921.148	14982
921.258	14693
921.368	14552
921.477	14415
921.587	14404
921.697	14339
921.806	14427
921.916	14305
922.025	14214
922.134	14107
922.244	14058
922.353	14123
922.462	13951
922.571	13978
922.68	13723
922.789	13814
922.898	13723
923.007	13693
923.116	13689
923.224	13769
923.333	13662
923.442	13700
923.55	13567
923.659	13658
923.767	13628
923.876	13540
923.984	13518
924.092	13434
924.201	13476
924.309	13499
924.417	13392
924.525	13400
924.633	13388
924.741	14324
924.849	13209
924.956	13422
925.064	13225
925.172	13160
925.279	13103
925.387	13122
925.494	13145
925.602	13392
925.709	13198
925.816	13027
925.924	13034
926.031	13183
926.138	13080
926.245	13156
926.352	13000
926.459	13088
926.566	13145
926.673	13000
926.779	12932
926.886	12821
926.993	12753
927.099	12711
927.206	12646
927.312	12669
927.419	12810
927.525	12821
927.631	12696
927.737	12669
927.843	12555
927.95	12528
928.056	12460
928.162	12582
928.267	12570
928.373	13206
928.479	12635
928.585	12471
928.69	12506
928.796	12582
928.901	12346
929.007	12334
929.112	12350
929.218	12361
929.323	12346
929.428	12270
929.533	12391
929.638	12144
929.743	12186
929.848	12129
929.953	12258
930.058	12091
930.163	11984
930.267	11912
930.372	12140
930.477	11885
930.581	12136
930.685	12030
930.79	11828
930.894	11832
930.998	11786
931.103	11973
931.207	11596
931.311	11608
931.415	11440
931.519	11223
931.623	11193
