Data from test_V78500241_2275.txt Node
Date: Fri Mar 25 15:25:41 CST 2022
User: usil
Spectrometer: V785-0024
Trigger mode: 0
Integration Time (sec): 4.000000E-1
Scans to average: 1
Nonlinearity correction enabled: false
Boxcar width: 0
Storing dark spectrum: false
XAxis mode: Wavelengths
Number of Pixels in Spectrum: 1024
>>>>>Begin Spectral Data<<<<<
801.071	27717
801.214	27534
801.356	27496
801.499	27226
801.641	27116
801.783	27195
801.926	27085
802.068	27169
802.211	27146
802.353	27112
802.496	26823
802.638	26750
802.78	26785
802.923	26750
803.065	26640
803.208	26743
803.35	26891
803.492	27039
803.635	26925
803.777	26777
803.919	27055
804.061	27264
804.204	26986
804.346	26887
804.488	26743
804.63	26895
804.773	26727
804.915	26979
805.057	27024
805.199	26921
805.341	27009
805.483	27112
805.626	27055
805.768	27058
805.91	27188
806.052	27074
806.194	27093
806.336	27298
806.478	27127
806.62	27020
806.762	27207
806.904	27279
807.046	27633
807.188	27526
807.33	27564
807.472	27572
807.614	27401
807.756	27481
807.898	27325
808.04	27291
808.182	27393
808.324	27412
808.465	27416
808.607	27580
808.749	27800
808.891	27747
809.033	27899
809.174	27720
809.316	27663
809.458	27595
809.6	27523
809.741	27854
809.883	27869
810.025	27960
810.166	28048
810.308	27968
810.45	27876
810.591	27789
810.733	27770
810.875	27736
811.016	27656
811.158	27648
811.299	27705
811.441	27827
811.582	27755
811.724	27759
811.865	27679
812.007	27644
812.148	27580
812.29	27641
812.431	27846
812.573	28055
812.714	28101
812.855	28192
812.997	28394
813.138	28401
813.279	28322
813.421	28131
813.562	28029
813.703	27979
813.845	27907
813.986	27732
814.127	27583
814.268	27393
814.41	27595
814.551	27283
814.692	27481
814.833	27245
814.974	27332
815.115	27336
815.256	27165
815.397	27298
815.539	27252
815.68	27165
815.821	27085
815.962	27169
816.103	27074
816.244	27047
816.385	26933
816.526	26659
816.666	26689
816.807	26564
816.948	26613
817.089	26777
817.23	26670
817.371	26708
817.512	26720
817.653	26575
817.793	26606
817.934	26537
818.075	26511
818.216	26617
818.356	26526
818.497	26522
818.638	26511
818.778	26313
818.919	26328
819.06	26377
819.2	26587
819.341	26625
819.481	26693
819.622	26674
819.762	26899
819.903	26834
820.043	26948
820.184	26754
820.324	26807
820.465	26788
820.605	26716
820.746	26743
820.886	26632
821.026	26693
821.167	26720
821.307	26834
821.447	26758
821.588	26632
821.728	26427
821.868	26286
822.008	26115
822.149	26180
822.289	26024
822.429	25826
822.569	25685
822.709	25780
822.849	25510
822.99	25647
823.13	25670
823.27	25635
823.41	25453
823.55	25384
823.69	25597
823.83	25556
823.97	25449
824.11	25217
824.25	25190
824.389	25232
824.529	25392
824.669	25240
824.809	25384
824.949	25285
825.089	25312
825.228	25324
825.368	25259
825.508	25015
825.648	25107
825.787	25194
825.927	25266
826.067	25072
826.206	25091
826.346	25107
826.485	25164
826.625	25091
826.765	25171
826.904	25209
827.044	24772
827.183	24867
827.323	24768
827.462	24703
827.601	24905
827.741	24821
827.88	24878
828.02	24730
828.159	24684
828.298	24829
828.437	24859
828.577	24749
828.716	24798
828.855	24749
828.994	24502
829.134	24422
829.273	24494
829.412	24494
829.551	24544
829.69	24483
829.829	24551
829.968	24593
830.107	24551
830.246	24528
830.385	24464
830.524	24410
830.663	24410
830.802	24159
830.941	24003
831.08	24041
831.219	24266
831.357	24171
831.496	24258
831.635	24034
831.774	23950
831.913	24030
832.051	23980
832.19	23786
832.329	24003
832.467	23935
832.606	23733
832.744	23824
832.883	23870
833.022	23710
833.16	23805
833.299	23824
833.437	23790
833.576	23832
833.714	23832
833.852	23939
833.991	23878
834.129	23923
834.267	23790
834.406	23756
834.544	23802
834.682	23939
834.821	23855
834.959	24060
835.097	23623
835.235	23847
835.373	23942
835.511	23798
835.65	23653
835.788	23836
835.926	23570
836.064	23531
836.202	23531
836.34	23707
836.478	23661
836.615	23604
836.753	23707
836.891	23821
837.029	23676
837.167	23596
837.305	23570
837.443	23539
837.58	23520
837.718	23535
837.856	23551
837.993	23311
838.131	23531
838.269	23330
838.406	23486
838.544	23322
838.681	23094
838.819	23258
838.956	23105
839.094	23037
839.231	23113
839.369	23242
839.506	23337
839.643	23231
839.781	22938
839.918	23010
840.055	22984
840.193	22991
840.33	23037
840.467	22919
840.604	22953
840.742	23090
840.879	22839
841.016	22847
841.153	22869
841.29	23029
841.427	22934
841.564	22877
841.701	23022
841.838	22889
841.975	22763
842.112	22755
842.249	22653
842.385	22698
842.522	22957
842.659	22736
842.796	22694
842.933	22702
843.069	22702
843.206	22637
843.343	22881
843.479	22729
843.616	22660
843.752	22596
843.889	22466
844.025	22481
844.162	22462
844.298	22538
844.435	22428
844.571	22489
844.708	22443
844.844	22557
844.98	22512
845.117	22500
845.253	22421
845.389	22276
845.525	22325
845.661	22196
845.798	22105
845.934	22268
846.07	22230
846.206	22185
846.342	22314
846.478	22219
846.614	21994
846.75	21854
846.886	21850
847.022	21991
847.158	21888
847.294	21941
847.429	21838
847.565	21884
847.701	22124
847.837	21743
847.972	21576
848.108	21705
848.244	21755
848.379	21545
848.515	21564
848.65	21473
848.786	21496
848.921	21610
849.057	21625
849.192	21496
849.328	21466
849.463	21561
849.598	21481
849.734	21386
849.869	21317
850.004	21389
850.14	21416
850.275	21291
850.41	21268
850.545	21275
850.68	21287
850.815	21329
850.95	21199
851.085	21340
851.22	21389
851.355	21260
851.49	21207
851.625	21184
851.76	21203
851.895	21093
852.03	21169
852.165	21169
852.299	21287
852.434	21340
852.569	21367
852.703	21370
852.838	21298
852.973	21443
853.107	21481
853.242	21093
853.376	21077
853.511	20857
853.645	21055
853.78	21256
853.914	21161
854.048	21070
854.183	21024
854.317	21119
854.451	21211
854.585	21127
854.72	21211
854.854	21108
854.988	20971
855.122	21043
855.256	20963
855.39	21070
855.524	21108
855.658	21184
855.792	21070
855.926	21085
856.06	21055
856.194	21192
856.327	21051
856.461	21013
856.595	21131
856.729	21123
856.862	21294
856.996	21043
857.13	21127
857.263	21173
857.397	21112
857.53	21131
857.664	21142
857.797	21093
857.931	21260
858.064	21176
858.197	21100
858.331	21020
858.464	20994
858.597	20952
858.731	21096
858.864	21009
858.997	21020
859.13	20979
859.263	20975
859.396	21264
859.529	21036
859.662	21074
859.795	21047
859.928	21112
860.061	21256
860.194	21256
860.327	21062
860.46	21093
860.592	21127
860.725	21370
860.858	21077
860.99	21028
861.123	21051
861.256	21062
861.388	21123
861.521	21888
861.653	20963
861.786	20876
861.918	20990
862.05	20937
862.183	20967
862.315	21116
862.447	21058
862.58	20952
862.712	20785
862.844	20670
862.976	20887
863.108	20887
863.24	21203
863.372	20689
863.504	20785
863.636	20712
863.768	20785
863.9	20804
864.032	20765
864.164	20739
864.296	20853
864.428	20800
864.559	20765
864.691	20880
864.823	20731
864.954	20781
865.086	20826
865.217	20765
865.349	20640
865.48	20689
865.612	20705
865.743	20804
865.875	20743
866.006	20590
866.137	20667
866.269	20712
866.4	20682
866.531	20716
866.662	20731
866.793	20609
866.924	20602
867.055	20659
867.186	20705
867.317	20659
867.448	20404
867.579	20609
867.71	20514
867.841	20488
867.972	20636
868.103	20636
868.233	20697
868.364	20663
868.495	20701
868.625	21009
868.756	20971
868.886	20754
869.017	20834
869.147	21043
869.278	20986
869.408	20906
869.539	20883
869.669	20910
869.799	20937
869.929	21077
870.06	21024
870.19	21112
870.32	21146
870.45	21100
870.58	21089
870.71	21340
870.84	21336
870.97	21203
871.1	21389
871.23	21458
871.36	21378
871.489	21268
871.619	21336
871.749	21416
871.879	21473
872.008	21572
872.138	21526
872.267	21477
872.397	21336
872.526	21313
872.656	21332
872.785	21351
872.915	21473
873.044	21583
873.173	21370
873.303	21443
873.432	21557
873.561	21625
873.69	21488
873.819	21420
873.948	21538
874.077	21606
874.206	21515
874.335	21439
874.464	21545
874.593	21682
874.722	21675
874.851	21816
874.979	21781
875.108	21838
875.237	21736
875.365	21701
875.494	21557
875.623	21789
875.751	21618
875.88	21804
876.008	21766
876.136	21991
876.265	22173
876.393	22128
876.521	22207
876.65	22238
876.778	22006
876.906	22013
877.034	22029
877.162	22067
877.29	22013
877.418	22051
877.546	21998
877.674	22051
877.802	22109
877.93	22055
878.058	21987
878.185	22067
878.313	22017
878.441	22131
878.568	21892
878.696	21850
878.824	22051
878.951	22173
879.079	22211
879.206	22280
879.333	22215
879.461	22131
879.588	22185
879.715	22268
879.842	22303
879.97	22181
880.097	21922
880.224	21846
880.351	21979
880.478	21869
880.605	21865
880.732	21854
880.859	22059
880.986	21865
881.112	21861
881.239	21705
881.366	21679
881.493	21568
881.619	21367
881.746	21481
881.872	21462
881.999	21428
882.125	21450
882.252	21443
882.378	21447
882.505	21534
882.631	21233
882.757	21119
882.883	21230
883.01	21203
883.136	21146
883.262	21047
883.388	21020
883.514	21226
883.64	21161
883.766	21005
883.892	20929
884.018	20952
884.143	21154
884.269	21199
884.395	20963
884.52	20819
884.646	20815
884.772	20750
884.897	20769
885.023	20777
885.148	20724
885.274	20838
885.399	20887
885.524	20834
885.65	20887
885.775	20739
885.9	20758
886.025	20979
886.15	20952
886.275	20819
886.4	20716
886.525	20686
886.65	20735
886.775	20842
886.9	20948
887.025	20982
887.149	20826
887.274	20701
887.399	20594
887.523	20549
887.648	20594
887.773	20446
887.897	20701
888.021	20568
888.146	20583
888.27	20583
888.395	20701
888.519	20720
888.643	20587
888.767	20613
888.891	20438
889.015	20469
889.139	20473
889.263	20484
889.387	20404
889.511	20606
889.635	20461
889.759	20332
889.883	20423
890.006	20438
890.13	20404
890.254	20374
890.377	20275
890.501	20096
890.624	20149
890.748	20214
890.871	20134
890.995	20054
891.118	19932
891.241	19913
891.364	19997
891.488	20054
891.611	19947
891.734	20027
891.857	19993
891.98	19993
892.103	19955
892.226	19970
892.349	19883
892.471	19727
892.594	19978
892.717	19826
892.839	19860
892.962	19852
893.085	20050
893.207	19849
893.33	19776
893.452	19757
893.575	19921
893.697	19746
893.819	19887
893.941	20062
894.064	20005
894.186	19814
894.308	19811
894.43	19993
894.552	19967
894.674	19852
894.796	19860
894.918	19753
895.04	19925
895.161	20016
895.283	19936
895.405	19837
895.526	19902
895.648	19875
895.769	19837
895.891	20005
896.012	20024
896.134	20001
896.255	19814
896.376	19814
896.498	19883
896.619	19947
896.74	19845
896.861	19913
896.982	20130
897.103	20313
897.224	20153
897.345	20027
897.466	19989
897.587	20100
897.708	20240
897.828	20206
897.949	20031
898.07	19967
898.19	20039
898.311	20176
898.431	20172
898.552	19970
898.672	20180
898.792	20206
898.913	20027
899.033	19967
899.153	20005
899.273	19936
899.393	19925
899.513	19875
899.633	19841
899.753	19871
899.873	19849
899.993	20043
900.113	19807
900.232	19772
900.352	19864
900.472	19689
900.591	19575
900.711	19658
900.83	19632
900.95	19655
901.069	19727
901.189	19506
901.308	19304
901.427	19270
901.546	19282
901.665	19198
901.784	19209
901.904	19027
902.023	19031
902.141	18897
902.26	18730
902.379	18886
902.498	18726
902.617	18715
902.735	18738
902.854	18692
902.973	18658
903.091	18471
903.21	18395
903.328	18448
903.446	18300
903.565	18163
903.683	18190
903.801	18060
903.919	18102
904.038	18209
904.156	17996
904.274	18064
904.392	18019
904.51	17946
904.627	17969
904.745	17893
904.863	17984
904.981	17752
905.098	17718
905.216	17623
905.334	17691
905.451	17672
905.569	17661
905.686	17649
905.803	17729
905.921	17436
906.038	17524
906.155	17512
906.272	17292
906.389	17410
906.506	17204
906.623	17181
906.74	17140
906.857	17045
906.974	17083
907.091	17227
907.208	17261
907.324	17246
907.441	17113
907.557	16908
907.674	16949
907.79	16752
907.907	16839
908.023	16900
908.139	16908
908.256	16752
908.372	16835
908.488	16831
908.604	16771
908.72	16683
908.836	16713
908.952	16538
909.068	16637
909.184	16774
909.3	16649
909.415	16634
909.531	16546
909.647	16409
909.762	16329
909.878	16185
909.993	16382
910.108	16436
910.224	16310
910.339	16356
910.454	16238
910.57	16071
910.685	16002
910.8	16287
910.915	16238
911.03	16048
911.145	15937
911.259	16055
911.374	15983
911.489	15934
911.604	15819
911.718	15694
911.833	15705
911.947	15618
912.062	15428
912.176	15587
912.291	15595
912.405	15591
912.519	15671
912.633	15854
912.748	15686
912.862	15641
912.976	15587
913.09	15348
913.204	15416
913.318	15526
913.431	15618
913.545	15587
913.659	15625
913.772	15488
913.886	15355
914	15256
914.113	15435
914.226	15397
914.34	15348
914.453	15180
914.566	15336
914.68	15173
914.793	15195
914.906	14979
915.019	14933
915.132	14838
915.245	14887
915.358	14880
915.47	14842
915.583	14834
915.696	14971
915.809	15077
915.921	15001
916.034	14910
916.146	14785
916.259	14750
916.371	14921
916.483	14880
916.595	14838
916.708	14769
916.82	14785
916.932	14674
917.044	14670
917.156	14746
917.268	14602
917.38	14663
917.491	14533
917.603	14583
917.715	14705
917.826	14773
917.938	14533
918.049	14457
918.161	14560
918.272	14648
918.384	14724
918.495	14587
918.606	14400
918.717	14358
918.828	14355
918.939	14415
919.05	14221
919.161	14339
919.272	14176
919.383	14225
919.494	14374
919.604	14735
919.715	14446
919.826	14259
919.936	14351
920.047	14393
920.157	14358
920.267	14514
920.378	14381
920.488	14362
920.598	14511
920.708	14617
920.818	14476
920.928	14400
921.038	14507
921.148	14552
921.258	14320
921.368	14275
921.477	14172
921.587	14123
921.697	13959
921.806	14020
921.916	13925
922.025	13753
922.134	13734
922.244	13700
922.353	13811
922.462	13601
922.571	13567
922.68	13464
922.789	13400
922.898	13415
923.007	13339
923.116	13415
923.224	13365
923.333	13308
923.442	13282
923.55	13228
923.659	13198
923.767	13282
923.876	13095
923.984	13202
924.092	13088
924.201	13091
924.309	13221
924.417	13110
924.525	13042
924.633	13084
924.741	13712
924.849	12802
924.956	13042
925.064	12848
925.172	12726
925.279	12779
925.387	12840
925.494	12730
925.602	12962
925.709	12867
925.816	12734
925.924	12669
926.031	12829
926.138	12795
926.245	12760
926.352	12623
926.459	12772
926.566	12802
926.673	12696
926.779	12547
926.886	12585
926.993	12346
927.099	12380
927.206	12330
927.312	12361
927.419	12327
927.525	12315
927.631	12357
927.737	12292
927.843	12186
927.95	12087
928.056	12213
928.162	12186
928.267	12270
928.373	12840
928.479	12270
928.585	12034
928.69	12190
928.796	12136
928.901	12110
929.007	11912
929.112	11946
929.218	12022
929.323	11946
929.428	11920
929.533	12022
929.638	11843
929.743	11923
929.848	11824
929.953	11935
930.058	11874
930.163	11554
930.267	11604
930.372	11805
930.477	11615
930.581	11760
930.685	11710
930.79	11421
930.894	11497
930.998	11463
931.103	11668
931.207	11258
931.311	11216
931.415	11098
931.519	10881
931.623	10862
