Data from test_V78500241_157.txt Node
Date: Fri Mar 25 15:10:57 CST 2022
User: usil
Spectrometer: V785-0024
Trigger mode: 0
Integration Time (sec): 4.000000E-1
Scans to average: 1
Nonlinearity correction enabled: false
Boxcar width: 0
Storing dark spectrum: false
XAxis mode: Wavelengths
Number of Pixels in Spectrum: 1024
>>>>>Begin Spectral Data<<<<<
801.071	27914
801.214	28002
801.356	27816
801.499	27800
801.641	27633
801.783	27519
801.926	27511
802.068	27477
802.211	27355
802.353	27511
802.496	27272
802.638	27116
802.78	27127
802.923	27081
803.065	26994
803.208	26990
803.35	27085
803.492	27214
803.635	27207
803.777	27077
803.919	27287
804.061	27557
804.204	27241
804.346	27169
804.488	27036
804.63	27207
804.773	26956
804.915	27252
805.057	27245
805.199	27176
805.341	27310
805.483	27393
805.626	27138
805.768	27161
805.91	27332
806.052	27230
806.194	27150
806.336	27317
806.478	27233
806.62	27344
806.762	27408
806.904	27363
807.046	27736
807.188	27599
807.33	27686
807.472	27713
807.614	27454
807.756	27469
807.898	27393
808.04	27492
808.182	27340
808.324	27481
808.465	27526
808.607	27686
808.749	27759
808.891	28006
809.033	27953
809.174	27842
809.316	27682
809.458	27705
809.6	27846
809.741	27835
809.883	27869
810.025	28150
810.166	28162
810.308	27994
810.45	28006
810.591	27964
810.733	27701
810.875	27797
811.016	27618
811.158	27728
811.299	27804
811.441	27861
811.582	27846
811.724	27663
811.865	27728
812.007	27656
812.148	27599
812.29	27770
812.431	27869
812.573	28207
812.714	28086
812.855	28109
812.997	28367
813.138	28405
813.279	28394
813.421	28257
813.562	28120
813.703	28120
813.845	27873
813.986	27671
814.127	27458
814.268	27477
814.41	27378
814.551	27332
814.692	27431
814.833	27382
814.974	27351
815.115	27351
815.256	27283
815.397	27127
815.539	27119
815.68	27150
815.821	27081
815.962	27203
816.103	27180
816.244	26918
816.385	26834
816.526	26906
816.666	26743
816.807	26613
816.948	26560
817.089	26552
817.23	26678
817.371	26629
817.512	26522
817.653	26488
817.793	26480
817.934	26545
818.075	26606
818.216	26571
818.356	26492
818.497	26442
818.638	26259
818.778	26313
818.919	26332
819.06	26275
819.2	26301
819.341	26377
819.481	26358
819.622	26804
819.762	26773
819.903	26712
820.043	26594
820.184	26495
820.324	26492
820.465	26503
820.605	26667
820.746	26682
820.886	26339
821.026	26560
821.167	26461
821.307	26670
821.447	26499
821.588	26305
821.728	26240
821.868	26122
822.008	25936
822.149	25814
822.289	25772
822.429	25628
822.569	25540
822.709	25540
822.849	25373
822.99	25362
823.13	25350
823.27	25251
823.41	25145
823.55	25133
823.69	25129
823.83	25225
823.97	25126
824.11	24977
824.25	25038
824.389	25004
824.529	25053
824.669	25053
824.809	25027
824.949	25065
825.089	25008
825.228	24992
825.368	24894
825.508	24787
825.648	25004
825.787	24878
825.927	24909
826.067	24707
826.206	24623
826.346	24859
826.485	24741
826.625	24661
826.765	24897
826.904	24844
827.044	24532
827.183	24566
827.323	24467
827.462	24361
827.601	24490
827.741	24555
827.88	24582
828.02	24353
828.159	24334
828.298	24429
828.437	24547
828.577	24399
828.716	24570
828.855	24350
828.994	24148
829.134	24220
829.273	24121
829.412	24060
829.551	24095
829.69	24178
829.829	24194
829.968	24190
830.107	24201
830.246	24213
830.385	24076
830.524	24072
830.663	23927
830.802	23767
830.941	23726
831.08	23642
831.219	23901
831.357	23840
831.496	23958
831.635	23748
831.774	23608
831.913	23604
832.051	23531
832.19	23493
832.329	23547
832.467	23395
832.606	23391
832.744	23330
832.883	23410
833.022	23303
833.16	23334
833.299	23368
833.437	23463
833.576	23463
833.714	23520
833.852	23429
833.991	23505
834.129	23600
834.267	23600
834.406	23395
834.544	23402
834.682	23391
834.821	23383
834.959	23581
835.097	23391
835.235	23360
835.373	23395
835.511	23315
835.65	23288
835.788	23200
835.926	23117
836.064	23064
836.202	23128
836.34	23212
836.478	23311
836.615	23360
836.753	23265
836.891	23341
837.029	23189
837.167	23162
837.305	23151
837.443	23067
837.58	23090
837.718	23090
837.856	23006
837.993	23010
838.131	22927
838.269	22736
838.406	22938
838.544	22809
838.681	22763
838.819	22660
838.956	22493
839.094	22440
839.231	22436
839.369	22626
839.506	22717
839.643	22607
839.781	22432
839.918	22382
840.055	22443
840.193	22447
840.33	22303
840.467	22459
840.604	22512
840.742	22717
840.879	22287
841.016	22291
841.153	22249
841.29	22466
841.427	22394
841.564	22497
841.701	22489
841.838	22382
841.975	22166
842.112	22223
842.249	22219
842.385	22200
842.522	22204
842.659	22166
842.796	22086
842.933	22055
843.069	22211
843.206	22097
843.343	22200
843.479	22036
843.616	22173
843.752	21804
843.889	21949
844.025	22059
844.162	21998
844.298	21972
844.435	21846
844.571	21732
844.708	21964
844.844	22101
844.98	21918
845.117	21956
845.253	21766
845.389	21755
845.525	21762
845.661	21644
845.798	21545
845.934	21637
846.07	21553
846.206	21656
846.342	21637
846.478	21595
846.614	21447
846.75	21283
846.886	21279
847.022	21370
847.158	21397
847.294	21264
847.429	21416
847.565	21233
847.701	21568
847.837	20990
847.972	20967
848.108	21123
848.244	21146
848.379	20971
848.515	20838
848.65	20804
848.786	20823
848.921	20902
849.057	20990
849.192	20952
849.328	20979
849.463	20864
849.598	20788
849.734	20754
849.869	20667
850.004	20625
850.14	20735
850.275	20678
850.41	20621
850.545	20488
850.68	20632
850.815	20758
850.95	20571
851.085	20708
851.22	20701
851.355	20663
851.49	20495
851.625	20552
851.76	20648
851.895	20476
852.03	20503
852.165	20632
852.299	20560
852.434	20651
852.569	20727
852.703	20659
852.838	20655
852.973	20769
853.107	20826
853.242	20613
853.376	20499
853.511	20336
853.645	20423
853.78	20621
853.914	20465
854.048	20499
854.183	20408
854.317	20374
854.451	20648
854.585	20385
854.72	20454
854.854	20480
854.988	20343
855.122	20454
855.256	20286
855.39	20385
855.524	20541
855.658	20480
855.792	20537
855.926	20454
856.06	20469
856.194	20625
856.327	20438
856.461	20362
856.595	20324
856.729	20347
856.862	20526
856.996	20484
857.13	20587
857.263	20541
857.397	20560
857.53	20419
857.664	20560
857.797	20499
857.931	20530
858.064	20469
858.197	20541
858.331	20465
858.464	20332
858.597	20252
858.731	20278
858.864	20393
858.997	20355
859.13	20446
859.263	20339
859.396	20537
859.529	20282
859.662	20343
859.795	20320
859.928	20408
860.061	20552
860.194	20621
860.327	20427
860.46	20278
860.592	20537
860.725	20533
860.858	20541
860.99	20408
861.123	20298
861.256	20267
861.388	20385
861.521	20975
861.653	20259
861.786	20233
861.918	20294
862.05	20324
862.183	20446
862.315	20400
862.447	20495
862.58	20358
862.712	20191
862.844	20081
862.976	20233
863.108	20122
863.24	20495
863.372	19989
863.504	20119
863.636	20142
863.768	20202
863.9	20050
864.032	19997
864.164	19970
864.296	20164
864.428	20191
864.559	20161
864.691	20229
864.823	20126
864.954	20176
865.086	20107
865.217	19902
865.349	19875
865.48	19978
865.612	20077
865.743	20107
865.875	19997
866.006	20001
866.137	20050
866.269	19898
866.4	20130
866.531	19898
866.662	19898
866.793	19928
866.924	20016
867.055	19955
867.186	19887
867.317	19917
867.448	19803
867.579	19967
867.71	19795
867.841	19811
867.972	19860
868.103	19909
868.233	20016
868.364	19928
868.495	20058
868.625	20206
868.756	20332
868.886	20195
869.017	20237
869.147	20305
869.278	20252
869.408	20218
869.539	20218
869.669	20221
869.799	20271
869.929	20259
870.06	20309
870.19	20511
870.32	20518
870.45	20423
870.58	20514
870.71	20762
870.84	20693
870.97	20564
871.1	20518
871.23	20769
871.36	20701
871.489	20663
871.619	20659
871.749	20754
871.879	20777
872.008	20872
872.138	20887
872.267	20781
872.397	20609
872.526	20609
872.656	20617
872.785	20640
872.915	20758
873.044	20849
873.173	20826
873.303	20758
873.432	20952
873.561	20842
873.69	20918
873.819	20731
873.948	20872
874.077	20872
874.206	20545
874.335	20788
874.464	20929
874.593	20979
874.722	21009
874.851	21096
874.979	21131
875.108	21119
875.237	20963
875.365	21043
875.494	21066
875.623	21096
875.751	20963
875.88	21055
876.008	21176
876.136	21211
876.265	21412
876.393	21576
876.521	21580
876.65	21580
876.778	21447
876.906	21370
877.034	21450
877.162	21351
877.29	21359
877.418	21386
877.546	21496
877.674	21542
877.802	21348
877.93	21408
878.058	21507
878.185	21283
878.313	21473
878.441	21363
878.568	21157
878.696	21378
878.824	21272
878.951	21397
879.079	21644
879.206	21800
879.333	21580
879.461	21542
879.588	21439
879.715	21580
879.842	21675
879.97	21435
880.097	21252
880.224	21252
880.351	21275
880.478	21241
880.605	21161
880.732	21127
880.859	21492
880.986	21199
881.112	21192
881.239	21146
881.366	21093
881.493	20887
881.619	20701
881.746	20899
881.872	20705
881.999	20769
882.125	20743
882.252	20781
882.378	20830
882.505	20910
882.631	20644
882.757	20552
882.883	20674
883.01	20476
883.136	20568
883.262	20415
883.388	20400
883.514	20549
883.64	20473
883.766	20526
883.892	20450
884.018	20317
884.143	20587
884.269	20545
884.395	20256
884.52	20240
884.646	20134
884.772	20096
884.897	20058
885.023	20240
885.148	20286
885.274	20400
885.399	20396
885.524	20225
885.65	20096
885.775	20286
885.9	20164
886.025	20320
886.15	20305
886.275	20046
886.4	20035
886.525	20005
886.65	20020
886.775	20073
886.9	20233
887.025	20415
887.149	20115
887.274	20119
887.399	20001
887.523	19951
887.648	19883
887.773	19909
887.897	19917
888.021	19944
888.146	19909
888.27	19993
888.395	20065
888.519	19925
888.643	20005
888.767	19993
888.891	19833
889.015	19693
889.139	19852
889.263	19674
889.387	19875
889.511	19845
889.635	19909
889.759	19521
889.883	19651
890.006	19784
890.13	19860
890.254	19712
890.377	19594
890.501	19491
890.624	19377
890.748	19525
890.871	19384
890.995	19263
891.118	19266
891.241	19266
891.364	19221
891.488	19438
891.611	19308
891.734	19407
891.857	19403
891.98	19350
892.103	19381
892.226	19263
892.349	19304
892.471	19148
892.594	19228
892.717	19232
892.839	19236
892.962	19369
893.085	19324
893.207	19247
893.33	19084
893.452	19282
893.575	19206
893.697	19225
893.819	19373
893.941	19453
894.064	19491
894.186	19198
894.308	19152
894.43	19213
894.552	19373
894.674	19304
894.796	19095
894.918	19263
895.04	19187
895.161	19194
895.283	19274
895.405	19145
895.526	19343
895.648	19232
895.769	19282
895.891	19278
896.012	19377
896.134	19350
896.255	19316
896.376	19289
896.498	19289
896.619	19327
896.74	19270
896.861	19430
896.982	19609
897.103	19727
897.224	19563
897.345	19605
897.466	19480
897.587	19563
897.708	19643
897.828	19487
897.949	19468
898.07	19240
898.19	19548
898.311	19518
898.431	19506
898.552	19495
898.672	19575
898.792	19563
898.913	19460
899.033	19358
899.153	19221
899.273	19183
899.393	19240
899.513	19236
899.633	19335
899.753	19240
899.873	19209
899.993	19225
900.113	19251
900.232	19285
900.352	19133
900.472	19152
900.591	18958
900.711	18939
900.83	19019
900.95	19160
901.069	19156
901.189	18996
901.308	18677
901.427	18673
901.546	18570
901.665	18616
901.784	18650
901.904	18540
902.023	18372
902.141	18136
902.26	18201
902.379	18171
902.498	18106
902.617	18060
902.735	18167
902.854	18019
902.973	18087
903.091	17840
903.21	17627
903.328	17718
903.446	17649
903.565	17505
903.683	17710
903.801	17543
903.919	17554
904.038	17516
904.156	17478
904.274	17474
904.392	17372
904.51	17292
904.627	17356
904.745	17299
904.863	17395
904.981	17098
905.098	16972
905.216	17041
905.334	17143
905.451	17045
905.569	17056
905.686	17006
905.803	17014
905.921	16877
906.038	16892
906.155	16896
906.272	16717
906.389	16812
906.506	16675
906.623	16577
906.74	16516
906.857	16466
906.974	16481
907.091	16706
907.208	16729
907.324	16577
907.441	16478
907.557	16356
907.674	16234
907.79	16204
907.907	16284
908.023	16192
908.139	16230
908.256	16177
908.372	16173
908.488	16287
908.604	16124
908.72	16010
908.836	16013
908.952	15945
909.068	16006
909.184	16059
909.3	16006
909.415	16086
909.531	15964
909.647	15789
909.762	15599
909.878	15679
909.993	15793
910.108	15682
910.224	15572
910.339	15641
910.454	15599
910.57	15504
910.685	15428
910.8	15656
910.915	15637
911.03	15542
911.145	15344
911.259	15256
911.374	15348
911.489	15249
911.604	15203
911.718	15066
911.833	15077
911.947	14979
912.062	14826
912.176	15024
912.291	15013
912.405	15085
912.519	15142
912.633	15169
912.748	15009
912.862	14990
912.976	14910
913.09	14727
913.204	14800
913.318	14925
913.431	14872
913.545	14895
913.659	15108
913.772	14746
913.886	14693
914	14640
914.113	14891
914.226	14823
914.34	14785
914.453	14579
914.566	14712
914.68	14469
914.793	14488
914.906	14461
915.019	14286
915.132	14282
915.245	14290
915.358	14328
915.47	14309
915.583	14309
915.696	14328
915.809	14461
915.921	14431
916.034	14244
916.146	14210
916.259	14123
916.371	14267
916.483	14225
916.595	14191
916.708	14115
916.82	14077
916.932	14092
917.044	14077
917.156	14058
917.268	14039
917.38	14054
917.491	13928
917.603	14001
917.715	14062
917.826	14100
917.938	13940
918.049	13826
918.161	13974
918.272	14062
918.384	14024
918.495	13906
918.606	13791
918.717	13586
918.828	13841
918.939	13746
919.05	13708
919.161	13677
919.272	13487
919.383	13605
919.494	13830
919.604	14016
919.715	13795
919.826	13658
919.936	13685
920.047	13791
920.157	13700
920.267	13830
920.378	13811
920.488	13696
920.598	13898
920.708	13982
920.818	13852
920.928	13936
921.038	14020
921.148	13883
921.258	13708
921.368	13563
921.477	13476
921.587	13487
921.697	13312
921.806	13445
921.916	13297
922.025	13198
922.134	13149
922.244	13175
922.353	13095
922.462	12973
922.571	12932
922.68	12848
922.789	12772
922.898	12772
923.007	12665
923.116	12802
923.224	12779
923.333	12707
923.442	12620
923.55	12582
923.659	12620
923.767	12700
923.876	12566
923.984	12608
924.092	12509
924.201	12547
924.309	12517
924.417	12471
924.525	12460
924.633	12506
924.741	13244
924.849	12270
924.956	12346
925.064	12197
925.172	12155
925.279	12136
925.387	12213
925.494	12220
925.602	12350
925.709	12300
925.816	12114
925.924	12114
926.031	12315
926.138	12209
926.245	12239
926.352	12152
926.459	12311
926.566	12190
926.673	12098
926.779	11980
926.886	12015
926.993	11798
927.099	11798
927.206	11741
927.312	11821
927.419	11790
927.525	11798
927.631	11889
927.737	11691
927.843	11623
927.95	11589
928.056	11642
928.162	11688
928.267	11748
928.373	12133
928.479	11718
928.585	11505
928.69	11592
928.796	11676
928.901	11592
929.007	11395
929.112	11482
929.218	11463
929.323	11387
929.428	11379
929.533	11520
929.638	11353
929.743	11372
929.848	11452
929.953	11337
930.058	11216
930.163	11041
930.267	11045
930.372	11231
930.477	11029
930.581	11330
930.685	11132
930.79	10972
930.894	10938
930.998	10984
931.103	11064
931.207	10782
931.311	10588
931.415	10504
931.519	10299
931.623	10405
