Data from test_V78500241_2944.txt Node
Date: Fri Mar 25 15:30:21 CST 2022
User: usil
Spectrometer: V785-0024
Trigger mode: 0
Integration Time (sec): 4.000000E-1
Scans to average: 1
Nonlinearity correction enabled: false
Boxcar width: 0
Storing dark spectrum: false
XAxis mode: Wavelengths
Number of Pixels in Spectrum: 1024
>>>>>Begin Spectral Data<<<<<
801.071	27032
801.214	27093
801.356	26777
801.499	26792
801.641	26579
801.783	26541
801.926	26594
802.068	26526
802.211	26495
802.353	26476
802.496	26362
802.638	26195
802.78	26248
802.923	26267
803.065	26077
803.208	26157
803.35	26199
803.492	26290
803.635	26358
803.777	26256
803.919	26355
804.061	26587
804.204	26385
804.346	26423
804.488	26191
804.63	26347
804.773	26366
804.915	26434
805.057	26488
805.199	26275
805.341	26400
805.483	26526
805.626	26450
805.768	26419
805.91	26480
806.052	26541
806.194	26434
806.336	26522
806.478	26415
806.62	26358
806.762	26442
806.904	26587
807.046	26925
807.188	26902
807.33	26963
807.472	26864
807.614	26845
807.756	26834
807.898	26765
808.04	26609
808.182	26781
808.324	26746
808.465	26807
808.607	26880
808.749	27138
808.891	27116
809.033	27119
809.174	27241
809.316	27051
809.458	27077
809.6	27036
809.741	27180
809.883	27112
810.025	27420
810.166	27348
810.308	27355
810.45	27370
810.591	27222
810.733	27131
810.875	27043
811.016	26914
811.158	27047
811.299	27104
811.441	27165
811.582	27180
811.724	27047
811.865	27100
812.007	27039
812.148	27104
812.29	27116
812.431	27268
812.573	27355
812.714	27488
812.855	27656
812.997	27660
813.138	27789
813.279	27576
813.421	27587
813.562	27412
813.703	27211
813.845	27199
813.986	26921
814.127	26830
814.268	26754
814.41	26705
814.551	26644
814.692	26765
814.833	26731
814.974	26765
815.115	26785
815.256	26648
815.397	26564
815.539	26530
815.68	26423
815.821	26332
815.962	26480
816.103	26324
816.244	26347
816.385	26248
816.526	26221
816.666	25993
816.807	25940
816.948	26005
817.089	26122
817.23	25986
817.371	26031
817.512	25871
817.653	25936
817.793	25871
817.934	26012
818.075	26130
818.216	26016
818.356	25845
818.497	25719
818.638	25670
818.778	25772
818.919	25556
819.06	25696
819.2	25811
819.341	25833
819.481	25841
819.622	26077
819.762	26271
819.903	26202
820.043	26039
820.184	26039
820.324	26202
820.465	26149
820.605	26039
820.746	26031
820.886	25921
821.026	26096
821.167	26035
821.307	26024
821.447	26031
821.588	25906
821.728	25693
821.868	25597
822.008	25479
822.149	25354
822.289	25434
822.429	25259
822.569	25012
822.709	25141
822.849	24932
822.99	24924
823.13	24875
823.27	24882
823.41	24730
823.55	24635
823.69	24738
823.83	24700
823.97	24620
824.11	24570
824.25	24521
824.389	24540
824.529	24505
824.669	24570
824.809	24627
824.949	24616
825.089	24757
825.228	24547
825.368	24338
825.508	24388
825.648	24395
825.787	24391
825.927	24429
826.067	24369
826.206	24437
826.346	24464
826.485	24502
826.625	24433
826.765	24479
826.904	24418
827.044	24315
827.183	23992
827.323	24022
827.462	24125
827.601	24129
827.741	24144
827.88	24087
828.02	23996
828.159	23988
828.298	24140
828.437	24072
828.577	24041
828.716	24182
828.855	24114
828.994	23733
829.134	23847
829.273	23859
829.412	23695
829.551	23657
829.69	23737
829.829	23874
829.968	23927
830.107	23817
830.246	23821
830.385	23745
830.524	23600
830.663	23649
830.802	23478
830.941	23379
831.08	23395
831.219	23509
831.357	23505
831.496	23710
831.635	23395
831.774	23250
831.913	23360
832.051	23143
832.19	23124
832.329	23159
832.467	23022
832.606	22949
832.744	22915
832.883	23094
833.022	23155
833.16	23067
833.299	23006
833.437	23018
833.576	23029
833.714	23109
833.852	23269
833.991	23265
834.129	23151
834.267	23223
834.406	23098
834.544	23159
834.682	23140
834.821	23052
834.959	23185
835.097	23033
835.235	23132
835.373	23174
835.511	23056
835.65	23006
835.788	23052
835.926	22854
836.064	22839
836.202	22892
836.34	22949
836.478	22953
836.615	22900
836.753	22965
836.891	22949
837.029	22934
837.167	22736
837.305	22854
837.443	22839
837.58	22820
837.718	22915
837.856	22885
837.993	22763
838.131	22908
838.269	22649
838.406	22687
838.544	22660
838.681	22538
838.819	22447
838.956	22417
839.094	22314
839.231	22310
839.369	22474
839.506	22580
839.643	22584
839.781	22291
839.918	22310
840.055	22341
840.193	22230
840.33	22070
840.467	22337
840.604	22382
840.742	22478
840.879	22090
841.016	22067
841.153	22207
841.29	22303
841.427	22131
841.564	22261
841.701	22200
841.838	22173
841.975	22093
842.112	22074
842.249	22029
842.385	21991
842.522	22287
842.659	21964
842.796	21941
842.933	22044
843.069	21907
843.206	22013
843.343	21979
843.479	21884
843.616	21937
843.752	21804
843.889	21690
844.025	21865
844.162	21637
844.298	21823
844.435	21793
844.571	21656
844.708	21819
844.844	21918
844.98	21873
845.117	21812
845.253	21572
845.389	21652
845.525	21591
845.661	21622
845.798	21496
845.934	21580
846.07	21526
846.206	21504
846.342	21443
846.478	21629
846.614	21260
846.75	21173
846.886	21256
847.022	21150
847.158	21214
847.294	21260
847.429	21287
847.565	21104
847.701	21504
847.837	20895
847.972	20944
848.108	21028
848.244	21077
848.379	20925
848.515	20796
848.65	20792
848.786	20857
848.921	20895
849.057	20864
849.192	20960
849.328	20788
849.463	20823
849.598	20746
849.734	20663
849.869	20609
850.004	20583
850.14	20773
850.275	20526
850.41	20549
850.545	20571
850.68	20526
850.815	20632
850.95	20446
851.085	20826
851.22	20708
851.355	20644
851.49	20533
851.625	20522
851.76	20579
851.895	20511
852.03	20530
852.165	20648
852.299	20571
852.434	20602
852.569	20560
852.703	20594
852.838	20484
852.973	20575
853.107	20651
853.242	20476
853.376	20404
853.511	20412
853.645	20278
853.78	20632
853.914	20488
854.048	20431
854.183	20423
854.317	20480
854.451	20541
854.585	20370
854.72	20419
854.854	20469
854.988	20275
855.122	20313
855.256	20370
855.39	20317
855.524	20381
855.658	20457
855.792	20434
855.926	20533
856.06	20473
856.194	20507
856.327	20294
856.461	20309
856.595	20370
856.729	20473
856.862	20377
856.996	20389
857.13	20488
857.263	20545
857.397	20606
857.53	20377
857.664	20313
857.797	20457
857.931	20469
858.064	20434
858.197	20454
858.331	20324
858.464	20423
858.597	20301
858.731	20362
858.864	20290
858.997	20305
859.13	20571
859.263	20518
859.396	20415
859.529	20332
859.662	20374
859.795	20389
859.928	20495
860.061	20541
860.194	20621
860.327	20370
860.46	20377
860.592	20473
860.725	20499
860.858	20503
860.99	20492
861.123	20244
861.256	20385
861.388	20355
861.521	20910
861.653	20343
861.786	20122
861.918	20206
862.05	20282
862.183	20351
862.315	20290
862.447	20438
862.58	20336
862.712	20122
862.844	20065
862.976	20202
863.108	20164
863.24	20609
863.372	20176
863.504	20145
863.636	20145
863.768	20092
863.9	20100
864.032	20043
864.164	20027
864.296	20168
864.428	20180
864.559	20191
864.691	20263
864.823	20062
864.954	20248
865.086	20176
865.217	20088
865.349	19860
865.48	20016
865.612	20149
865.743	20176
865.875	20077
866.006	19913
866.137	19955
866.269	20050
866.4	19974
866.531	20027
866.662	19906
866.793	20046
866.924	19879
867.055	19974
867.186	19982
867.317	19917
867.448	19890
867.579	19868
867.71	20005
867.841	19951
867.972	19921
868.103	19963
868.233	20020
868.364	20020
868.495	20176
868.625	20221
868.756	20377
868.886	20050
869.017	20183
869.147	20176
869.278	20298
869.408	20202
869.539	20134
869.669	20301
869.799	20294
869.929	20355
870.06	20370
870.19	20503
870.32	20507
870.45	20617
870.58	20609
870.71	20697
870.84	20689
870.97	20556
871.1	20697
871.23	20823
871.36	20804
871.489	20686
871.619	20876
871.749	20765
871.879	20864
872.008	20937
872.138	20876
872.267	20743
872.397	20602
872.526	20659
872.656	20552
872.785	20663
872.915	20727
873.044	20853
873.173	20788
873.303	20800
873.432	20941
873.561	20918
873.69	20895
873.819	20849
873.948	20902
874.077	20830
874.206	20731
874.335	20758
874.464	20967
874.593	21066
874.722	20891
874.851	21051
874.979	21230
875.108	21176
875.237	21017
875.365	20967
875.494	20994
875.623	21192
875.751	20914
875.88	21127
876.008	21249
876.136	21367
876.265	21534
876.393	21618
876.521	21614
876.65	21606
876.778	21374
876.906	21477
877.034	21374
877.162	21492
877.29	21435
877.418	21359
877.546	21462
877.674	21397
877.802	21389
877.93	21393
878.058	21374
878.185	21389
878.313	21321
878.441	21332
878.568	21287
878.696	21272
878.824	21340
878.951	21511
879.079	21682
879.206	21755
879.333	21610
879.461	21538
879.588	21466
879.715	21622
879.842	21720
879.97	21504
880.097	21268
880.224	21420
880.351	21207
880.478	21325
880.605	21218
880.732	21393
880.859	21534
880.986	21233
881.112	21348
881.239	21195
881.366	21005
881.493	20849
881.619	20788
881.746	20918
881.872	20906
881.999	20788
882.125	20705
882.252	20834
882.378	20842
882.505	21028
882.631	20834
882.757	20583
882.883	20682
883.01	20530
883.136	20556
883.262	20503
883.388	20343
883.514	20545
883.64	20678
883.766	20488
883.892	20381
884.018	20480
884.143	20480
884.269	20632
884.395	20355
884.52	20259
884.646	20278
884.772	20214
884.897	20145
885.023	20301
885.148	20339
885.274	20442
885.399	20313
885.524	20210
885.65	20183
885.775	20290
885.9	20237
886.025	20275
886.15	20290
886.275	20153
886.4	20115
886.525	20191
886.65	20092
886.775	20145
886.9	20339
887.025	20446
887.149	20263
887.274	19993
887.399	20092
887.523	20084
887.648	19909
887.773	19921
887.897	20096
888.021	20054
888.146	19978
888.27	20084
888.395	20008
888.519	20065
888.643	20020
888.767	20069
888.891	19947
889.015	19871
889.139	19959
889.263	19811
889.387	19932
889.511	19921
889.635	19951
889.759	19715
889.883	19769
890.006	19879
890.13	19890
890.254	19719
890.377	19696
890.501	19521
890.624	19624
890.748	19624
890.871	19582
890.995	19324
891.118	19270
891.241	19430
891.364	19525
891.488	19613
891.611	19373
891.734	19388
891.857	19384
891.98	19510
892.103	19403
892.226	19358
892.349	19320
892.471	19194
892.594	19304
892.717	19331
892.839	19278
892.962	19327
893.085	19369
893.207	19324
893.33	19133
893.452	19324
893.575	19304
893.697	19228
893.819	19468
893.941	19529
894.064	19468
894.186	19301
894.308	19240
894.43	19365
894.552	19533
894.674	19445
894.796	19198
894.918	19396
895.04	19301
895.161	19419
895.283	19434
895.405	19213
895.526	19335
895.648	19403
895.769	19358
895.891	19316
896.012	19396
896.134	19400
896.255	19221
896.376	19240
896.498	19316
896.619	19285
896.74	19236
896.861	19388
896.982	19624
897.103	19811
897.224	19483
897.345	19575
897.466	19445
897.587	19567
897.708	19632
897.828	19658
897.949	19540
898.07	19480
898.19	19358
898.311	19677
898.431	19552
898.552	19495
898.672	19586
898.792	19712
898.913	19613
899.033	19487
899.153	19400
899.273	19335
899.393	19350
899.513	19373
899.633	19384
899.753	19388
899.873	19202
899.993	19331
900.113	19293
900.232	19221
900.352	19274
900.472	19160
900.591	19004
900.711	19004
900.83	19114
900.95	19190
901.069	19255
901.189	19023
901.308	18798
901.427	18703
901.546	18802
901.665	18669
901.784	18817
901.904	18795
902.023	18509
902.141	18407
902.26	18300
902.379	18369
902.498	18258
902.617	18216
902.735	18315
902.854	18273
902.973	18201
903.091	17885
903.21	17863
903.328	17878
903.446	17832
903.565	17805
903.683	17779
903.801	17532
903.919	17687
904.038	17687
904.156	17444
904.274	17539
904.392	17478
904.51	17505
904.627	17471
904.745	17493
904.863	17417
904.981	17216
905.098	17178
905.216	17162
905.334	17269
905.451	17200
905.569	17174
905.686	17269
905.803	17159
905.921	17003
906.038	17102
906.155	16957
906.272	16740
906.389	16881
906.506	16687
906.623	16596
906.74	16656
906.857	16531
906.974	16634
907.091	16752
907.208	16915
907.324	16675
907.441	16615
907.557	16451
907.674	16535
907.79	16436
907.907	16455
908.023	16459
908.139	16394
908.256	16516
908.372	16432
908.488	16291
908.604	16246
908.72	16135
908.836	16166
908.952	16135
909.068	16215
909.184	16173
909.3	16128
909.415	16169
909.531	16128
909.647	16006
909.762	15934
909.878	15911
909.993	15816
910.108	15865
910.224	15766
910.339	15797
910.454	15682
910.57	15641
910.685	15599
910.8	15907
910.915	15953
911.03	15698
911.145	15568
911.259	15458
911.374	15462
911.489	15405
911.604	15412
911.718	15260
911.833	15188
911.947	15233
912.062	15085
912.176	15321
912.291	15237
912.405	15203
912.519	15431
912.633	15443
912.748	15237
912.862	15188
912.976	15123
913.09	14933
913.204	15058
913.318	15028
913.431	15055
913.545	15154
913.659	15218
913.772	14952
913.886	14880
914	14864
914.113	14967
914.226	14990
914.34	15032
914.453	14735
914.566	14864
914.68	14754
914.793	14632
914.906	14537
915.019	14499
915.132	14412
915.245	14431
915.358	14621
915.47	14495
915.583	14480
915.696	14526
915.809	14629
915.921	14651
916.034	14423
916.146	14351
916.259	14370
916.371	14431
916.483	14518
916.595	14351
916.708	14233
916.82	14370
916.932	14377
917.044	14275
917.156	14332
917.268	14172
917.38	14195
917.491	14172
917.603	14172
917.715	14301
917.826	14229
917.938	14134
918.049	14031
918.161	14180
918.272	14172
918.384	14191
918.495	14077
918.606	14001
918.717	13871
918.828	14031
918.939	14016
919.05	13860
919.161	13879
919.272	13753
919.383	13772
919.494	13970
919.604	14130
919.715	13974
919.826	13830
919.936	13936
920.047	13955
920.157	13928
920.267	14123
920.378	13921
920.488	13898
920.598	14081
920.708	14145
920.818	14119
920.928	13970
921.038	14195
921.148	14142
921.258	13833
921.368	13871
921.477	13693
921.587	13681
921.697	13567
921.806	13696
921.916	13460
922.025	13419
922.134	13324
922.244	13247
922.353	13327
922.462	13118
922.571	13213
922.68	13012
922.789	12913
922.898	12993
923.007	12920
923.116	13012
923.224	12886
923.333	12867
923.442	12802
923.55	12779
923.659	12844
923.767	12856
923.876	12795
923.984	12821
924.092	12700
924.201	12741
924.309	12753
924.417	12734
924.525	12608
924.633	12711
924.741	13438
924.849	12391
924.956	12658
925.064	12547
925.172	12426
925.279	12380
925.387	12407
925.494	12403
925.602	12593
925.709	12346
925.816	12270
925.924	12433
926.031	12467
926.138	12418
926.245	12498
926.352	12296
926.459	12460
926.566	12410
926.673	12266
926.779	12159
926.886	12121
926.993	11950
927.099	12015
927.206	11946
927.312	12011
927.419	12045
927.525	11946
927.631	11969
927.737	11889
927.843	11855
927.95	11767
928.056	11824
928.162	11851
928.267	11779
928.373	12410
928.479	11882
928.585	11668
928.69	11726
928.796	11828
928.901	11745
929.007	11592
929.112	11653
929.218	11661
929.323	11570
929.428	11570
929.533	11680
929.638	11554
929.743	11516
929.848	11501
929.953	11535
930.058	11433
930.163	11235
930.267	11235
930.372	11501
930.477	11242
930.581	11497
930.685	11349
930.79	11273
930.894	11235
930.998	11284
931.103	11296
931.207	10938
931.311	10896
931.415	10759
931.519	10618
931.623	10538
