Data from test_V78500241_1810.txt Node
Date: Fri Mar 25 15:22:27 CST 2022
User: usil
Spectrometer: V785-0024
Trigger mode: 0
Integration Time (sec): 4.000000E-1
Scans to average: 1
Nonlinearity correction enabled: false
Boxcar width: 0
Storing dark spectrum: false
XAxis mode: Wavelengths
Number of Pixels in Spectrum: 1024
>>>>>Begin Spectral Data<<<<<
801.071	27861
801.214	27789
801.356	27568
801.499	27427
801.641	27420
801.783	27500
801.926	27397
802.068	27313
802.211	27291
802.353	27275
802.496	27112
802.638	27093
802.78	27039
802.923	26986
803.065	26929
803.208	26967
803.35	27024
803.492	27173
803.635	27272
803.777	27055
803.919	27199
804.061	27633
804.204	27252
804.346	27291
804.488	27298
804.63	27355
804.773	27184
804.915	27230
805.057	27378
805.199	27226
805.341	27359
805.483	27473
805.626	27389
805.768	27176
805.91	27348
806.052	27332
806.194	27283
806.336	27705
806.478	27496
806.62	27302
806.762	27466
806.904	27732
807.046	27785
807.188	27759
807.33	27827
807.472	27956
807.614	27701
807.756	27808
807.898	27736
808.04	27610
808.182	27526
808.324	27732
808.465	27713
808.607	27880
808.749	28082
808.891	28188
809.033	28147
809.174	27987
809.316	28017
809.458	27953
809.6	28029
809.741	28101
809.883	28109
810.025	28238
810.166	28257
810.308	28230
810.45	28162
810.591	28063
810.733	28135
810.875	27934
811.016	27884
811.158	27819
811.299	27914
811.441	28086
811.582	28070
811.724	27884
811.865	27907
812.007	28032
812.148	27960
812.29	28124
812.431	28291
812.573	28242
812.714	28485
812.855	28611
812.997	28580
813.138	28767
813.279	28519
813.421	28508
813.562	28592
813.703	28272
813.845	28101
813.986	28006
814.127	27934
814.268	27789
814.41	27743
814.551	27751
814.692	27755
814.833	27800
814.974	27682
815.115	27652
815.256	27599
815.397	27576
815.539	27564
815.68	27488
815.821	27378
815.962	27488
816.103	27526
816.244	27359
816.385	27207
816.526	27211
816.666	27058
816.807	26876
816.948	27001
817.089	27085
817.23	26944
817.371	27074
817.512	26944
817.653	26864
817.793	26857
817.934	26834
818.075	26937
818.216	26914
818.356	26845
818.497	26910
818.638	26644
818.778	26785
818.919	26853
819.06	26883
819.2	26754
819.341	26998
819.481	27047
819.622	27207
819.762	27283
819.903	27386
820.043	27264
820.184	27157
820.324	27108
820.465	27104
820.605	27051
820.746	27184
820.886	26994
821.026	27051
821.167	27017
821.307	27192
821.447	26952
821.588	26902
821.728	26686
821.868	26606
822.008	26305
822.149	26514
822.289	26305
822.429	26214
822.569	26221
822.709	26130
822.849	26115
822.99	26107
823.13	25898
823.27	25963
823.41	25746
823.55	25723
823.69	25845
823.83	25788
823.97	25731
824.11	25613
824.25	25597
824.389	25620
824.529	25731
824.669	25468
824.809	25643
824.949	25719
825.089	25734
825.228	25662
825.368	25537
825.508	25422
825.648	25472
825.787	25655
825.927	25632
826.067	25510
826.206	25514
826.346	25483
826.485	25476
826.625	25556
826.765	25449
826.904	25575
827.044	25225
827.183	25274
827.323	25221
827.462	25320
827.601	25141
827.741	25213
827.88	25198
828.02	25076
828.159	25141
828.298	25308
828.437	25209
828.577	25091
828.716	25164
828.855	24954
828.994	24837
829.134	24848
829.273	24935
829.412	24966
829.551	24890
829.69	24958
829.829	24814
829.968	25091
830.107	24954
830.246	24776
830.385	24939
830.524	24932
830.663	24726
830.802	24665
830.941	24502
831.08	24570
831.219	24677
831.357	24578
831.496	24757
831.635	24494
831.774	24521
831.913	24456
832.051	24330
832.19	24258
832.329	24266
832.467	24239
832.606	24190
832.744	24209
832.883	24220
833.022	24190
833.16	24285
833.299	24209
833.437	24220
833.576	24277
833.714	24338
833.852	24353
833.991	24327
834.129	24372
834.267	24361
834.406	24163
834.544	24190
834.682	24346
834.821	24350
834.959	24403
835.097	24201
835.235	24311
835.373	24270
835.511	24285
835.65	24152
835.788	24064
835.926	24110
836.064	23980
836.202	23920
836.34	24087
836.478	24277
836.615	24190
836.753	24110
836.891	24182
837.029	24209
837.167	24068
837.305	24106
837.443	23836
837.58	24159
837.718	23920
837.856	23980
837.993	23866
838.131	24003
838.269	23824
838.406	23996
838.544	23745
838.681	23600
838.819	23581
838.956	23535
839.094	23558
839.231	23608
839.369	23638
839.506	23809
839.643	23760
839.781	23425
839.918	23341
840.055	23372
840.193	23539
840.33	23372
840.467	23467
840.604	23280
840.742	23512
840.879	23280
841.016	23277
841.153	23284
841.29	23429
841.427	23307
841.564	23387
841.701	23326
841.838	23414
841.975	23231
842.112	23181
842.249	23200
842.385	23124
842.522	23311
842.659	23181
842.796	23079
842.933	23102
843.069	23227
843.206	23048
843.343	23315
843.479	23303
843.616	23086
843.752	22984
843.889	22900
844.025	22919
844.162	22934
844.298	22976
844.435	22816
844.571	22904
844.708	22984
844.844	23121
844.98	23067
845.117	22885
845.253	22767
845.389	22797
845.525	22782
845.661	22782
845.798	22721
845.934	22702
846.07	22630
846.206	22687
846.342	22675
846.478	22649
846.614	22459
846.75	22280
846.886	22337
847.022	22421
847.158	22371
847.294	22375
847.429	22310
847.565	22360
847.701	22577
847.837	22147
847.972	22082
848.108	22139
848.244	22150
848.379	22128
848.515	22040
848.65	21960
848.786	21945
848.921	21884
849.057	22131
849.192	22044
849.328	21998
849.463	21907
849.598	21975
849.734	21793
849.869	21736
850.004	21660
850.14	21743
850.275	21648
850.41	21701
850.545	21732
850.68	21717
850.815	21686
850.95	21709
851.085	21941
851.22	21842
851.355	21785
851.49	21743
851.625	21781
851.76	21694
851.895	21682
852.03	21496
852.165	21717
852.299	21724
852.434	21728
852.569	21736
852.703	21667
852.838	21759
852.973	21785
853.107	21861
853.242	21618
853.376	21504
853.511	21401
853.645	21412
853.78	21564
853.914	21568
854.048	21523
854.183	21454
854.317	21557
854.451	21690
854.585	21690
854.72	21485
854.854	21663
854.988	21583
855.122	21515
855.256	21329
855.39	21469
855.524	21743
855.658	21496
855.792	21469
855.926	21496
856.06	21618
856.194	21690
856.327	21534
856.461	21485
856.595	21583
856.729	21587
856.862	21561
856.996	21633
857.13	21511
857.263	21736
857.397	21622
857.53	21538
857.664	21515
857.797	21595
857.931	21618
858.064	21458
858.197	21583
858.331	21439
858.464	21458
858.597	21458
858.731	21576
858.864	21454
858.997	21443
859.13	21481
859.263	21507
859.396	21583
859.529	21477
859.662	21473
859.795	21538
859.928	21545
860.061	21660
860.194	21819
860.327	21599
860.46	21553
860.592	21682
860.725	21720
860.858	21641
860.99	21408
861.123	21439
861.256	21458
861.388	21473
861.521	22154
861.653	21386
861.786	21363
861.918	21321
862.05	21458
862.183	21466
862.315	21500
862.447	21580
862.58	21500
862.712	21264
862.844	21233
862.976	21317
863.108	21264
863.24	21561
863.372	21154
863.504	21161
863.636	21055
863.768	21241
863.9	21203
864.032	21283
864.164	21275
864.296	21325
864.428	21382
864.559	21329
864.691	21279
864.823	21237
864.954	21329
865.086	21157
865.217	21169
865.349	21173
865.48	21199
865.612	21131
865.743	21195
865.875	21203
866.006	20982
866.137	21211
866.269	21199
866.4	21085
866.531	21104
866.662	20902
866.793	21077
866.924	21032
867.055	21100
867.186	21093
867.317	21154
867.448	21032
867.579	21157
867.71	21039
867.841	20982
867.972	21127
868.103	21028
868.233	21093
868.364	21165
868.495	21154
868.625	21272
868.756	21420
868.886	21199
869.017	21302
869.147	21408
869.278	21416
869.408	21283
869.539	21291
869.669	21469
869.799	21397
869.929	21450
870.06	21481
870.19	21587
870.32	21663
870.45	21690
870.58	21774
870.71	21755
870.84	21819
870.97	21747
871.1	21709
871.23	21838
871.36	22021
871.489	21800
871.619	21869
871.749	21884
871.879	21842
872.008	22025
872.138	21880
872.267	21930
872.397	21816
872.526	21819
872.656	21736
872.785	21732
872.915	21918
873.044	21972
873.173	22048
873.303	21956
873.432	22116
873.561	21987
873.69	21937
873.819	21953
873.948	21972
874.077	21979
874.206	21869
874.335	21926
874.464	21994
874.593	22090
874.722	22109
874.851	22105
874.979	22181
875.108	22185
875.237	22090
875.365	22040
875.494	22059
875.623	22188
875.751	22078
875.88	22105
876.008	22284
876.136	22303
876.265	22645
876.393	22611
876.521	22504
876.65	22717
876.778	22497
876.906	22424
877.034	22485
877.162	22694
877.29	22455
877.418	22592
877.546	22588
877.674	22565
877.802	22512
877.93	22440
878.058	22504
878.185	22409
878.313	22516
878.441	22421
878.568	22352
878.696	22337
878.824	22519
878.951	22508
879.079	22664
879.206	22938
879.333	22713
879.461	22550
879.588	22637
879.715	22637
879.842	22793
879.97	22611
880.097	22386
880.224	22318
880.351	22436
880.478	22348
880.605	22185
880.732	22295
880.859	22538
880.986	22276
881.112	22390
881.239	22230
881.366	22109
881.493	22002
881.619	21873
881.746	21827
881.872	21915
881.999	21953
882.125	21857
882.252	21926
882.378	21873
882.505	21835
882.631	21663
882.757	21622
882.883	21728
883.01	21553
883.136	21500
883.262	21507
883.388	21443
883.514	21469
883.64	21545
883.766	21523
883.892	21363
884.018	21439
884.143	21473
884.269	21633
884.395	21283
884.52	21336
884.646	21291
884.772	21195
884.897	21154
885.023	21306
885.148	21363
885.274	21386
885.399	21408
885.524	21180
885.65	21233
885.775	21344
885.9	21275
886.025	21439
886.15	21325
886.275	21100
886.4	21131
886.525	21195
886.65	21081
886.775	21119
886.9	21252
887.025	21443
887.149	21135
887.274	21047
887.399	20941
887.523	20986
887.648	20872
887.773	20975
887.897	21104
888.021	21096
888.146	20944
888.27	21138
888.395	20963
888.519	21017
888.643	20990
888.767	21051
888.891	20914
889.015	20853
889.139	20921
889.263	20739
889.387	20948
889.511	20986
889.635	20883
889.759	20792
889.883	20750
890.006	20849
890.13	20880
890.254	20769
890.377	20689
890.501	20613
890.624	20522
890.748	20495
890.871	20560
890.995	20469
891.118	20301
891.241	20336
891.364	20457
891.488	20412
891.611	20404
891.734	20377
891.857	20381
891.98	20339
892.103	20415
892.226	20374
892.349	20252
892.471	20240
892.594	20263
892.717	20362
892.839	20225
892.962	20199
893.085	20317
893.207	20244
893.33	20126
893.452	20218
893.575	20199
893.697	20252
893.819	20465
893.941	20473
894.064	20438
894.186	20244
894.308	20191
894.43	20332
894.552	20423
894.674	20229
894.796	20180
894.918	20191
895.04	20221
895.161	20282
895.283	20328
895.405	20202
895.526	20240
895.648	20248
895.769	20305
895.891	20271
896.012	20309
896.134	20343
896.255	20298
896.376	20218
896.498	20221
896.619	20237
896.74	20218
896.861	20343
896.982	20590
897.103	20682
897.224	20518
897.345	20419
897.466	20442
897.587	20393
897.708	20541
897.828	20488
897.949	20438
898.07	20374
898.19	20393
898.311	20476
898.431	20415
898.552	20358
898.672	20492
898.792	20465
898.913	20473
899.033	20332
899.153	20294
899.273	20077
899.393	20191
899.513	20176
899.633	20252
899.753	20115
899.873	20103
899.993	20206
900.113	20164
900.232	20115
900.352	20126
900.472	19913
900.591	19944
900.711	19986
900.83	19932
900.95	20012
901.069	20031
901.189	19917
901.308	19605
901.427	19544
901.546	19556
901.665	19616
901.784	19453
901.904	19468
902.023	19369
902.141	19156
902.26	19091
902.379	19206
902.498	19099
902.617	18928
902.735	19137
902.854	19091
902.973	18905
903.091	18779
903.21	18612
903.328	18692
903.446	18654
903.565	18585
903.683	18528
903.801	18311
903.919	18574
904.038	18464
904.156	18289
904.274	18418
904.392	18399
904.51	18334
904.627	18361
904.745	18292
904.863	18357
904.981	18152
905.098	18041
905.216	17923
905.334	18030
905.451	17969
905.569	17980
905.686	17965
905.803	17961
905.921	17760
906.038	17859
906.155	17821
906.272	17596
906.389	17714
906.506	17562
906.623	17421
906.74	17497
906.857	17402
906.974	17459
907.091	17573
907.208	17665
907.324	17528
907.441	17474
907.557	17258
907.674	17235
907.79	17200
907.907	17208
908.023	17242
908.139	17292
908.256	17208
908.372	17083
908.488	17052
908.604	17056
908.72	16854
908.836	16961
908.952	16942
909.068	16987
909.184	16965
909.3	16824
909.415	16923
909.531	16938
909.647	16660
909.762	16664
909.878	16702
909.993	16653
910.108	16645
910.224	16489
910.339	16694
910.454	16561
910.57	16573
910.685	16485
910.8	16702
910.915	16554
911.03	16459
911.145	16413
911.259	16215
911.374	16211
911.489	16253
911.604	16093
911.718	16040
911.833	16036
911.947	15800
912.062	15838
912.176	15998
912.291	15991
912.405	15934
912.519	16135
912.633	16154
912.748	15979
912.862	15926
912.976	15899
913.09	15625
913.204	15755
913.318	15675
913.431	15827
913.545	15797
913.659	15964
913.772	15842
913.886	15686
914	15622
914.113	15675
914.226	15671
914.34	15739
914.453	15542
914.566	15656
914.68	15389
914.793	15519
914.906	15245
915.019	15291
915.132	15199
915.245	15188
915.358	15264
915.47	15252
915.583	15233
915.696	15214
915.809	15211
915.921	15256
916.034	15199
916.146	15089
916.259	15135
916.371	15226
916.483	15146
916.595	15135
916.708	15036
916.82	15085
916.932	15036
917.044	14952
917.156	15009
917.268	14842
917.38	14849
917.491	14804
917.603	14952
917.715	14960
917.826	15009
917.938	14674
918.049	14712
918.161	14781
918.272	14880
918.384	14910
918.495	14807
918.606	14655
918.717	14602
918.828	14606
918.939	14682
919.05	14522
919.161	14492
919.272	14461
919.383	14419
919.494	14659
919.604	14823
919.715	14617
919.826	14537
919.936	14617
920.047	14739
920.157	14644
920.267	14788
920.378	14541
920.488	14530
920.598	14804
920.708	14849
920.818	14807
920.928	14693
921.038	14872
921.148	14636
921.258	14556
921.368	14507
921.477	14419
921.587	14404
921.697	14210
921.806	14313
921.916	14145
922.025	13974
922.134	13959
922.244	13947
922.353	13909
922.462	13845
922.571	13734
922.68	13597
922.789	13605
922.898	13601
923.007	13544
923.116	13510
923.224	13548
923.333	13556
923.442	13449
923.55	13449
923.659	13403
923.767	13457
923.876	13419
923.984	13540
924.092	13278
924.201	13293
924.309	13278
924.417	13365
924.525	13240
924.633	13324
924.741	14138
924.849	12996
924.956	13141
925.064	13046
925.172	13031
925.279	12981
925.387	13031
925.494	13065
925.602	13183
925.709	12989
925.816	12863
925.924	12924
926.031	12989
926.138	12939
926.245	13027
926.352	12848
926.459	12943
926.566	12973
926.673	12913
926.779	12783
926.886	12779
926.993	12570
927.099	12654
927.206	12498
927.312	12566
927.419	12620
927.525	12566
927.631	12555
927.737	12452
927.843	12342
927.95	12403
928.056	12372
928.162	12391
928.267	12323
928.373	13069
928.479	12410
928.585	12254
928.69	12319
928.796	12429
928.901	12338
929.007	12083
929.112	12281
929.218	12182
929.323	12152
929.428	12171
929.533	12273
929.638	12057
929.743	12152
929.848	12098
929.953	12060
930.058	11954
930.163	11794
930.267	11828
930.372	11965
930.477	11703
930.581	11885
930.685	11920
930.79	11726
930.894	11722
930.998	11691
931.103	11745
931.207	11509
931.311	11318
931.415	11349
931.519	11121
931.623	11064
