Data from test_V78500241_2103.txt Node
Date: Fri Mar 25 15:24:30 CST 2022
User: usil
Spectrometer: V785-0024
Trigger mode: 0
Integration Time (sec): 4.000000E-1
Scans to average: 1
Nonlinearity correction enabled: false
Boxcar width: 0
Storing dark spectrum: false
XAxis mode: Wavelengths
Number of Pixels in Spectrum: 1024
>>>>>Begin Spectral Data<<<<<
801.071	28006
801.214	27789
801.356	27633
801.499	27424
801.641	27424
801.783	27466
801.926	27462
802.068	27462
802.211	27370
802.353	27154
802.496	27089
802.638	27127
802.78	27108
802.923	27085
803.065	26921
803.208	27089
803.35	27123
803.492	27173
803.635	27249
803.777	27169
803.919	27344
804.061	27534
804.204	27302
804.346	27272
804.488	27233
804.63	27424
804.773	27218
804.915	27180
805.057	27351
805.199	27066
805.341	27363
805.483	27355
805.626	27427
805.768	27249
805.91	27447
806.052	27401
806.194	27241
806.336	27545
806.478	27466
806.62	27545
806.762	27458
806.904	27644
807.046	27922
807.188	27907
807.33	27945
807.472	27979
807.614	27827
807.756	27846
807.898	27618
808.04	27564
808.182	27648
808.324	27804
808.465	27785
808.607	27918
808.749	28120
808.891	28226
809.033	28219
809.174	28078
809.316	27968
809.458	28021
809.6	28067
809.741	28219
809.883	28253
810.025	28413
810.166	28367
810.308	28440
810.45	28280
810.591	28291
810.733	28116
810.875	28074
811.016	28025
811.158	28017
811.299	28067
811.441	28135
811.582	28082
811.724	27937
811.865	28013
812.007	27823
812.148	28082
812.29	28162
812.431	28139
812.573	28318
812.714	28398
812.855	28645
812.997	28748
813.138	28793
813.279	28759
813.421	28535
813.562	28489
813.703	28348
813.845	28299
813.986	27941
814.127	27778
814.268	27778
814.41	27816
814.551	27705
814.692	27778
814.833	27641
814.974	27713
815.115	27804
815.256	27656
815.397	27500
815.539	27679
815.68	27545
815.821	27412
815.962	27610
816.103	27538
816.244	27256
816.385	27447
816.526	27332
816.666	27051
816.807	26994
816.948	27077
817.089	27062
817.23	26990
817.371	26986
817.512	27055
817.653	27005
817.793	26975
817.934	26944
818.075	27062
818.216	27074
818.356	26944
818.497	27032
818.638	26727
818.778	26712
818.919	26746
819.06	26621
819.2	26887
819.341	27020
819.481	27062
819.622	27165
819.762	27389
819.903	27169
820.043	27336
820.184	27142
820.324	27108
820.465	27256
820.605	26994
820.746	27142
820.886	26864
821.026	27051
821.167	27032
821.307	27085
821.447	27131
821.588	26823
821.728	26693
821.868	26667
822.008	26492
822.149	26590
822.289	26453
822.429	26206
822.569	26103
822.709	26176
822.849	26012
822.99	25875
823.13	25898
823.27	25887
823.41	25685
823.55	25715
823.69	25757
823.83	25864
823.97	25662
824.11	25620
824.25	25483
824.389	25472
824.529	25643
824.669	25620
824.809	25731
824.949	25632
825.089	25624
825.228	25628
825.368	25381
825.508	25441
825.648	25506
825.787	25449
825.927	25487
826.067	25259
826.206	25472
826.346	25445
826.485	25384
826.625	25487
826.765	25556
826.904	25563
827.044	25324
827.183	25384
827.323	25095
827.462	25263
827.601	25225
827.741	25304
827.88	25244
828.02	25129
828.159	25141
828.298	25095
828.437	25228
828.577	25107
828.716	25320
828.855	25152
828.994	24935
829.134	24878
829.273	24821
829.412	24894
829.551	24741
829.69	24795
829.829	24897
829.968	24920
830.107	24897
830.246	24897
830.385	24829
830.524	24707
830.663	24795
830.802	24563
830.941	24467
831.08	24502
831.219	24525
831.357	24593
831.496	24677
831.635	24445
831.774	24361
831.913	24376
832.051	24235
832.19	24369
832.329	24197
832.467	24224
832.606	24152
832.744	24213
832.883	24106
833.022	24091
833.16	24178
833.299	24224
833.437	24186
833.576	24251
833.714	24194
833.852	24224
833.991	24159
834.129	24296
834.267	24289
834.406	24232
834.544	24224
834.682	24186
834.821	24091
834.959	24483
835.097	24186
835.235	24384
835.373	24102
835.511	24266
835.65	24083
835.788	24007
835.926	24015
836.064	23798
836.202	23794
836.34	24041
836.478	24129
836.615	24018
836.753	23942
836.891	24095
837.029	24091
837.167	24018
837.305	23901
837.443	23988
837.58	23904
837.718	23927
837.856	23882
837.993	23874
838.131	23920
838.269	23859
838.406	23851
838.544	23535
838.681	23486
838.819	23505
838.956	23463
839.094	23444
839.231	23463
839.369	23539
839.506	23691
839.643	23535
839.781	23459
839.918	23356
840.055	23326
840.193	23372
840.33	23330
840.467	23322
840.604	23334
840.742	23474
840.879	23227
841.016	23147
841.153	23143
841.29	23448
841.427	23258
841.564	23326
841.701	23220
841.838	23299
841.975	22984
842.112	23242
842.249	23136
842.385	23025
842.522	23200
842.659	23018
842.796	22965
842.933	23098
843.069	22976
843.206	22965
843.343	23098
843.479	23044
843.616	23056
843.752	22740
843.889	22797
844.025	22904
844.162	22782
844.298	22839
844.435	22767
844.571	22767
844.708	22904
844.844	22995
844.98	22957
845.117	22847
845.253	22683
845.389	22660
845.525	22710
845.661	22656
845.798	22497
845.934	22641
846.07	22550
846.206	22618
846.342	22649
846.478	22550
846.614	22337
846.75	22226
846.886	22318
847.022	22344
847.158	22249
847.294	22230
847.429	22363
847.565	22226
847.701	22390
847.837	22002
847.972	21915
848.108	22025
848.244	22173
848.379	21918
848.515	21915
848.65	21812
848.786	21941
848.921	21907
849.057	22006
849.192	21895
849.328	21785
849.463	21915
849.598	21907
849.734	21789
849.869	21732
850.004	21534
850.14	21614
850.275	21622
850.41	21572
850.545	21583
850.68	21644
850.815	21538
850.95	21545
851.085	21717
851.22	21743
851.355	21781
851.49	21633
851.625	21633
851.76	21701
851.895	21443
852.03	21397
852.165	21663
852.299	21686
852.434	21603
852.569	21720
852.703	21618
852.838	21709
852.973	21751
853.107	21713
853.242	21469
853.376	21492
853.511	21260
853.645	21374
853.78	21500
853.914	21408
854.048	21378
854.183	21481
854.317	21439
854.451	21720
854.585	21500
854.72	21412
854.854	21469
854.988	21370
855.122	21386
855.256	21321
855.39	21443
855.524	21545
855.658	21545
855.792	21382
855.926	21488
856.06	21473
856.194	21496
856.327	21431
856.461	21287
856.595	21351
856.729	21363
856.862	21542
856.996	21492
857.13	21538
857.263	21450
857.397	21481
857.53	21389
857.664	21370
857.797	21469
857.931	21515
858.064	21485
858.197	21542
858.331	21393
858.464	21374
858.597	21237
858.731	21363
858.864	21355
858.997	21386
859.13	21344
859.263	21447
859.396	21591
859.529	21443
859.662	21336
859.795	21207
859.928	21458
860.061	21568
860.194	21614
860.327	21367
860.46	21439
860.592	21557
860.725	21458
860.858	21561
860.99	21393
861.123	21405
861.256	21283
861.388	21378
861.521	22154
861.653	21454
861.786	21218
861.918	21226
862.05	21317
862.183	21355
862.315	21294
862.447	21408
862.58	21351
862.712	21096
862.844	21150
862.976	21176
863.108	21169
863.24	21435
863.372	21214
863.504	21119
863.636	21161
863.768	21119
863.9	21127
864.032	20994
864.164	21055
864.296	21142
864.428	21226
864.559	21070
864.691	21184
864.823	21180
864.954	21207
865.086	21096
865.217	21104
865.349	20941
865.48	21055
865.612	20967
865.743	21112
865.875	21085
866.006	20982
866.137	21001
866.269	21047
866.4	20971
866.531	21028
866.662	20899
866.793	20948
866.924	21093
867.055	20887
867.186	21036
867.317	20956
867.448	20826
867.579	20921
867.71	20883
867.841	20929
867.972	20864
868.103	20929
868.233	20990
868.364	21001
868.495	21074
868.625	21222
868.756	21332
868.886	21135
869.017	21287
869.147	21310
869.278	21363
869.408	21245
869.539	21135
869.669	21351
869.799	21283
869.929	21287
870.06	21283
870.19	21466
870.32	21504
870.45	21561
870.58	21603
870.71	21709
870.84	21652
870.97	21603
871.1	21736
871.23	21770
871.36	21797
871.489	21785
871.619	21759
871.749	21789
871.879	21797
872.008	21907
872.138	21800
872.267	21709
872.397	21641
872.526	21614
872.656	21701
872.785	21679
872.915	21732
873.044	22013
873.173	21671
873.303	21747
873.432	21842
873.561	21975
873.69	21759
873.819	21857
873.948	21915
874.077	21812
874.206	21770
874.335	21873
874.464	21888
874.593	22036
874.722	22078
874.851	22192
874.979	22002
875.108	22032
875.237	22002
875.365	21869
875.494	21968
875.623	22093
875.751	22074
875.88	22040
876.008	22093
876.136	22303
876.265	22478
876.393	22554
876.521	22519
876.65	22546
876.778	22504
876.906	22322
877.034	22382
877.162	22382
877.29	22348
877.418	22459
877.546	22508
877.674	22447
877.802	22432
877.93	22386
878.058	22417
878.185	22310
878.313	22375
878.441	22223
878.568	22204
878.696	22291
878.824	22447
878.951	22322
879.079	22725
879.206	22675
879.333	22592
879.461	22367
879.588	22580
879.715	22512
879.842	22656
879.97	22356
880.097	22287
880.224	22265
880.351	22230
880.478	22246
880.605	22166
880.732	22337
880.859	22382
880.986	22276
881.112	22295
881.239	22044
881.366	22006
881.493	21892
881.619	21785
881.746	21907
881.872	21686
881.999	21797
882.125	21747
882.252	21838
882.378	21865
882.505	21922
882.631	21751
882.757	21572
882.883	21557
883.01	21454
883.136	21557
883.262	21321
883.388	21348
883.514	21378
883.64	21523
883.766	21523
883.892	21195
884.018	21256
884.143	21481
884.269	21519
884.395	21218
884.52	21119
884.646	21199
884.772	21081
884.897	21127
885.023	21184
885.148	21260
885.274	21336
885.399	21211
885.524	21233
885.65	21161
885.775	21310
885.9	21165
886.025	21180
886.15	21180
886.275	21081
886.4	21032
886.525	21009
886.65	21017
886.775	21032
886.9	21306
887.025	21355
887.149	21112
887.274	20914
887.399	20952
887.523	20883
887.648	20891
887.773	20933
887.897	20967
888.021	20929
888.146	20944
888.27	21013
888.395	21039
888.519	20925
888.643	20986
888.767	20967
888.891	20815
889.015	20705
889.139	20819
889.263	20659
889.387	20800
889.511	20990
889.635	20853
889.759	20720
889.883	20659
890.006	20693
890.13	20804
890.254	20613
890.377	20655
890.501	20511
890.624	20560
890.748	20469
890.871	20385
890.995	20153
891.118	20301
891.241	20294
891.364	20218
891.488	20461
891.611	20275
891.734	20282
891.857	20202
891.98	20168
892.103	20450
892.226	20225
892.349	20210
892.471	20012
892.594	20252
892.717	20275
892.839	20050
892.962	20073
893.085	20355
893.207	20153
893.33	20005
893.452	20134
893.575	20282
893.697	20218
893.819	20263
893.941	20336
894.064	20358
894.186	20069
894.308	20103
894.43	20278
894.552	20351
894.674	20229
894.796	20062
894.918	20149
895.04	20195
895.161	20305
895.283	20278
895.405	20062
895.526	20195
895.648	20252
895.769	20176
895.891	20073
896.012	20195
896.134	20149
896.255	20202
896.376	20103
896.498	20138
896.619	20362
896.74	20172
896.861	20282
896.982	20415
897.103	20693
897.224	20503
897.345	20343
897.466	20324
897.587	20374
897.708	20541
897.828	20522
897.949	20339
898.07	20168
898.19	20317
898.311	20446
898.431	20336
898.552	20385
898.672	20404
898.792	20446
898.913	20389
899.033	20240
899.153	20248
899.273	20005
899.393	20024
899.513	20191
899.633	20183
899.753	20107
899.873	20153
899.993	20191
900.113	20065
900.232	20096
900.352	20065
900.472	20024
900.591	19898
900.711	19898
900.83	19879
900.95	19898
901.069	20035
901.189	19871
901.308	19567
901.427	19506
901.546	19460
901.665	19453
901.784	19445
901.904	19373
902.023	19343
902.141	19152
902.26	18985
902.379	19084
902.498	19038
902.617	19065
902.735	19148
902.854	18996
902.973	18943
903.091	18681
903.21	18631
903.328	18688
903.446	18604
903.565	18578
903.683	18555
903.801	18437
903.919	18456
904.038	18464
904.156	18216
904.274	18323
904.392	18197
904.51	18281
904.627	18136
904.745	18281
904.863	18273
904.981	17988
905.098	17874
905.216	17863
905.334	17942
905.451	17969
905.569	17897
905.686	17908
905.803	17828
905.921	17775
906.038	17779
906.155	17672
906.272	17661
906.389	17657
906.506	17501
906.623	17452
906.74	17497
906.857	17383
906.974	17349
907.091	17459
907.208	17623
907.324	17551
907.441	17448
907.557	17246
907.674	17208
907.79	17109
907.907	17212
908.023	17208
908.139	17178
908.256	17159
908.372	17105
908.488	17014
908.604	17003
908.72	16831
908.836	16873
908.952	16831
909.068	16923
909.184	17056
909.3	16915
909.415	16885
909.531	16873
909.647	16542
909.762	16630
909.878	16573
909.993	16592
910.108	16599
910.224	16569
910.339	16466
910.454	16470
910.57	16360
910.685	16238
910.8	16584
910.915	16508
911.03	16382
911.145	16287
911.259	16211
911.374	16211
911.489	16131
911.604	16090
911.718	15972
911.833	16029
911.947	15774
912.062	15804
912.176	15865
912.291	15903
912.405	15831
912.519	16078
912.633	16204
912.748	16036
912.862	15835
912.976	15842
913.09	15641
913.204	15675
913.318	15747
913.431	15797
913.545	15823
913.659	15838
913.772	15808
913.886	15637
914	15534
914.113	15591
914.226	15660
914.34	15507
914.453	15412
914.566	15557
914.68	15355
914.793	15477
914.906	15264
915.019	15142
915.132	15135
915.245	15138
915.358	15131
915.47	15108
915.583	15131
915.696	15207
915.809	15218
915.921	15332
916.034	15112
916.146	15081
916.259	15058
916.371	15077
916.483	15116
916.595	14979
916.708	15036
916.82	14937
916.932	15039
917.044	14979
917.156	14948
917.268	14800
917.38	14811
917.491	14743
917.603	14849
917.715	14933
917.826	14948
917.938	14686
918.049	14621
918.161	14773
918.272	14811
918.384	14819
918.495	14674
918.606	14716
918.717	14438
918.828	14575
918.939	14560
919.05	14469
919.161	14571
919.272	14324
919.383	14385
919.494	14659
919.604	14724
919.715	14499
919.826	14533
919.936	14507
920.047	14503
920.157	14499
920.267	14739
920.378	14408
920.488	14568
920.598	14754
920.708	14800
920.818	14590
920.928	14629
921.038	14857
921.148	14811
921.258	14526
921.368	14419
921.477	14225
921.587	14271
921.697	14096
921.806	14244
921.916	14157
922.025	13963
922.134	13849
922.244	13871
922.353	13906
922.462	13761
922.571	13685
922.68	13544
922.789	13590
922.898	13525
923.007	13529
923.116	13518
923.224	13594
923.333	13499
923.442	13419
923.55	13438
923.659	13373
923.767	13430
923.876	13312
923.984	13438
924.092	13274
924.201	13384
924.309	13255
924.417	13384
924.525	13190
924.633	13198
924.741	13940
924.849	12973
924.956	13084
925.064	12909
925.172	12909
925.279	12924
925.387	13042
925.494	12878
925.602	12981
925.709	12966
925.816	12859
925.924	12882
926.031	13042
926.138	12863
926.245	12863
926.352	12787
926.459	12909
926.566	13069
926.673	12916
926.779	12715
926.886	12719
926.993	12612
927.099	12608
927.206	12441
927.312	12479
927.419	12551
927.525	12460
927.631	12528
927.737	12418
927.843	12399
927.95	12243
928.056	12300
928.162	12388
928.267	12395
928.373	13012
928.479	12475
928.585	12220
928.69	12338
928.796	12422
928.901	12205
929.007	12068
929.112	12197
929.218	12171
929.323	12072
929.428	11988
929.533	12247
929.638	12034
929.743	11996
929.848	12098
929.953	12007
930.058	11958
930.163	11805
930.267	11760
930.372	11798
930.477	11691
930.581	11931
930.685	11790
930.79	11589
930.894	11676
930.998	11589
931.103	11691
931.207	11318
931.311	11315
931.415	11181
931.519	11014
931.623	11048
