Data from test_V78500241_3449.txt Node
Date: Fri Mar 25 15:33:52 CST 2022
User: usil
Spectrometer: V785-0024
Trigger mode: 0
Integration Time (sec): 4.000000E-1
Scans to average: 1
Nonlinearity correction enabled: false
Boxcar width: 0
Storing dark spectrum: false
XAxis mode: Wavelengths
Number of Pixels in Spectrum: 1024
>>>>>Begin Spectral Data<<<<<
801.071	27313
801.214	27241
801.356	26990
801.499	27024
801.641	26891
801.783	26804
801.926	26921
802.068	26826
802.211	26777
802.353	26769
802.496	26541
802.638	26590
802.78	26488
802.923	26385
803.065	26271
803.208	26396
803.35	26511
803.492	26625
803.635	26720
803.777	26667
803.919	26705
804.061	26960
804.204	26765
804.346	26663
804.488	26575
804.63	26667
804.773	26457
804.915	26720
805.057	26777
805.199	26655
805.341	26769
805.483	26800
805.626	26674
805.768	26659
805.91	26765
806.052	26910
806.194	26602
806.336	26872
806.478	26724
806.62	26727
806.762	26853
806.904	26994
807.046	27279
807.188	27138
807.33	27249
807.472	27123
807.614	27077
807.756	27230
807.898	26891
808.04	26994
808.182	26902
808.324	26925
808.465	27127
808.607	27142
808.749	27313
808.891	27348
809.033	27500
809.174	27370
809.316	27325
809.458	27386
809.6	27233
809.741	27450
809.883	27431
810.025	27663
810.166	27542
810.308	27660
810.45	27549
810.591	27625
810.733	27367
810.875	27351
811.016	27321
811.158	27131
811.299	27367
811.441	27523
811.582	27355
811.724	27306
811.865	27298
812.007	27332
812.148	27264
812.29	27473
812.431	27538
812.573	27545
812.714	27709
812.855	27827
812.997	28032
813.138	28131
813.279	27926
813.421	27914
813.562	27682
813.703	27622
813.845	27485
813.986	27218
814.127	27138
814.268	26982
814.41	27108
814.551	26914
814.692	27077
814.833	27119
814.974	26914
815.115	26944
815.256	26940
815.397	26914
815.539	26929
815.68	26918
815.821	26629
815.962	26887
816.103	26823
816.244	26549
816.385	26484
816.526	26362
816.666	26400
816.807	26149
816.948	26248
817.089	26370
817.23	26214
817.371	26248
817.512	26301
817.653	26122
817.793	26267
817.934	26214
818.075	26389
818.216	26153
818.356	26282
818.497	26134
818.638	25837
818.778	25913
818.919	25944
819.06	26134
819.2	26142
819.341	26183
819.481	26237
819.622	26278
819.762	26571
819.903	26537
820.043	26484
820.184	26305
820.324	26389
820.465	26389
820.605	26400
820.746	26248
820.886	26244
821.026	26377
821.167	26275
821.307	26408
821.447	26183
821.588	26031
821.728	25963
821.868	25944
822.008	25643
822.149	25791
822.289	25677
822.429	25548
822.569	25434
822.709	25266
822.849	25274
822.99	25160
823.13	25152
823.27	25324
823.41	24909
823.55	24916
823.69	25091
823.83	24958
823.97	24909
824.11	24932
824.25	24802
824.389	24787
824.529	24878
824.669	24795
824.809	25012
824.949	24856
825.089	24928
825.228	24882
825.368	24700
825.508	24776
825.648	24681
825.787	24696
825.927	24798
826.067	24715
826.206	24783
826.346	24768
826.485	24802
826.625	24840
826.765	24901
826.904	24703
827.044	24540
827.183	24388
827.323	24437
827.462	24566
827.601	24361
827.741	24475
827.88	24574
828.02	24266
828.159	24384
828.298	24502
828.437	24429
828.577	24350
828.716	24544
828.855	24308
828.994	24152
829.134	24110
829.273	24102
829.412	24163
829.551	24178
829.69	24190
829.829	24140
829.968	24186
830.107	24239
830.246	24114
830.385	24171
830.524	24136
830.663	23958
830.802	23882
830.941	23745
831.08	23684
831.219	23870
831.357	23843
831.496	24041
831.635	23733
831.774	23726
831.913	23630
832.051	23452
832.19	23486
832.329	23539
832.467	23459
832.606	23421
832.744	23345
832.883	23356
833.022	23459
833.16	23337
833.299	23566
833.437	23547
833.576	23501
833.714	23528
833.852	23570
833.991	23585
834.129	23653
834.267	23646
834.406	23531
834.544	23570
834.682	23528
834.821	23543
834.959	23657
835.097	23493
835.235	23512
835.373	23402
835.511	23619
835.65	23417
835.788	23391
835.926	23208
836.064	23147
836.202	23090
836.34	23280
836.478	23345
836.615	23307
836.753	23471
836.891	23383
837.029	23322
837.167	23383
837.305	23254
837.443	23258
837.58	23151
837.718	23193
837.856	23162
837.993	23277
838.131	23246
838.269	23166
838.406	23212
838.544	23109
838.681	22919
838.819	22736
838.956	22683
839.094	22656
839.231	22706
839.369	22835
839.506	23022
839.643	23029
839.781	22740
839.918	22603
840.055	22675
840.193	22584
840.33	22660
840.467	22573
840.604	22577
840.742	22839
840.879	22535
841.016	22611
841.153	22481
841.29	22668
841.427	22462
841.564	22767
841.701	22596
841.838	22584
841.975	22592
842.112	22706
842.249	22436
842.385	22352
842.522	22546
842.659	22485
842.796	22409
842.933	22489
843.069	22344
843.206	22390
843.343	22455
843.479	22451
843.616	22299
843.752	22124
843.889	22188
844.025	22211
844.162	22112
844.298	22234
844.435	22169
844.571	22021
844.708	22246
844.844	22325
844.98	22303
845.117	22314
845.253	22185
845.389	22097
845.525	22101
845.661	21949
845.798	21861
845.934	21873
846.07	21808
846.206	21930
846.342	22093
846.478	21907
846.614	21644
846.75	21492
846.886	21564
847.022	21857
847.158	21663
847.294	21709
847.429	21713
847.565	21564
847.701	21766
847.837	21473
847.972	21420
848.108	21496
848.244	21450
848.379	21279
848.515	21211
848.65	21180
848.786	21275
848.921	21306
849.057	21344
849.192	21287
849.328	21378
849.463	21283
849.598	21245
849.734	21104
849.869	20929
850.004	21085
850.14	20933
850.275	21039
850.41	20838
850.545	20899
850.68	21051
850.815	21089
850.95	20960
851.085	21214
851.22	21169
851.355	20921
851.49	20967
851.625	21036
851.76	20880
851.895	20963
852.03	20876
852.165	20998
852.299	21051
852.434	21195
852.569	21005
852.703	21032
852.838	21138
852.973	21131
853.107	21108
853.242	21055
853.376	20872
853.511	20773
853.645	20826
853.78	20876
853.914	20918
854.048	20845
854.183	20807
854.317	20895
854.451	21074
854.585	20792
854.72	20746
854.854	20914
854.988	20788
855.122	20792
855.256	20697
855.39	20819
855.524	20823
855.658	20861
855.792	20769
855.926	20925
856.06	20891
856.194	20849
856.327	20773
856.461	20743
856.595	20781
856.729	20781
856.862	20910
856.996	20781
857.13	20880
857.263	20986
857.397	20933
857.53	20746
857.664	20826
857.797	20990
857.931	20921
858.064	20956
858.197	20773
858.331	20762
858.464	20678
858.597	20750
858.731	20823
858.864	20826
858.997	20739
859.13	20838
859.263	20811
859.396	21028
859.529	20708
859.662	20773
859.795	20876
859.928	20857
860.061	20956
860.194	21001
860.327	20899
860.46	20891
860.592	20872
860.725	20937
860.858	20967
860.99	20845
861.123	20731
861.256	20777
861.388	20857
861.521	21454
861.653	20804
861.786	20575
861.918	20750
862.05	20724
862.183	20708
862.315	20682
862.447	20834
862.58	20648
862.712	20552
862.844	20651
862.976	20533
863.108	20648
863.24	20910
863.372	20488
863.504	20549
863.636	20495
863.768	20514
863.9	20689
864.032	20537
864.164	20446
864.296	20571
864.428	20617
864.559	20598
864.691	20606
864.823	20480
864.954	20450
865.086	20564
865.217	20355
865.349	20267
865.48	20473
865.612	20434
865.743	20499
865.875	20511
866.006	20366
866.137	20484
866.269	20454
866.4	20389
866.531	20393
866.662	20396
866.793	20362
866.924	20415
867.055	20438
867.186	20412
867.317	20370
867.448	20339
867.579	20290
867.71	20355
867.841	20370
867.972	20396
868.103	20336
868.233	20385
868.364	20412
868.495	20484
868.625	20655
868.756	20606
868.886	20541
869.017	20602
869.147	20792
869.278	20762
869.408	20636
869.539	20663
869.669	20735
869.799	20708
869.929	20750
870.06	20720
870.19	20971
870.32	20963
870.45	20914
870.58	20986
870.71	21089
870.84	21074
870.97	21074
871.1	20960
871.23	21184
871.36	21222
871.489	21093
871.619	21085
871.749	21192
871.879	21359
872.008	21329
872.138	21374
872.267	21306
872.397	21146
872.526	21154
872.656	21032
872.785	21062
872.915	21359
873.044	21214
873.173	21252
873.303	21302
873.432	21325
873.561	21344
873.69	21218
873.819	21256
873.948	21252
874.077	21294
874.206	21252
874.335	21154
874.464	21351
874.593	21428
874.722	21382
874.851	21481
874.979	21500
875.108	21648
875.237	21466
875.365	21466
875.494	21458
875.623	21496
875.751	21408
875.88	21564
876.008	21576
876.136	21637
876.265	21774
876.393	22105
876.521	21895
876.65	21941
876.778	21865
876.906	21831
877.034	21850
877.162	21895
877.29	21759
877.418	21922
877.546	21854
877.674	21968
877.802	21743
877.93	21751
878.058	21755
878.185	21660
878.313	21846
878.441	21831
878.568	21682
878.696	21728
878.824	21816
878.951	22017
879.079	21960
879.206	22242
879.333	22036
879.461	21888
879.588	21953
879.715	22040
879.842	22166
879.97	21869
880.097	21770
880.224	21637
880.351	21728
880.478	21770
880.605	21690
880.732	21580
880.859	21876
880.986	21701
881.112	21751
881.239	21443
881.366	21420
881.493	21317
881.619	21230
881.746	21321
881.872	21268
881.999	21211
882.125	21195
882.252	21256
882.378	21154
882.505	21192
882.631	21051
882.757	20910
882.883	20986
883.01	21005
883.136	20925
883.262	20800
883.388	20796
883.514	20929
883.64	20998
883.766	20758
883.892	20705
884.018	20735
884.143	20883
884.269	20990
884.395	20575
884.52	20537
884.646	20530
884.772	20579
884.897	20495
885.023	20590
885.148	20632
885.274	20659
885.399	20781
885.524	20590
885.65	20537
885.775	20686
885.9	20556
886.025	20754
886.15	20712
886.275	20454
886.4	20495
886.525	20602
886.65	20560
886.775	20434
886.9	20621
887.025	20868
887.149	20625
887.274	20499
887.399	20469
887.523	20438
887.648	20355
887.773	20263
887.897	20507
888.021	20461
888.146	20218
888.27	20461
888.395	20438
888.519	20362
888.643	20438
888.767	20370
888.891	20355
889.015	20206
889.139	20286
889.263	20176
889.387	20320
889.511	20370
889.635	20248
889.759	20103
889.883	20149
890.006	20107
890.13	20195
890.254	20172
890.377	20100
890.501	19951
890.624	19887
890.748	19917
890.871	19811
890.995	19814
891.118	19731
891.241	19704
891.364	19856
891.488	19887
891.611	19780
891.734	19719
891.857	19811
891.98	19655
892.103	19765
892.226	19791
892.349	19719
892.471	19571
892.594	19662
892.717	19750
892.839	19613
892.962	19658
893.085	19681
893.207	19719
893.33	19533
893.452	19571
893.575	19727
893.697	19609
893.819	19845
893.941	19917
894.064	19799
894.186	19597
894.308	19647
894.43	19833
894.552	19913
894.674	19723
894.796	19582
894.918	19655
895.04	19605
895.161	19674
895.283	19727
895.405	19544
895.526	19548
895.648	19624
895.769	19685
895.891	19685
896.012	19723
896.134	19674
896.255	19571
896.376	19681
896.498	19685
896.619	19609
896.74	19685
896.861	19738
896.982	20031
897.103	20115
897.224	19902
897.345	19902
897.466	19765
897.587	20008
897.708	19986
897.828	19951
897.949	19864
898.07	19746
898.19	19890
898.311	20005
898.431	19811
898.552	19902
898.672	19997
898.792	19951
898.913	19883
899.033	19750
899.153	19780
899.273	19559
899.393	19658
899.513	19719
899.633	19624
899.753	19738
899.873	19578
899.993	19746
900.113	19552
900.232	19647
900.352	19666
900.472	19525
900.591	19400
900.711	19449
900.83	19350
900.95	19525
901.069	19495
901.189	19308
901.308	19095
901.427	19061
901.546	19023
901.665	18996
901.784	19099
901.904	18897
902.023	18749
902.141	18692
902.26	18528
902.379	18635
902.498	18532
902.617	18513
902.735	18593
902.854	18555
902.973	18525
903.091	18285
903.21	18334
903.328	18220
903.446	18136
903.565	18057
903.683	18011
903.801	17939
903.919	17999
904.038	17912
904.156	17821
904.274	17832
904.392	17699
904.51	17718
904.627	17863
904.745	17775
904.863	17817
904.981	17585
905.098	17497
905.216	17471
905.334	17547
905.451	17448
905.569	17391
905.686	17463
905.803	17497
905.921	17296
906.038	17398
906.155	17204
906.272	17162
906.389	17216
906.506	17147
906.623	17045
906.74	17064
906.857	16938
906.974	16976
907.091	17071
907.208	17121
907.324	17022
907.441	16911
907.557	16748
907.674	16706
907.79	16691
907.907	16641
908.023	16733
908.139	16774
908.256	16702
908.372	16645
908.488	16565
908.604	16493
908.72	16424
908.836	16584
908.952	16409
909.068	16542
909.184	16592
909.3	16516
909.415	16497
909.531	16523
909.647	16291
909.762	16131
909.878	16128
909.993	16162
910.108	16131
910.224	16124
910.339	16124
910.454	16055
910.57	15975
910.685	15888
910.8	16185
910.915	16105
911.03	15968
911.145	15759
911.259	15682
911.374	15827
911.489	15747
911.604	15629
911.718	15549
911.833	15568
911.947	15382
912.062	15412
912.176	15538
912.291	15500
912.405	15485
912.519	15781
912.633	15717
912.748	15526
912.862	15408
912.976	15351
913.09	15272
913.204	15245
913.318	15408
913.431	15435
913.545	15504
913.659	15435
913.772	15241
913.886	15195
914	15188
914.113	15195
914.226	15237
914.34	15138
914.453	15074
914.566	15150
914.68	14986
914.793	14975
914.906	14838
915.019	14895
915.132	14727
915.245	14746
915.358	14754
915.47	14727
915.583	14788
915.696	14769
915.809	14910
915.921	14937
916.034	14629
916.146	14731
916.259	14602
916.371	14811
916.483	14712
916.595	14533
916.708	14617
916.82	14655
916.932	14571
917.044	14518
917.156	14590
917.268	14393
917.38	14465
917.491	14484
917.603	14457
917.715	14625
917.826	14507
917.938	14415
918.049	14237
918.161	14393
918.272	14541
918.384	14469
918.495	14389
918.606	14206
918.717	14107
918.828	14290
918.939	14191
919.05	14096
919.161	14164
919.272	14020
919.383	14016
919.494	14214
919.604	14278
919.715	14206
919.826	14024
919.936	14172
920.047	14355
920.157	14149
920.267	14374
920.378	14092
920.488	14187
920.598	14267
920.708	14469
920.818	14332
920.928	14301
921.038	14446
921.148	14393
921.258	14123
921.368	14069
921.477	13841
921.587	13894
921.697	13807
921.806	13970
921.916	13715
922.025	13597
922.134	13578
922.244	13529
922.353	13658
922.462	13449
922.571	13441
922.68	13179
922.789	13156
922.898	13236
923.007	13183
923.116	13232
923.224	13183
923.333	13213
923.442	13114
923.55	12977
923.659	13027
923.767	13053
923.876	12913
923.984	12993
924.092	12863
924.201	12977
924.309	13103
924.417	12954
924.525	12810
924.633	12840
924.741	13856
924.849	12719
924.956	12806
925.064	12627
925.172	12597
925.279	12688
925.387	12677
925.494	12601
925.602	12779
925.709	12623
925.816	12593
925.924	12563
926.031	12711
926.138	12635
926.245	12700
926.352	12479
926.459	12597
926.566	12639
926.673	12521
926.779	12369
926.886	12376
926.993	12281
927.099	12262
927.206	12182
927.312	12175
927.419	12216
927.525	12148
927.631	12243
927.737	12079
927.843	12076
927.95	11992
928.056	12102
928.162	12022
928.267	12091
928.373	12646
928.479	12136
928.585	11908
928.69	11992
928.796	12019
928.901	11882
929.007	11775
929.112	11893
929.218	11874
929.323	11748
929.428	11783
929.533	11889
929.638	11733
929.743	11699
929.848	11760
929.953	11767
930.058	11585
930.163	11509
930.267	11459
930.372	11611
930.477	11429
930.581	11638
930.685	11467
930.79	11440
930.894	11406
930.998	11379
931.103	11463
931.207	11094
931.311	11056
931.415	10995
931.519	10873
931.623	10763
