Data from test_V78500241_2315.txt Node
Date: Fri Mar 25 15:25:58 CST 2022
User: usil
Spectrometer: V785-0024
Trigger mode: 0
Integration Time (sec): 4.000000E-1
Scans to average: 1
Nonlinearity correction enabled: false
Boxcar width: 0
Storing dark spectrum: false
XAxis mode: Wavelengths
Number of Pixels in Spectrum: 1024
>>>>>Begin Spectral Data<<<<<
801.071	27393
801.214	27363
801.356	27329
801.499	27176
801.641	26929
801.783	27077
801.926	27017
802.068	26971
802.211	26960
802.353	26834
802.496	26777
802.638	26716
802.78	26526
802.923	26450
803.065	26374
803.208	26545
803.35	26522
803.492	26762
803.635	26849
803.777	26689
803.919	26872
804.061	27154
804.204	26830
804.346	26724
804.488	26800
804.63	26743
804.773	26796
804.915	26815
805.057	26933
805.199	26826
805.341	26891
805.483	26952
805.626	26864
805.768	26792
805.91	26956
806.052	26990
806.194	26823
806.336	27203
806.478	26819
806.62	27001
806.762	26971
806.904	27222
807.046	27260
807.188	27199
807.33	27325
807.472	27374
807.614	27207
807.756	27211
807.898	27237
808.04	26998
808.182	27096
808.324	27173
808.465	27260
808.607	27321
808.749	27553
808.891	27511
809.033	27686
809.174	27511
809.316	27534
809.458	27359
809.6	27595
809.741	27644
809.883	27789
810.025	27724
810.166	27747
810.308	27732
810.45	27622
810.591	27644
810.733	27450
810.875	27431
811.016	27427
811.158	27317
811.299	27473
811.441	27568
811.582	27705
811.724	27507
811.865	27557
812.007	27511
812.148	27294
812.29	27515
812.431	27515
812.573	27888
812.714	27880
812.855	28059
812.997	28082
813.138	28295
813.279	28109
813.421	28116
813.562	27998
813.703	27937
813.845	27823
813.986	27488
814.127	27340
814.268	27146
814.41	27135
814.551	27264
814.692	27146
814.833	27260
814.974	27108
815.115	27173
815.256	27066
815.397	27005
815.539	26975
815.68	27089
815.821	26743
815.962	26990
816.103	26880
816.244	26910
816.385	26731
816.526	26705
816.666	26499
816.807	26362
816.948	26396
817.089	26617
817.23	26549
817.371	26389
817.512	26362
817.653	26503
817.793	26332
817.934	26431
818.075	26374
818.216	26503
818.356	26434
818.497	26229
818.638	26073
818.778	26157
818.919	26199
819.06	26244
819.2	26317
819.341	26419
819.481	26408
819.622	26575
819.762	26693
819.903	26678
820.043	26606
820.184	26617
820.324	26446
820.465	26667
820.605	26518
820.746	26514
820.886	26358
821.026	26488
821.167	26480
821.307	26442
821.447	26305
821.588	26358
821.728	26149
821.868	26107
822.008	25997
822.149	25928
822.289	25890
822.429	25651
822.569	25441
822.709	25537
822.849	25518
822.99	25388
823.13	25384
823.27	25293
823.41	25266
823.55	25137
823.69	25076
823.83	25244
823.97	25080
824.11	25088
824.25	24981
824.389	25012
824.529	25080
824.669	25012
824.809	25126
824.949	25110
825.089	24985
825.228	25053
825.368	24787
825.508	24852
825.648	24947
825.787	24897
825.927	24985
826.067	24817
826.206	24932
826.346	24894
826.485	24890
826.625	24867
826.765	24958
826.904	24981
827.044	24772
827.183	24642
827.323	24623
827.462	24612
827.601	24749
827.741	24597
827.88	24654
828.02	24494
828.159	24597
828.298	24544
828.437	24627
828.577	24563
828.716	24661
828.855	24578
828.994	24270
829.134	24330
829.273	24403
829.412	24338
829.551	24178
829.69	24205
829.829	24384
829.968	24304
830.107	24342
830.246	24346
830.385	24190
830.524	24285
830.663	24064
830.802	24079
830.941	23813
831.08	23874
831.219	23977
831.357	24018
831.496	24049
831.635	23942
831.774	23908
831.913	23718
832.051	23729
832.19	23832
832.329	23794
832.467	23619
832.606	23474
832.744	23516
832.883	23573
833.022	23467
833.16	23554
833.299	23646
833.437	23592
833.576	23630
833.714	23691
833.852	23707
833.991	23756
834.129	23741
834.267	23638
834.406	23729
834.544	23726
834.682	23672
834.821	23608
834.959	23805
835.097	23630
835.235	23684
835.373	23524
835.511	23600
835.65	23471
835.788	23425
835.926	23425
836.064	23246
836.202	23353
836.34	23376
836.478	23573
836.615	23516
836.753	23440
836.891	23539
837.029	23528
837.167	23509
837.305	23433
837.443	23372
837.58	23315
837.718	23402
837.856	23436
837.993	23292
838.131	23364
838.269	23151
838.406	23231
838.544	23159
838.681	23041
838.819	22919
838.956	22790
839.094	22816
839.231	22961
839.369	22877
839.506	23242
839.643	23231
839.781	22820
839.918	22805
840.055	22725
840.193	22755
840.33	22790
840.467	22740
840.604	22733
840.742	22972
840.879	22706
841.016	22634
841.153	22618
841.29	22930
841.427	22634
841.564	22729
841.701	22653
841.838	22645
841.975	22500
842.112	22615
842.249	22466
842.385	22599
842.522	22592
842.659	22519
842.796	22516
842.933	22618
843.069	22325
843.206	22489
843.343	22596
843.479	22485
843.616	22645
843.752	22257
843.889	22341
844.025	22504
844.162	22265
844.298	22341
844.435	22238
844.571	22367
844.708	22207
844.844	22318
844.98	22379
845.117	22249
845.253	22261
845.389	22059
845.525	22188
845.661	22078
845.798	21972
845.934	22101
846.07	22059
846.206	21979
846.342	22207
846.478	21934
846.614	21842
846.75	21720
846.886	21675
847.022	21736
847.158	21679
847.294	21846
847.429	21800
847.565	21800
847.701	22017
847.837	21431
847.972	21355
848.108	21572
848.244	21488
848.379	21348
848.515	21237
848.65	21230
848.786	21370
848.921	21351
849.057	21336
849.192	21412
849.328	21302
849.463	21393
849.598	21294
849.734	21203
849.869	21222
850.004	21066
850.14	21116
850.275	21119
850.41	21013
850.545	20933
850.68	21024
850.815	21165
850.95	21005
851.085	21302
851.22	21142
851.355	21093
851.49	21123
851.625	21119
851.76	21096
851.895	20906
852.03	21051
852.165	21104
852.299	21100
852.434	21195
852.569	21074
852.703	21074
852.838	21058
852.973	21192
853.107	21039
853.242	20998
853.376	20952
853.511	20777
853.645	20849
853.78	21104
853.914	20902
854.048	20883
854.183	20815
854.317	20785
854.451	21142
854.585	20914
854.72	20864
854.854	21032
854.988	20872
855.122	20998
855.256	20727
855.39	21017
855.524	21051
855.658	20998
855.792	20891
855.926	20906
856.06	20921
856.194	20994
856.327	20910
856.461	20883
856.595	20861
856.729	20830
856.862	20925
856.996	20944
857.13	20914
857.263	20982
857.397	21028
857.53	20883
857.664	20887
857.797	20895
857.931	21081
858.064	20952
858.197	20956
858.331	20857
858.464	20834
858.597	20746
858.731	20864
858.864	20887
858.997	20864
859.13	20743
859.263	20918
859.396	20982
859.529	20952
859.662	20773
859.795	20838
859.928	20933
860.061	21104
860.194	21123
860.327	21032
860.46	20975
860.592	20910
860.725	20948
860.858	20979
860.99	20883
861.123	20754
861.256	20876
861.388	20788
861.521	21629
861.653	20762
861.786	20731
861.918	20750
862.05	20693
862.183	20895
862.315	20815
862.447	20845
862.58	20834
862.712	20781
862.844	20609
862.976	20678
863.108	20682
863.24	21077
863.372	20568
863.504	20522
863.636	20579
863.768	20461
863.9	20640
864.032	20454
864.164	20552
864.296	20701
864.428	20629
864.559	20674
864.691	20655
864.823	20590
864.954	20518
865.086	20613
865.217	20594
865.349	20469
865.48	20579
865.612	20522
865.743	20705
865.875	20533
866.006	20564
866.137	20518
866.269	20381
866.4	20526
866.531	20404
866.662	20499
866.793	20423
866.924	20476
867.055	20499
867.186	20473
867.317	20434
867.448	20332
867.579	20533
867.71	20469
867.841	20370
867.972	20526
868.103	20495
868.233	20427
868.364	20503
868.495	20537
868.625	20743
868.756	20739
868.886	20640
869.017	20743
869.147	20773
869.278	20796
869.408	20769
869.539	20606
869.669	20807
869.799	20804
869.929	20769
870.06	20948
870.19	21138
870.32	20944
870.45	21108
870.58	21066
870.71	21214
870.84	21085
870.97	21135
871.1	21077
871.23	21291
871.36	21230
871.489	21180
871.619	21222
871.749	21397
871.879	21279
872.008	21313
872.138	21237
872.267	21268
872.397	21116
872.526	21211
872.656	21203
872.785	21256
872.915	21325
873.044	21389
873.173	21351
873.303	21389
873.432	21310
873.561	21428
873.69	21374
873.819	21340
873.948	21439
874.077	21355
874.206	21268
874.335	21431
874.464	21408
874.593	21538
874.722	21606
874.851	21576
874.979	21526
875.108	21599
875.237	21504
875.365	21496
875.494	21553
875.623	21583
875.751	21561
875.88	21519
876.008	21671
876.136	21774
876.265	22074
876.393	22013
876.521	21968
876.65	22112
876.778	22029
876.906	21819
877.034	21930
877.162	21895
877.29	21819
877.418	21899
877.546	21994
877.674	21835
877.802	21941
877.93	21861
878.058	21766
878.185	21682
878.313	21899
878.441	21808
878.568	21732
878.696	21819
878.824	21903
878.951	22055
879.079	22200
879.206	22135
879.333	22002
879.461	21888
879.588	22059
879.715	22063
879.842	22211
879.97	21953
880.097	21785
880.224	21739
880.351	21797
880.478	21732
880.605	21709
880.732	21637
880.859	21922
880.986	21804
881.112	21789
881.239	21610
881.366	21500
881.493	21405
881.619	21378
881.746	21405
881.872	21287
881.999	21268
882.125	21173
882.252	21355
882.378	21298
882.505	21416
882.631	21100
882.757	21104
882.883	21074
883.01	21100
883.136	20937
883.262	20929
883.388	20868
883.514	20998
883.64	21017
883.766	20906
883.892	20735
884.018	20811
884.143	20986
884.269	21032
884.395	20720
884.52	20705
884.646	20575
884.772	20571
884.897	20667
885.023	20667
885.148	20765
885.274	20701
885.399	20830
885.524	20606
885.65	20644
885.775	20667
885.9	20579
886.025	20762
886.15	20670
886.275	20533
886.4	20545
886.525	20651
886.65	20549
886.775	20659
886.9	20758
887.025	20807
887.149	20590
887.274	20450
887.399	20404
887.523	20495
887.648	20419
887.773	20233
887.897	20415
888.021	20336
888.146	20446
888.27	20579
888.395	20431
888.519	20370
888.643	20396
888.767	20438
888.891	20396
889.015	20153
889.139	20355
889.263	20195
889.387	20343
889.511	20339
889.635	20400
889.759	20244
889.883	20202
890.006	20168
890.13	20214
890.254	20126
890.377	20126
890.501	20024
890.624	19997
890.748	19989
890.871	19795
890.995	19784
891.118	19788
891.241	19807
891.364	19791
891.488	19993
891.611	19723
891.734	19753
891.857	19890
891.98	19849
892.103	19830
892.226	19856
892.349	19700
892.471	19624
892.594	19651
892.717	19830
892.839	19719
892.962	19784
893.085	19693
893.207	19780
893.33	19723
893.452	19704
893.575	19685
893.697	19635
893.819	19799
893.941	19879
894.064	19849
894.186	19635
894.308	19613
894.43	19750
894.552	19769
894.674	19913
894.796	19521
894.918	19723
895.04	19681
895.161	19833
895.283	19784
895.405	19704
895.526	19658
895.648	19616
895.769	19750
895.891	19791
896.012	19803
896.134	19780
896.255	19712
896.376	19712
896.498	19753
896.619	19814
896.74	19925
896.861	19674
896.982	20012
897.103	20381
897.224	20035
897.345	19913
897.466	19864
897.587	19902
897.708	20130
897.828	19940
897.949	19894
898.07	19784
898.19	19883
898.311	19997
898.431	19849
898.552	19856
898.672	19917
898.792	20005
898.913	19890
899.033	19746
899.153	19818
899.273	19696
899.393	19689
899.513	19674
899.633	19674
899.753	19715
899.873	19723
899.993	19769
900.113	19696
900.232	19731
900.352	19677
900.472	19590
900.591	19453
900.711	19506
900.83	19377
900.95	19495
901.069	19651
901.189	19449
901.308	19183
901.427	19031
901.546	19042
901.665	19076
901.784	19019
901.904	18947
902.023	18901
902.141	18585
902.26	18593
902.379	18681
902.498	18593
902.617	18601
902.735	18612
902.854	18604
902.973	18559
903.091	18350
903.21	18258
903.328	18281
903.446	18163
903.565	18133
903.683	18087
903.801	17870
903.919	18072
904.038	17988
904.156	17855
904.274	17920
904.392	17821
904.51	17805
904.627	17783
904.745	17901
904.863	17878
904.981	17619
905.098	17486
905.216	17566
905.334	17478
905.451	17516
905.569	17482
905.686	17630
905.803	17463
905.921	17277
906.038	17410
906.155	17231
906.272	17181
906.389	17269
906.506	17121
906.623	17052
906.74	17025
906.857	16919
906.974	16892
907.091	17029
907.208	17223
907.324	16972
907.441	16965
907.557	16790
907.674	16900
907.79	16679
907.907	16717
908.023	16782
908.139	16805
908.256	16694
908.372	16687
908.488	16660
908.604	16516
908.72	16428
908.836	16523
908.952	16417
909.068	16508
909.184	16531
909.3	16459
909.415	16474
909.531	16417
909.647	16329
909.762	16223
909.878	16158
909.993	16219
910.108	16097
910.224	16223
910.339	16097
910.454	16105
910.57	15972
910.685	15861
910.8	16185
910.915	16105
911.03	15937
911.145	15827
911.259	15808
911.374	15800
911.489	15861
911.604	15629
911.718	15519
911.833	15481
911.947	15469
912.062	15367
912.176	15538
912.291	15515
912.405	15515
912.519	15625
912.633	15660
912.748	15561
912.862	15679
912.976	15408
913.09	15256
913.204	15264
913.318	15283
913.431	15454
913.545	15481
913.659	15458
913.772	15302
913.886	15264
914	15203
914.113	15222
914.226	15188
914.34	15252
914.453	15131
914.566	15195
914.68	15009
914.793	15066
914.906	14849
915.019	14823
915.132	14788
915.245	14720
915.358	14834
915.47	14724
915.583	14807
915.696	14727
915.809	14929
915.921	14887
916.034	14769
916.146	14610
916.259	14697
916.371	14746
916.483	14682
916.595	14598
916.708	14644
916.82	14564
916.932	14648
917.044	14659
917.156	14537
917.268	14412
917.38	14526
917.491	14560
917.603	14461
917.715	14518
917.826	14518
917.938	14408
918.049	14370
918.161	14389
918.272	14575
918.384	14457
918.495	14469
918.606	14206
918.717	14153
918.828	14214
918.939	14267
919.05	14092
919.161	14187
919.272	14001
919.383	14164
919.494	14278
919.604	14396
919.715	14187
919.826	14081
919.936	14134
920.047	14263
920.157	14221
920.267	14339
920.378	14123
920.488	14081
920.598	14431
920.708	14431
920.818	14358
920.928	14347
921.038	14469
921.148	14469
921.258	14191
921.368	14050
921.477	13902
921.587	13887
921.697	13799
921.806	13883
921.916	13811
922.025	13605
922.134	13636
922.244	13502
922.353	13540
922.462	13434
922.571	13476
922.68	13225
922.789	13221
922.898	13179
923.007	13194
923.116	13240
923.224	13141
923.333	13194
923.442	13110
923.55	13057
923.659	13095
923.767	13038
923.876	13099
923.984	13065
924.092	12932
924.201	12951
924.309	12989
924.417	12875
924.525	12943
924.633	12886
924.741	13795
924.849	12620
924.956	12791
925.064	12654
925.172	12585
925.279	12616
925.387	12639
925.494	12604
925.602	12738
925.709	12707
925.816	12544
925.924	12707
926.031	12604
926.138	12642
926.245	12696
926.352	12540
926.459	12612
926.566	12677
926.673	12483
926.779	12456
926.886	12445
926.993	12304
927.099	12285
927.206	12228
927.312	12163
927.419	12342
927.525	12167
927.631	12216
927.737	12125
927.843	12095
927.95	11973
928.056	12079
928.162	12110
928.267	12064
928.373	12551
928.479	12133
928.585	11935
928.69	11988
928.796	12011
928.901	11927
929.007	11817
929.112	11942
929.218	11878
929.323	11809
929.428	11733
929.533	11923
929.638	11714
929.743	11767
929.848	11764
929.953	11821
930.058	11638
930.163	11455
930.267	11528
930.372	11699
930.477	11501
930.581	11627
930.685	11547
930.79	11334
930.894	11406
930.998	11379
931.103	11490
931.207	11090
931.311	11064
931.415	10961
931.519	10790
931.623	10805
