Data from test_V78500241_2862.txt Node
Date: Fri Mar 25 15:29:47 CST 2022
User: usil
Spectrometer: V785-0024
Trigger mode: 0
Integration Time (sec): 4.000000E-1
Scans to average: 1
Nonlinearity correction enabled: false
Boxcar width: 0
Storing dark spectrum: false
XAxis mode: Wavelengths
Number of Pixels in Spectrum: 1024
>>>>>Begin Spectral Data<<<<<
801.071	27154
801.214	27207
801.356	26925
801.499	26838
801.641	26724
801.783	26834
801.926	26693
802.068	26583
802.211	26590
802.353	26552
802.496	26427
802.638	26317
802.78	26172
802.923	26282
803.065	26126
803.208	26229
803.35	26374
803.492	26453
803.635	26412
803.777	26343
803.919	26537
804.061	26853
804.204	26499
804.346	26446
804.488	26396
804.63	26537
804.773	26366
804.915	26469
805.057	26545
805.199	26400
805.341	26518
805.483	26560
805.626	26613
805.768	26541
805.91	26530
806.052	26674
806.194	26499
806.336	26712
806.478	26526
806.62	26625
806.762	26765
806.904	26777
807.046	26986
807.188	27020
807.33	26880
807.472	27081
807.614	26960
807.756	26819
807.898	26853
808.04	26876
808.182	26777
808.324	26826
808.465	26830
808.607	27146
808.749	27211
808.891	27363
809.033	27405
809.174	27298
809.316	27142
809.458	27199
809.6	27127
809.741	27336
809.883	27222
810.025	27416
810.166	27405
810.308	27606
810.45	27416
810.591	27329
810.733	27252
810.875	27127
811.016	27112
811.158	27241
811.299	27222
811.441	27310
811.582	27317
811.724	27176
811.865	27249
812.007	27074
812.148	27058
812.29	27218
812.431	27363
812.573	27405
812.714	27534
812.855	27705
812.997	27694
813.138	27831
813.279	27918
813.421	27709
813.562	27572
813.703	27427
813.845	27329
813.986	27001
814.127	26948
814.268	26853
814.41	26891
814.551	26880
814.692	26899
814.833	26705
814.974	26727
815.115	26826
815.256	26648
815.397	26659
815.539	26648
815.68	26659
815.821	26571
815.962	26632
816.103	26503
816.244	26499
816.385	26393
816.526	26320
816.666	26046
816.807	26122
816.948	26054
817.089	26210
817.23	26054
817.371	26081
817.512	25970
817.653	26145
817.793	26096
817.934	26172
818.075	25936
818.216	26130
818.356	26062
818.497	25944
818.638	25761
818.778	25738
818.919	25917
819.06	25871
819.2	26031
819.341	26111
819.481	25917
819.622	26176
819.762	26328
819.903	26313
820.043	26271
820.184	26180
820.324	26134
820.465	26195
820.605	26130
820.746	26309
820.886	26054
821.026	26122
821.167	26062
821.307	26134
821.447	26054
821.588	25993
821.728	25856
821.868	25693
822.008	25616
822.149	25464
822.289	25468
822.429	25244
822.569	25244
822.709	25225
822.849	25008
822.99	25034
823.13	24935
823.27	25057
823.41	24859
823.55	24726
823.69	24935
823.83	24856
823.97	24795
824.11	24696
824.25	24642
824.389	24681
824.529	24715
824.669	24658
824.809	24734
824.949	24677
825.089	24700
825.228	24620
825.368	24555
825.508	24445
825.648	24555
825.787	24578
825.927	24589
826.067	24494
826.206	24563
826.346	24654
826.485	24631
826.625	24441
826.765	24673
826.904	24502
827.044	24353
827.183	24239
827.323	24220
827.462	24247
827.601	24186
827.741	24289
827.88	24247
828.02	24045
828.159	24163
828.298	24338
828.437	24194
828.577	24178
828.716	24273
828.855	24060
828.994	23935
829.134	23923
829.273	23950
829.412	23832
829.551	23790
829.69	23843
829.829	23893
829.968	23984
830.107	23988
830.246	23969
830.385	23904
830.524	23863
830.663	23722
830.802	23653
830.941	23600
831.08	23478
831.219	23611
831.357	23630
831.496	23707
831.635	23531
831.774	23478
831.913	23376
832.051	23417
832.19	23296
832.329	23318
832.467	23136
832.606	23121
832.744	23105
832.883	23052
833.022	23140
833.16	23098
833.299	23322
833.437	23181
833.576	23265
833.714	23277
833.852	23292
833.991	23254
834.129	23436
834.267	23280
834.406	23337
834.544	23296
834.682	23227
834.821	23170
834.959	23353
835.097	23250
835.235	23383
835.373	23197
835.511	23239
835.65	23128
835.788	23006
835.926	22980
836.064	22930
836.202	22923
836.34	23136
836.478	23170
836.615	23174
836.753	23056
836.891	23147
837.029	23060
837.167	23132
837.305	23033
837.443	22953
837.58	22991
837.718	23075
837.856	23010
837.993	22828
838.131	22904
838.269	22847
838.406	22877
838.544	22691
838.681	22656
838.819	22565
838.956	22436
839.094	22516
839.231	22474
839.369	22611
839.506	22847
839.643	22725
839.781	22424
839.918	22455
840.055	22474
840.193	22352
840.33	22325
840.467	22360
840.604	22466
840.742	22637
840.879	22204
841.016	22257
841.153	22322
841.29	22333
841.427	22375
841.564	22440
841.701	22314
841.838	22329
841.975	22226
842.112	22295
842.249	22200
842.385	22166
842.522	22348
842.659	22188
842.796	22090
842.933	22090
843.069	22097
843.206	22032
843.343	22055
843.479	22010
843.616	22105
843.752	21823
843.889	21903
844.025	22059
844.162	21953
844.298	22013
844.435	21823
844.571	21827
844.708	21808
844.844	21968
844.98	21972
845.117	21960
845.253	21713
845.389	21747
845.525	21709
845.661	21800
845.798	21618
845.934	21694
846.07	21671
846.206	21663
846.342	21717
846.478	21648
846.614	21481
846.75	21233
846.886	21405
847.022	21374
847.158	21370
847.294	21291
847.429	21386
847.565	21367
847.701	21591
847.837	21161
847.972	21032
848.108	21211
848.244	21146
848.379	20994
848.515	21039
848.65	21001
848.786	21074
848.921	20910
849.057	21020
849.192	20941
849.328	21009
849.463	20982
849.598	20876
849.734	20960
849.869	20830
850.004	20743
850.14	20804
850.275	20712
850.41	20655
850.545	20541
850.68	20632
850.815	20682
850.95	20686
851.085	20785
851.22	20804
851.355	20720
851.49	20648
851.625	20564
851.76	20754
851.895	20609
852.03	20613
852.165	20735
852.299	20777
852.434	20804
852.569	20819
852.703	20811
852.838	20849
852.973	20792
853.107	20788
853.242	20765
853.376	20499
853.511	20454
853.645	20473
853.78	20621
853.914	20602
854.048	20590
854.183	20518
854.317	20522
854.451	20845
854.585	20461
854.72	20495
854.854	20594
854.988	20377
855.122	20488
855.256	20381
855.39	20473
855.524	20606
855.658	20530
855.792	20564
855.926	20476
856.06	20560
856.194	20602
856.327	20636
856.461	20454
856.595	20511
856.729	20442
856.862	20693
856.996	20495
857.13	20602
857.263	20602
857.397	20705
857.53	20568
857.664	20514
857.797	20575
857.931	20629
858.064	20609
858.197	20621
858.331	20556
858.464	20434
858.597	20545
858.731	20564
858.864	20613
858.997	20381
859.13	20556
859.263	20636
859.396	20617
859.529	20533
859.662	20511
859.795	20351
859.928	20640
860.061	20785
860.194	20609
860.327	20545
860.46	20370
860.592	20602
860.725	20659
860.858	20636
860.99	20552
861.123	20396
861.256	20484
861.388	20514
861.521	21173
861.653	20446
861.786	20400
861.918	20355
862.05	20454
862.183	20408
862.315	20480
862.447	20651
862.58	20419
862.712	20256
862.844	20290
862.976	20393
863.108	20355
863.24	20743
863.372	20320
863.504	20278
863.636	20221
863.768	20233
863.9	20320
864.032	20157
864.164	20301
864.296	20313
864.428	20427
864.559	20259
864.691	20305
864.823	20400
864.954	20229
865.086	20157
865.217	20183
865.349	20092
865.48	20073
865.612	20138
865.743	20286
865.875	20183
866.006	20122
866.137	20084
866.269	20073
866.4	20214
866.531	20172
866.662	20069
866.793	20039
866.924	20008
867.055	20027
867.186	20122
867.317	20054
867.448	20092
867.579	20046
867.71	19986
867.841	20077
867.972	20134
868.103	20062
868.233	20043
868.364	19947
868.495	20320
868.625	20286
868.756	20370
868.886	20294
869.017	20370
869.147	20389
869.278	20408
869.408	20408
869.539	20336
869.669	20442
869.799	20366
869.929	20503
870.06	20446
870.19	20609
870.32	20648
870.45	20682
870.58	20727
870.71	20868
870.84	20807
870.97	20659
871.1	20727
871.23	20933
871.36	20925
871.489	20724
871.619	20895
871.749	20998
871.879	21013
872.008	21074
872.138	21047
872.267	20933
872.397	20804
872.526	20682
872.656	20743
872.785	20807
872.915	20994
873.044	21020
873.173	21005
873.303	20902
873.432	20895
873.561	21100
873.69	21055
873.819	20990
873.948	20921
874.077	21036
874.206	20986
874.335	20941
874.464	21108
874.593	21070
874.722	21260
874.851	21176
874.979	21207
875.108	21233
875.237	21188
875.365	21051
875.494	21268
875.623	21363
875.751	21096
875.88	21116
876.008	21351
876.136	21264
876.265	21606
876.393	21663
876.521	21679
876.65	21732
876.778	21519
876.906	21610
877.034	21526
877.162	21454
877.29	21462
877.418	21568
877.546	21485
877.674	21671
877.802	21610
877.93	21644
878.058	21447
878.185	21367
878.313	21599
878.441	21507
878.568	21348
878.696	21500
878.824	21614
878.951	21622
879.079	21675
879.206	21823
879.333	21701
879.461	21572
879.588	21690
879.715	21701
879.842	21812
879.97	21644
880.097	21408
880.224	21367
880.351	21405
880.478	21378
880.605	21386
880.732	21367
880.859	21606
880.986	21382
881.112	21405
881.239	21199
881.366	21138
881.493	21108
881.619	20899
881.746	21005
881.872	20994
881.999	20826
882.125	20925
882.252	21070
882.378	20887
882.505	21024
882.631	20868
882.757	20674
882.883	20720
883.01	20651
883.136	20617
883.262	20560
883.388	20537
883.514	20640
883.64	20754
883.766	20541
883.892	20511
884.018	20518
884.143	20648
884.269	20689
884.395	20423
884.52	20248
884.646	20301
884.772	20237
884.897	20199
885.023	20343
885.148	20408
885.274	20629
885.399	20423
885.524	20282
885.65	20343
885.775	20240
885.9	20233
886.025	20514
886.15	20374
886.275	20267
886.4	20259
886.525	20206
886.65	20339
886.775	20229
886.9	20328
887.025	20552
887.149	20187
887.274	20134
887.399	20122
887.523	20084
887.648	20069
887.773	19902
887.897	20202
888.021	20107
888.146	19997
888.27	20237
888.395	20191
888.519	20149
888.643	20111
888.767	20142
888.891	20046
889.015	19921
889.139	19913
889.263	19871
889.387	19963
889.511	20058
889.635	20183
889.759	19906
889.883	19837
890.006	19879
890.13	20058
890.254	19803
890.377	19780
890.501	19575
890.624	19521
890.748	19681
890.871	19616
890.995	19563
891.118	19388
891.241	19521
891.364	19540
891.488	19586
891.611	19578
891.734	19582
891.857	19544
891.98	19518
892.103	19575
892.226	19396
892.349	19495
892.471	19278
892.594	19365
892.717	19400
892.839	19369
892.962	19510
893.085	19499
893.207	19327
893.33	19324
893.452	19289
893.575	19362
893.697	19457
893.819	19533
893.941	19655
894.064	19544
894.186	19381
894.308	19259
894.43	19415
894.552	19578
894.674	19506
894.796	19362
894.918	19377
895.04	19369
895.161	19438
895.283	19388
895.405	19289
895.526	19506
895.648	19373
895.769	19407
895.891	19483
896.012	19502
896.134	19506
896.255	19445
896.376	19301
896.498	19289
896.619	19445
896.74	19506
896.861	19586
896.982	19605
897.103	19868
897.224	19590
897.345	19666
897.466	19483
897.587	19753
897.708	19871
897.828	19719
897.949	19548
898.07	19518
898.19	19670
898.311	19696
898.431	19563
898.552	19734
898.672	19689
898.792	19677
898.913	19704
899.033	19609
899.153	19510
899.273	19377
899.393	19540
899.513	19483
899.633	19533
899.753	19537
899.873	19449
899.993	19499
900.113	19430
900.232	19480
900.352	19304
900.472	19206
900.591	19160
900.711	19339
900.83	19198
900.95	19209
901.069	19407
901.189	19107
901.308	18932
901.427	18772
901.546	18840
901.665	18894
901.784	18840
901.904	18730
902.023	18749
902.141	18494
902.26	18475
902.379	18475
902.498	18376
902.617	18357
902.735	18376
902.854	18429
902.973	18273
903.091	18121
903.21	17996
903.328	18095
903.446	17977
903.565	17851
903.683	17794
903.801	17824
903.919	17813
904.038	17817
904.156	17608
904.274	17634
904.392	17642
904.51	17596
904.627	17562
904.745	17653
904.863	17653
904.981	17532
905.098	17242
905.216	17349
905.334	17303
905.451	17246
905.569	17273
905.686	17296
905.803	17231
905.921	17121
906.038	17185
906.155	16999
906.272	17064
906.389	17048
906.506	16786
906.623	16782
906.74	16885
906.857	16645
906.974	16755
907.091	16839
907.208	16911
907.324	16801
907.441	16679
907.557	16584
907.674	16607
907.79	16489
907.907	16542
908.023	16538
908.139	16508
908.256	16542
908.372	16432
908.488	16413
908.604	16405
908.72	16261
908.836	16344
908.952	16150
909.068	16329
909.184	16447
909.3	16204
909.415	16303
909.531	16158
909.647	16017
909.762	15998
909.878	16105
909.993	16025
910.108	15960
910.224	15827
910.339	15968
910.454	15937
910.57	15884
910.685	15781
910.8	15945
910.915	15922
911.03	15789
911.145	15656
911.259	15496
911.374	15637
911.489	15530
911.604	15504
911.718	15348
911.833	15374
911.947	15233
912.062	15207
912.176	15416
912.291	15405
912.405	15378
912.519	15523
912.633	15576
912.748	15424
912.862	15287
912.976	15230
913.09	15108
913.204	15188
913.318	15176
913.431	15302
913.545	15264
913.659	15207
913.772	15119
913.886	15017
914	15009
914.113	15138
914.226	15150
914.34	15017
914.453	14834
914.566	14921
914.68	14906
914.793	14796
914.906	14697
915.019	14610
915.132	14514
915.245	14522
915.358	14682
915.47	14590
915.583	14632
915.696	14644
915.809	14640
915.921	14659
916.034	14564
916.146	14556
916.259	14492
916.371	14503
916.483	14533
916.595	14393
916.708	14385
916.82	14541
916.932	14450
917.044	14423
917.156	14343
917.268	14218
917.38	14336
917.491	14237
917.603	14336
917.715	14400
917.826	14358
917.938	14263
918.049	14225
918.161	14218
918.272	14324
918.384	14317
918.495	14229
918.606	14149
918.717	13947
918.828	14046
918.939	14111
919.05	13951
919.161	14024
919.272	13856
919.383	13860
919.494	14115
919.604	14168
919.715	14016
919.826	13940
919.936	14039
920.047	14111
920.157	13921
920.267	14168
920.378	14039
920.488	14081
920.598	14126
920.708	14286
920.818	14115
920.928	14172
921.038	14202
921.148	14244
921.258	14027
921.368	13902
921.477	13772
921.587	13693
921.697	13662
921.806	13799
921.916	13700
922.025	13392
922.134	13529
922.244	13384
922.353	13499
922.462	13316
922.571	13232
922.68	13156
922.789	13034
922.898	13129
923.007	12916
923.116	13061
923.224	13065
923.333	13133
923.442	13023
923.55	12951
923.659	12924
923.767	12943
923.876	12810
923.984	12924
924.092	12806
924.201	12825
924.309	12802
924.417	12764
924.525	12760
924.633	12711
924.741	13609
924.849	12585
924.956	12707
925.064	12509
925.172	12399
925.279	12559
925.387	12479
925.494	12498
925.602	12601
925.709	12456
925.816	12372
925.924	12509
926.031	12528
926.138	12437
926.245	12486
926.352	12464
926.459	12422
926.566	12635
926.673	12441
926.779	12266
926.886	12247
926.993	12171
927.099	12114
927.206	12133
927.312	12057
927.419	12098
927.525	12114
927.631	12049
927.737	12003
927.843	11923
927.95	11840
928.056	11958
928.162	11901
928.267	11999
928.373	12517
928.479	11935
928.585	11756
928.69	11870
928.796	11897
928.901	11729
929.007	11573
929.112	11790
929.218	11798
929.323	11779
929.428	11661
929.533	11783
929.638	11524
929.743	11558
929.848	11680
929.953	11684
930.058	11535
930.163	11364
930.267	11391
930.372	11547
930.477	11322
930.581	11592
930.685	11436
930.79	11235
930.894	11140
930.998	11231
931.103	11356
931.207	11056
931.311	10873
931.415	10786
931.519	10675
931.623	10664
