Data from test_V78500241_3403.txt Node
Date: Fri Mar 25 15:33:33 CST 2022
User: usil
Spectrometer: V785-0024
Trigger mode: 0
Integration Time (sec): 4.000000E-1
Scans to average: 1
Nonlinearity correction enabled: false
Boxcar width: 0
Storing dark spectrum: false
XAxis mode: Wavelengths
Number of Pixels in Spectrum: 1024
>>>>>Begin Spectral Data<<<<<
801.071	27306
801.214	27211
801.356	26979
801.499	26868
801.641	26724
801.783	26735
801.926	26670
802.068	26731
802.211	26773
802.353	26689
802.496	26453
802.638	26492
802.78	26457
802.923	26381
803.065	26320
803.208	26366
803.35	26446
803.492	26564
803.635	26613
803.777	26533
803.919	26552
804.061	26880
804.204	26648
804.346	26571
804.488	26507
804.63	26598
804.773	26609
804.915	26469
805.057	26686
805.199	26507
805.341	26613
805.483	26682
805.626	26746
805.768	26583
805.91	26674
806.052	26716
806.194	26667
806.336	26830
806.478	26746
806.62	26674
806.762	26834
806.904	26952
807.046	27119
807.188	27055
807.33	27100
807.472	26990
807.614	26979
807.756	26979
807.898	27017
808.04	26853
808.182	26849
808.324	26952
808.465	26918
808.607	27070
808.749	27272
808.891	27237
809.033	27435
809.174	27351
809.316	27321
809.458	27287
809.6	27165
809.741	27450
809.883	27431
810.025	27504
810.166	27530
810.308	27538
810.45	27458
810.591	27389
810.733	27340
810.875	27348
811.016	27089
811.158	27100
811.299	27397
811.441	27370
811.582	27603
811.724	27199
811.865	27214
812.007	27294
812.148	27329
812.29	27249
812.431	27469
812.573	27420
812.714	27564
812.855	27869
812.997	27759
813.138	27964
813.279	27724
813.421	27797
813.562	27804
813.703	27561
813.845	27340
813.986	27005
814.127	27096
814.268	26880
814.41	27001
814.551	26902
814.692	26944
814.833	26971
814.974	26883
815.115	26895
815.256	26883
815.397	26644
815.539	26838
815.68	26758
815.821	26590
815.962	26617
816.103	26625
816.244	26537
816.385	26419
816.526	26423
816.666	26347
816.807	26134
816.948	26202
817.089	26199
817.23	26237
817.371	26001
817.512	26172
817.653	26119
817.793	26077
817.934	26290
818.075	26092
818.216	26237
818.356	26206
818.497	26134
818.638	26035
818.778	25887
818.919	25997
819.06	25963
819.2	26119
819.341	26176
819.481	26172
819.622	26252
819.762	26682
819.903	26438
820.043	26427
820.184	26195
820.324	26206
820.465	26347
820.605	26157
820.746	26275
820.886	26138
821.026	26343
821.167	26278
821.307	26385
821.447	26225
821.588	26058
821.728	26024
821.868	25776
822.008	25666
822.149	25518
822.289	25552
822.429	25449
822.569	25274
822.709	25221
822.849	25217
822.99	25194
823.13	25095
823.27	25110
823.41	24901
823.55	24852
823.69	24958
823.83	25084
823.97	24875
824.11	24764
824.25	24715
824.389	24700
824.529	24833
824.669	24833
824.809	24905
824.949	24817
825.089	24886
825.228	24779
825.368	24627
825.508	24658
825.648	24604
825.787	24707
825.927	24730
826.067	24551
826.206	24719
826.346	24844
826.485	24566
826.625	24566
826.765	24681
826.904	24741
827.044	24369
827.183	24585
827.323	24399
827.462	24426
827.601	24536
827.741	24323
827.88	24448
828.02	24277
828.159	24338
828.298	24300
828.437	24441
828.577	24285
828.716	24441
828.855	24243
828.994	24117
829.134	24155
829.273	24129
829.412	24117
829.551	23988
829.69	23984
829.829	24129
829.968	24182
830.107	24224
830.246	24026
830.385	24007
830.524	24045
830.663	23958
830.802	23847
830.941	23714
831.08	23672
831.219	23707
831.357	23714
831.496	23920
831.635	23608
831.774	23547
831.913	23493
832.051	23543
832.19	23414
832.329	23490
832.467	23425
832.606	23303
832.744	23334
832.883	23379
833.022	23383
833.16	23448
833.299	23444
833.437	23455
833.576	23471
833.714	23356
833.852	23520
833.991	23501
834.129	23562
834.267	23436
834.406	23444
834.544	23376
834.682	23433
834.821	23421
834.959	23611
835.097	23398
835.235	23387
835.373	23547
835.511	23490
835.65	23326
835.788	23231
835.926	23250
836.064	23124
836.202	23170
836.34	23326
836.478	23459
836.615	23273
836.753	23273
836.891	23383
837.029	23391
837.167	23200
837.305	23261
837.443	23147
837.58	23140
837.718	22999
837.856	23143
837.993	23128
838.131	23071
838.269	23014
838.406	23048
838.544	22877
838.681	22805
838.819	22736
838.956	22763
839.094	22660
839.231	22637
839.369	22843
839.506	23025
839.643	22869
839.781	22656
839.918	22702
840.055	22588
840.193	22588
840.33	22531
840.467	22580
840.604	22599
840.742	22831
840.879	22447
841.016	22493
841.153	22379
841.29	22713
841.427	22561
841.564	22710
841.701	22637
841.838	22451
841.975	22421
842.112	22440
842.249	22440
842.385	22390
842.522	22615
842.659	22428
842.796	22306
842.933	22299
843.069	22253
843.206	22188
843.343	22310
843.479	22253
843.616	22325
843.752	22063
843.889	22112
844.025	22295
844.162	22204
844.298	22249
844.435	22055
844.571	22082
844.708	22207
844.844	22325
844.98	22398
845.117	22207
845.253	22029
845.389	21998
845.525	22055
845.661	21911
845.798	21895
845.934	21968
846.07	21774
846.206	21892
846.342	21987
846.478	21774
846.614	21603
846.75	21603
846.886	21526
847.022	21690
847.158	21610
847.294	21720
847.429	21599
847.565	21572
847.701	21751
847.837	21283
847.972	21340
848.108	21321
848.244	21329
848.379	21173
848.515	21260
848.65	21237
848.786	21222
848.921	21150
849.057	21306
849.192	21294
849.328	21214
849.463	21268
849.598	21104
849.734	21127
849.869	21100
850.004	21039
850.14	21009
850.275	21024
850.41	20792
850.545	20925
850.68	20891
850.815	20918
850.95	20990
851.085	21036
851.22	20994
851.355	20998
851.49	21085
851.625	20838
851.76	20819
851.895	20887
852.03	20853
852.165	20899
852.299	20967
852.434	20994
852.569	20864
852.703	20872
852.838	21036
852.973	20994
853.107	20944
853.242	20895
853.376	20750
853.511	20583
853.645	20872
853.78	20853
853.914	20754
854.048	20655
854.183	20754
854.317	20807
854.451	20910
854.585	20796
854.72	20735
854.854	20788
854.988	20708
855.122	20712
855.256	20667
855.39	20746
855.524	20918
855.658	20815
855.792	20724
855.926	20956
856.06	20823
856.194	20826
856.327	20708
856.461	20773
856.595	20659
856.729	20708
856.862	20765
856.996	20876
857.13	20819
857.263	20937
857.397	20880
857.53	20689
857.664	20773
857.797	20807
857.931	20845
858.064	20754
858.197	20982
858.331	20712
858.464	20750
858.597	20606
858.731	20727
858.864	20743
858.997	20678
859.13	20655
859.263	20788
859.396	20762
859.529	20781
859.662	20667
859.795	20598
859.928	20682
860.061	20853
860.194	20883
860.327	20743
860.46	20762
860.592	20861
860.725	20910
860.858	20941
860.99	20849
861.123	20819
861.256	20678
861.388	20834
861.521	21412
861.653	20564
861.786	20495
861.918	20590
862.05	20705
862.183	20758
862.315	20716
862.447	20739
862.58	20727
862.712	20514
862.844	20518
862.976	20625
863.108	20541
863.24	20914
863.372	20396
863.504	20545
863.636	20434
863.768	20590
863.9	20518
864.032	20454
864.164	20446
864.296	20530
864.428	20568
864.559	20530
864.691	20514
864.823	20552
864.954	20583
865.086	20465
865.217	20480
865.349	20427
865.48	20431
865.612	20377
865.743	20629
865.875	20408
866.006	20412
866.137	20370
866.269	20495
866.4	20370
866.531	20332
866.662	20290
866.793	20400
866.924	20313
867.055	20282
867.186	20358
867.317	20355
867.448	20301
867.579	20180
867.71	20267
867.841	20206
867.972	20332
868.103	20214
868.233	20317
868.364	20400
868.495	20434
868.625	20492
868.756	20663
868.886	20511
869.017	20651
869.147	20583
869.278	20746
869.408	20613
869.539	20511
869.669	20602
869.799	20609
869.929	20769
870.06	20670
870.19	20724
870.32	20895
870.45	21020
870.58	20963
870.71	21028
870.84	21142
870.97	20941
871.1	20982
871.23	21112
871.36	21195
871.489	21032
871.619	21131
871.749	21173
871.879	21131
872.008	21329
872.138	21142
872.267	21131
872.397	21009
872.526	20944
872.656	20948
872.785	21066
872.915	21351
873.044	21233
873.173	21154
873.303	21336
873.432	21241
873.561	21283
873.69	21306
873.819	21214
873.948	21192
874.077	21230
874.206	21199
874.335	21146
874.464	21203
874.593	21511
874.722	21294
874.851	21507
874.979	21545
875.108	21473
875.237	21344
875.365	21302
875.494	21431
875.623	21515
875.751	21492
875.88	21397
876.008	21595
876.136	21572
876.265	21895
876.393	21964
876.521	21857
876.65	21907
876.778	21888
876.906	21743
877.034	21751
877.162	21846
877.29	21873
877.418	21846
877.546	21857
877.674	21762
877.802	21720
877.93	21975
878.058	21770
878.185	21660
878.313	21739
878.441	21876
878.568	21610
878.696	21694
878.824	21983
878.951	21797
879.079	21972
879.206	22135
879.333	21991
879.461	21808
879.588	21869
879.715	21991
879.842	22032
879.97	21835
880.097	21637
880.224	21675
880.351	21717
880.478	21694
880.605	21587
880.732	21622
880.859	21888
880.986	21663
881.112	21583
881.239	21576
881.366	21336
881.493	21298
881.619	21230
881.746	21374
881.872	21241
881.999	21176
882.125	21154
882.252	21184
882.378	21199
882.505	21275
882.631	21074
882.757	20910
882.883	21055
883.01	20876
883.136	20914
883.262	20769
883.388	20804
883.514	20842
883.64	21028
883.766	20800
883.892	20682
884.018	20686
884.143	20868
884.269	20941
884.395	20606
884.52	20465
884.646	20583
884.772	20533
884.897	20526
885.023	20670
885.148	20629
885.274	20701
885.399	20636
885.524	20537
885.65	20552
885.775	20579
885.9	20549
886.025	20720
886.15	20537
886.275	20461
886.4	20415
886.525	20488
886.65	20526
886.775	20446
886.9	20644
887.025	20754
887.149	20454
887.274	20313
887.399	20377
887.523	20324
887.648	20206
887.773	20267
887.897	20408
888.021	20431
888.146	20267
888.27	20298
888.395	20530
888.519	20370
888.643	20355
888.767	20396
888.891	20077
889.015	19974
889.139	20199
889.263	20180
889.387	20301
889.511	20374
889.635	20233
889.759	20161
889.883	20115
890.006	20221
890.13	20199
890.254	20084
890.377	20039
890.501	19860
890.624	19795
890.748	19890
890.871	19776
890.995	19689
891.118	19502
891.241	19757
891.364	19746
891.488	19830
891.611	19712
891.734	19601
891.857	19662
891.98	19841
892.103	19837
892.226	19696
892.349	19704
892.471	19563
892.594	19647
892.717	19685
892.839	19597
892.962	19765
893.085	19639
893.207	19624
893.33	19624
893.452	19453
893.575	19677
893.697	19521
893.819	19685
893.941	19811
894.064	19807
894.186	19586
894.308	19445
894.43	19784
894.552	19693
894.674	19693
894.796	19605
894.918	19651
895.04	19533
895.161	19651
895.283	19655
895.405	19544
895.526	19578
895.648	19601
895.769	19746
895.891	19647
896.012	19655
896.134	19643
896.255	19651
896.376	19544
896.498	19578
896.619	19685
896.74	19601
896.861	19689
896.982	19963
897.103	20039
897.224	19849
897.345	19970
897.466	19772
897.587	19830
897.708	19921
897.828	19788
897.949	19719
898.07	19837
898.19	19723
898.311	19925
898.431	19845
898.552	19871
898.672	19944
898.792	20043
898.913	19974
899.033	19784
899.153	19738
899.273	19597
899.393	19635
899.513	19708
899.633	19601
899.753	19586
899.873	19556
899.993	19662
900.113	19514
900.232	19552
900.352	19499
900.472	19362
900.591	19384
900.711	19441
900.83	19407
900.95	19434
901.069	19457
901.189	19316
901.308	19061
901.427	18928
901.546	19012
901.665	19114
901.784	19110
901.904	18810
902.023	18753
902.141	18677
902.26	18479
902.379	18536
902.498	18509
902.617	18555
902.735	18525
902.854	18437
902.973	18452
903.091	18174
903.21	18155
903.328	18220
903.446	18140
903.565	18087
903.683	18019
903.801	17935
903.919	18038
904.038	17946
904.156	17805
904.274	17893
904.392	17771
904.51	17783
904.627	17745
904.745	17756
904.863	17874
904.981	17615
905.098	17535
905.216	17318
905.334	17509
905.451	17478
905.569	17387
905.686	17482
905.803	17547
905.921	17235
906.038	17349
906.155	17254
906.272	17246
906.389	17128
906.506	17132
906.623	17109
906.74	16995
906.857	16847
906.974	16816
907.091	17132
907.208	17060
907.324	17037
907.441	16801
907.557	16801
907.674	16877
907.79	16653
907.907	16729
908.023	16691
908.139	16774
908.256	16561
908.372	16668
908.488	16706
908.604	16508
908.72	16402
908.836	16402
908.952	16451
909.068	16500
909.184	16500
909.3	16432
909.415	16382
909.531	16440
909.647	16226
909.762	16196
909.878	16086
909.993	16219
910.108	16147
910.224	16116
910.339	16166
910.454	16025
910.57	16059
910.685	16002
910.8	16124
910.915	16135
911.03	15998
911.145	15823
911.259	15846
911.374	15743
911.489	15736
911.604	15633
911.718	15500
911.833	15469
911.947	15458
912.062	15302
912.176	15595
912.291	15443
912.405	15500
912.519	15698
912.633	15660
912.748	15538
912.862	15485
912.976	15348
913.09	15203
913.204	15329
913.318	15405
913.431	15450
913.545	15496
913.659	15416
913.772	15233
913.886	15214
914	15188
914.113	15203
914.226	15241
914.34	15135
914.453	15013
914.566	15195
914.68	15047
914.793	15005
914.906	14765
915.019	14765
915.132	14667
915.245	14788
915.358	14697
915.47	14712
915.583	14724
915.696	14807
915.809	14838
915.921	14906
916.034	14602
916.146	14632
916.259	14659
916.371	14754
916.483	14678
916.595	14708
916.708	14659
916.82	14488
916.932	14655
917.044	14579
917.156	14476
917.268	14454
917.38	14518
917.491	14473
917.603	14427
917.715	14495
917.826	14461
917.938	14393
918.049	14400
918.161	14396
918.272	14465
918.384	14461
918.495	14351
918.606	14256
918.717	14161
918.828	14271
918.939	14275
919.05	14149
919.161	14107
919.272	14024
919.383	14062
919.494	14233
919.604	14385
919.715	14218
919.826	14062
919.936	14043
920.047	14214
920.157	14187
920.267	14393
920.378	14221
920.488	14077
920.598	14408
920.708	14412
920.818	14336
920.928	14393
921.038	14495
921.148	14434
921.258	14130
921.368	13955
921.477	13841
921.587	13951
921.697	13799
921.806	13814
921.916	13791
922.025	13632
922.134	13704
922.244	13533
922.353	13662
922.462	13396
922.571	13491
922.68	13282
922.789	13232
922.898	13194
923.007	13152
923.116	13247
923.224	13194
923.333	13175
923.442	13118
923.55	13000
923.659	13034
923.767	13069
923.876	13053
923.984	13027
924.092	12947
924.201	12947
924.309	12905
924.417	12932
924.525	12859
924.633	12856
924.741	13769
924.849	12757
924.956	12890
925.064	12684
925.172	12566
925.279	12658
925.387	12646
925.494	12601
925.602	12703
925.709	12703
925.816	12540
925.924	12604
926.031	12696
926.138	12506
926.245	12631
926.352	12544
926.459	12616
926.566	12726
926.673	12517
926.779	12445
926.886	12372
926.993	12235
927.099	12251
927.206	12171
927.312	12209
927.419	12235
927.525	12186
927.631	12235
927.737	12201
927.843	12057
927.95	12007
928.056	12045
928.162	12068
928.267	12163
928.373	12642
928.479	12129
928.585	11798
928.69	12003
928.796	12068
928.901	11863
929.007	11748
929.112	11904
929.218	11805
929.323	11859
929.428	11794
929.533	11908
929.638	11741
929.743	11707
929.848	11840
929.953	11619
930.058	11505
930.163	11436
930.267	11532
930.372	11592
930.477	11421
930.581	11630
930.685	11505
930.79	11337
930.894	11410
930.998	11265
931.103	11482
931.207	11124
931.311	10965
931.415	10892
931.519	10778
931.623	10786
