Data from test_V78500241_1617.txt Node
Date: Fri Mar 25 15:21:06 CST 2022
User: usil
Spectrometer: V785-0024
Trigger mode: 0
Integration Time (sec): 4.000000E-1
Scans to average: 1
Nonlinearity correction enabled: false
Boxcar width: 0
Storing dark spectrum: false
XAxis mode: Wavelengths
Number of Pixels in Spectrum: 1024
>>>>>Begin Spectral Data<<<<<
801.071	27930
801.214	27804
801.356	27523
801.499	27424
801.641	27370
801.783	27401
801.926	27534
802.068	27447
802.211	27321
802.353	27279
802.496	27017
802.638	27138
802.78	27192
802.923	26998
803.065	27020
803.208	26921
803.35	27039
803.492	27108
803.635	27222
803.777	27032
803.919	27355
804.061	27439
804.204	27306
804.346	27138
804.488	27218
804.63	27100
804.773	27146
804.915	27332
805.057	27340
805.199	27207
805.341	27397
805.483	27374
805.626	27374
805.768	27252
805.91	27325
806.052	27264
806.194	27431
806.336	27572
806.478	27367
806.62	27344
806.762	27572
806.904	27648
807.046	27903
807.188	27637
807.33	27797
807.472	27785
807.614	27793
807.756	27709
807.898	27622
808.04	27568
808.182	27633
808.324	27747
808.465	27591
808.607	27968
808.749	27991
808.891	27960
809.033	28101
809.174	28147
809.316	27812
809.458	28032
809.6	28017
809.741	28090
809.883	28143
810.025	28360
810.166	28257
810.308	28215
810.45	28314
810.591	28200
810.733	28139
810.875	28002
811.016	27846
811.158	27865
811.299	28074
811.441	28272
811.582	28105
811.724	28017
811.865	27972
812.007	28002
812.148	27987
812.29	27930
812.431	28154
812.573	28276
812.714	28417
812.855	28706
812.997	28565
813.138	28759
813.279	28687
813.421	28611
813.562	28603
813.703	28341
813.845	28223
813.986	28021
814.127	27831
814.268	27736
814.41	27644
814.551	27660
814.692	27762
814.833	27637
814.974	27599
815.115	27713
815.256	27564
815.397	27595
815.539	27660
815.68	27545
815.821	27564
815.962	27439
816.103	27466
816.244	27538
816.385	27283
816.526	27237
816.666	27142
816.807	26948
816.948	27089
817.089	27161
817.23	26956
817.371	27070
817.512	26921
817.653	26887
817.793	26857
817.934	26994
818.075	27017
818.216	27058
818.356	26975
818.497	26792
818.638	26731
818.778	26834
818.919	26697
819.06	27009
819.2	26883
819.341	27028
819.481	27001
819.622	27146
819.762	27192
819.903	27226
820.043	27055
820.184	27112
820.324	27218
820.465	27188
820.605	27123
820.746	26982
820.886	27036
821.026	27077
821.167	27081
821.307	27085
821.447	27119
821.588	26994
821.728	26800
821.868	26739
822.008	26431
822.149	26514
822.289	26488
822.429	26202
822.569	26107
822.709	26062
822.849	26050
822.99	25959
823.13	25978
823.27	25944
823.41	25803
823.55	25731
823.69	25826
823.83	25803
823.97	25795
824.11	25696
824.25	25601
824.389	25597
824.529	25544
824.669	25578
824.809	25662
824.949	25712
825.089	25666
825.228	25666
825.368	25457
825.508	25476
825.648	25521
825.787	25472
825.927	25537
826.067	25487
826.206	25403
826.346	25590
826.485	25518
826.625	25510
826.765	25411
826.904	25510
827.044	25194
827.183	25187
827.323	25141
827.462	25240
827.601	25160
827.741	25118
827.88	25160
828.02	25148
828.159	25118
828.298	25164
828.437	25168
828.577	25202
828.716	25206
828.855	25038
828.994	24878
829.134	24894
829.273	24783
829.412	24867
829.551	24909
829.69	24867
829.829	24947
829.968	25088
830.107	24909
830.246	24848
830.385	24772
830.524	24734
830.663	24715
830.802	24631
830.941	24604
831.08	24475
831.219	24505
831.357	24547
831.496	24684
831.635	24528
831.774	24391
831.913	24376
832.051	24330
832.19	24319
832.329	24289
832.467	24357
832.606	24060
832.744	24072
832.883	24281
833.022	24034
833.16	24121
833.299	24205
833.437	24087
833.576	24121
833.714	24201
833.852	24277
833.991	24353
834.129	24235
834.267	24243
834.406	24262
834.544	24330
834.682	24380
834.821	24144
834.959	24285
835.097	24155
835.235	24380
835.373	24209
835.511	24235
835.65	24209
835.788	24064
835.926	24117
836.064	23874
836.202	23916
836.34	24174
836.478	24148
836.615	24087
836.753	23954
836.891	24049
837.029	24087
837.167	23961
837.305	23821
837.443	23939
837.58	23836
837.718	23992
837.856	23840
837.993	23882
838.131	23840
838.269	23707
838.406	23824
838.544	23562
838.681	23497
838.819	23512
838.956	23414
839.094	23402
839.231	23398
839.369	23520
839.506	23805
839.643	23604
839.781	23326
839.918	23303
840.055	23341
840.193	23455
840.33	23181
840.467	23459
840.604	23379
840.742	23471
840.879	23140
841.016	23220
841.153	23105
841.29	23372
841.427	23280
841.564	23200
841.701	23212
841.838	23208
841.975	23056
842.112	23269
842.249	23052
842.385	23041
842.522	23193
842.659	23094
842.796	22961
842.933	23071
843.069	22911
843.206	22965
843.343	23094
843.479	23079
843.616	22946
843.752	22828
843.889	22885
844.025	22942
844.162	22843
844.298	22968
844.435	22801
844.571	22767
844.708	22919
844.844	22793
844.98	23037
845.117	22892
845.253	22698
845.389	22599
845.525	22668
845.661	22694
845.798	22500
845.934	22611
846.07	22675
846.206	22573
846.342	22767
846.478	22569
846.614	22341
846.75	22265
846.886	22417
847.022	22382
847.158	22322
847.294	22352
847.429	22322
847.565	22382
847.701	22489
847.837	22135
847.972	21876
848.108	22029
848.244	21991
848.379	22032
848.515	21850
848.65	21774
848.786	21918
848.921	21975
849.057	21797
849.192	22036
849.328	21975
849.463	21854
849.598	21785
849.734	21831
849.869	21660
850.004	21686
850.14	21629
850.275	21755
850.41	21663
850.545	21511
850.68	21545
850.815	21553
850.95	21606
851.085	21766
851.22	21682
851.355	21622
851.49	21698
851.625	21542
851.76	21618
851.895	21511
852.03	21485
852.165	21660
852.299	21618
852.434	21713
852.569	21648
852.703	21671
852.838	21728
852.973	21762
853.107	21762
853.242	21648
853.376	21507
853.511	21256
853.645	21428
853.78	21576
853.914	21443
854.048	21507
854.183	21313
854.317	21466
854.451	21629
854.585	21496
854.72	21412
854.854	21625
854.988	21428
855.122	21534
855.256	21329
855.39	21447
855.524	21420
855.658	21370
855.792	21447
855.926	21450
856.06	21496
856.194	21485
856.327	21469
856.461	21485
856.595	21462
856.729	21473
856.862	21568
856.996	21481
857.13	21545
857.263	21496
857.397	21526
857.53	21500
857.664	21507
857.797	21488
857.931	21618
858.064	21424
858.197	21595
858.331	21439
858.464	21397
858.597	21287
858.731	21420
858.864	21363
858.997	21351
859.13	21477
859.263	21530
859.396	21580
859.529	21454
859.662	21378
859.795	21447
859.928	21458
860.061	21679
860.194	21542
860.327	21450
860.46	21507
860.592	21511
860.725	21549
860.858	21667
860.99	21287
861.123	21382
861.256	21416
861.388	21542
861.521	22040
861.653	21332
861.786	21188
861.918	21275
862.05	21260
862.183	21283
862.315	21435
862.447	21420
862.58	21329
862.712	21192
862.844	21142
862.976	21074
863.108	21192
863.24	21603
863.372	21074
863.504	21275
863.636	21070
863.768	21184
863.9	21119
864.032	21077
864.164	21020
864.296	21283
864.428	21207
864.559	21252
864.691	21135
864.823	21226
864.954	21108
865.086	21138
865.217	21024
865.349	21032
865.48	21138
865.612	21009
865.743	21017
865.875	21070
866.006	21100
866.137	21009
866.269	21039
866.4	21005
866.531	21009
866.662	21001
866.793	21032
866.924	21096
867.055	21039
867.186	21028
867.317	20868
867.448	20819
867.579	20902
867.71	20914
867.841	20899
867.972	21150
868.103	20887
868.233	20971
868.364	20902
868.495	21036
868.625	21093
868.756	21207
868.886	21157
869.017	21096
869.147	21397
869.278	21264
869.408	21256
869.539	21184
869.669	21340
869.799	21116
869.929	21378
870.06	21363
870.19	21603
870.32	21583
870.45	21561
870.58	21698
870.71	21717
870.84	21641
870.97	21603
871.1	21648
871.23	21781
871.36	21823
871.489	21667
871.619	21701
871.749	21774
871.879	21892
872.008	21934
872.138	21903
872.267	21793
872.397	21747
872.526	21663
872.656	21679
872.785	21671
872.915	21857
873.044	21941
873.173	21842
873.303	21838
873.432	21922
873.561	21907
873.69	21865
873.819	21797
873.948	21888
874.077	21895
874.206	21797
874.335	21713
874.464	22036
874.593	22063
874.722	21941
874.851	22101
874.979	22021
875.108	22044
875.237	22051
875.365	21968
875.494	21945
875.623	22154
875.751	22124
875.88	22112
876.008	22063
876.136	22204
876.265	22538
876.393	22443
876.521	22512
876.65	22508
876.778	22504
876.906	22303
877.034	22462
877.162	22436
877.29	22318
877.418	22428
877.546	22402
877.674	22398
877.802	22413
877.93	22481
878.058	22246
878.185	22169
878.313	22436
878.441	22421
878.568	22257
878.696	22398
878.824	22402
878.951	22440
879.079	22535
879.206	22706
879.333	22508
879.461	22421
879.588	22542
879.715	22577
879.842	22725
879.97	22474
880.097	22192
880.224	22200
880.351	22284
880.478	22215
880.605	22272
880.732	22333
880.859	22409
880.986	22192
881.112	22131
881.239	22162
881.366	21949
881.493	21854
881.619	21945
881.746	21854
881.872	21892
881.999	21888
882.125	21770
882.252	21854
882.378	21884
882.505	21907
882.631	21595
882.757	21511
882.883	21504
883.01	21530
883.136	21545
883.262	21401
883.388	21397
883.514	21633
883.64	21367
883.766	21530
883.892	21272
884.018	21351
884.143	21386
884.269	21538
884.395	21245
884.52	21055
884.646	21165
884.772	21093
884.897	21127
885.023	21211
885.148	21306
885.274	21325
885.399	21283
885.524	21112
885.65	21135
885.775	21165
885.9	21192
886.025	21283
886.15	21340
886.275	21089
886.4	21154
886.525	21119
886.65	21112
886.775	21192
886.9	21131
887.025	21302
887.149	20960
887.274	21005
887.399	20998
887.523	20899
887.648	21009
887.773	20788
887.897	21013
888.021	20914
888.146	20880
888.27	20895
888.395	21055
888.519	20979
888.643	20891
888.767	21093
888.891	20933
889.015	20769
889.139	20826
889.263	20674
889.387	20883
889.511	20948
889.635	20914
889.759	20693
889.883	20659
890.006	20746
890.13	20773
890.254	20632
890.377	20606
890.501	20457
890.624	20552
890.748	20533
890.871	20351
890.995	20320
891.118	20210
891.241	20385
891.364	20294
891.488	20503
891.611	20244
891.734	20317
891.857	20419
891.98	20332
892.103	20317
892.226	20298
892.349	20214
892.471	20100
892.594	20237
892.717	20294
892.839	20115
892.962	20145
893.085	20294
893.207	20092
893.33	20031
893.452	20069
893.575	20233
893.697	20256
893.819	20332
893.941	20434
894.064	20362
894.186	20153
894.308	20145
894.43	20263
894.552	20347
894.674	20126
894.796	20100
894.918	20153
895.04	20153
895.161	20263
895.283	20248
895.405	20084
895.526	20195
895.648	20134
895.769	20161
895.891	20301
896.012	20339
896.134	20278
896.255	20298
896.376	20145
896.498	20195
896.619	20206
896.74	20229
896.861	20366
896.982	20613
897.103	20617
897.224	20385
897.345	20457
897.466	20492
897.587	20438
897.708	20522
897.828	20511
897.949	20381
898.07	20119
898.19	20385
898.311	20377
898.431	20419
898.552	20530
898.672	20465
898.792	20385
898.913	20473
899.033	20347
899.153	20221
899.273	20039
899.393	20119
899.513	20134
899.633	20183
899.753	20202
899.873	20100
899.993	20122
900.113	20164
900.232	20111
900.352	20122
900.472	19898
900.591	19879
900.711	19925
900.83	19947
900.95	19947
901.069	20016
901.189	19826
901.308	19719
901.427	19544
901.546	19521
901.665	19597
901.784	19480
901.904	19377
902.023	19270
902.141	19213
902.26	19012
902.379	19190
902.498	18985
902.617	18966
902.735	19228
902.854	18924
902.973	19008
903.091	18757
903.21	18722
903.328	18681
903.446	18719
903.565	18540
903.683	18570
903.801	18388
903.919	18475
904.038	18426
904.156	18365
904.274	18456
904.392	18304
904.51	18407
904.627	18232
904.745	18327
904.863	18300
904.981	18072
905.098	17973
905.216	18049
905.334	17996
905.451	17980
905.569	17931
905.686	17889
905.803	17882
905.921	17729
906.038	17733
906.155	17684
906.272	17630
906.389	17642
906.506	17505
906.623	17474
906.74	17543
906.857	17277
906.974	17421
907.091	17520
907.208	17619
907.324	17440
907.441	17448
907.557	17178
907.674	17117
907.79	17204
907.907	17136
908.023	17216
908.139	17117
908.256	17090
908.372	17086
908.488	17132
908.604	16930
908.72	16949
908.836	16858
908.952	16877
909.068	16862
909.184	16938
909.3	16881
909.415	16934
909.531	16915
909.647	16725
909.762	16698
909.878	16687
909.993	16702
910.108	16592
910.224	16698
910.339	16519
910.454	16558
910.57	16352
910.685	16398
910.8	16687
910.915	16447
911.03	16386
911.145	16253
911.259	16169
911.374	16196
911.489	16173
911.604	16006
911.718	15922
911.833	15934
911.947	15838
912.062	15732
912.176	15960
912.291	15972
912.405	16017
912.519	16105
912.633	16055
912.748	15934
912.862	15937
912.976	15743
913.09	15743
913.204	15637
913.318	15823
913.431	15926
913.545	15892
913.659	15915
913.772	15656
913.886	15610
914	15523
914.113	15564
914.226	15603
914.34	15652
914.453	15523
914.566	15663
914.68	15473
914.793	15408
914.906	15169
915.019	15154
915.132	15146
915.245	15165
915.358	15302
915.47	15176
915.583	15203
915.696	15245
915.809	15313
915.921	15283
916.034	15173
916.146	15097
916.259	15150
916.371	15146
916.483	15055
916.595	15005
916.708	14979
916.82	15032
916.932	15024
917.044	14986
917.156	14925
917.268	14739
917.38	14853
917.491	14842
917.603	14887
917.715	14956
917.826	14861
917.938	14788
918.049	14632
918.161	14758
918.272	14918
918.384	14872
918.495	14640
918.606	14564
918.717	14522
918.828	14735
918.939	14640
919.05	14381
919.161	14541
919.272	14377
919.383	14408
919.494	14594
919.604	14781
919.715	14564
919.826	14454
919.936	14552
920.047	14518
920.157	14636
920.267	14792
920.378	14640
920.488	14488
920.598	14743
920.708	14842
920.818	14674
920.928	14674
921.038	14758
921.148	14708
921.258	14495
921.368	14442
921.477	14347
921.587	14301
921.697	14161
921.806	14362
921.916	14206
922.025	13982
922.134	13974
922.244	13925
922.353	13947
922.462	13776
922.571	13708
922.68	13620
922.789	13601
922.898	13658
923.007	13426
923.116	13544
923.224	13537
923.333	13487
923.442	13426
923.55	13312
923.659	13457
923.767	13487
923.876	13247
923.984	13445
924.092	13301
924.201	13331
924.309	13251
924.417	13221
924.525	13225
924.633	13206
924.741	14119
924.849	13069
924.956	13091
925.064	13015
925.172	12913
925.279	13088
925.387	13091
925.494	12966
925.602	13084
925.709	13000
925.816	12852
925.924	12916
926.031	13038
926.138	12970
926.245	13019
926.352	12875
926.459	12878
926.566	12985
926.673	12871
926.779	12741
926.886	12764
926.993	12540
927.099	12585
927.206	12521
927.312	12536
927.419	12563
927.525	12566
927.631	12631
927.737	12426
927.843	12376
927.95	12235
928.056	12388
928.162	12429
928.267	12372
928.373	12981
928.479	12445
928.585	12262
928.69	12342
928.796	12357
928.901	12216
929.007	12106
929.112	12243
929.218	12129
929.323	12079
929.428	12091
929.533	12213
929.638	11988
929.743	12098
929.848	12072
929.953	12041
930.058	11958
930.163	11748
930.267	11764
930.372	11958
930.477	11817
930.581	12038
930.685	11870
930.79	11581
930.894	11646
930.998	11623
931.103	11817
931.207	11524
931.311	11337
931.415	11315
931.519	11090
931.623	11037
