Data from test_V78500241_3504.txt Node
Date: Fri Mar 25 15:34:15 CST 2022
User: usil
Spectrometer: V785-0024
Trigger mode: 0
Integration Time (sec): 4.000000E-1
Scans to average: 1
Nonlinearity correction enabled: false
Boxcar width: 0
Storing dark spectrum: false
XAxis mode: Wavelengths
Number of Pixels in Spectrum: 1024
>>>>>Begin Spectral Data<<<<<
801.071	27317
801.214	27100
801.356	27039
801.499	26834
801.641	26800
801.783	26849
801.926	26853
802.068	26918
802.211	26872
802.353	26731
802.496	26526
802.638	26556
802.78	26423
802.923	26355
803.065	26366
803.208	26370
803.35	26469
803.492	26419
803.635	26556
803.777	26533
803.919	26575
804.061	27017
804.204	26590
804.346	26541
804.488	26613
804.63	26617
804.773	26560
804.915	26682
805.057	26845
805.199	26492
805.341	26754
805.483	26853
805.626	26670
805.768	26678
805.91	26716
806.052	26895
806.194	26720
806.336	26902
806.478	26724
806.62	26716
806.762	26796
806.904	27104
807.046	27214
807.188	27272
807.33	27127
807.472	27165
807.614	27116
807.756	27142
807.898	27039
808.04	26956
808.182	26895
808.324	27020
808.465	27051
808.607	27214
808.749	27294
808.891	27443
809.033	27538
809.174	27424
809.316	27367
809.458	27374
809.6	27245
809.741	27336
809.883	27492
810.025	27701
810.166	27751
810.308	27485
810.45	27618
810.591	27553
810.733	27485
810.875	27226
811.016	27218
811.158	27169
811.299	27454
811.441	27652
811.582	27443
811.724	27401
811.865	27370
812.007	27389
812.148	27340
812.29	27450
812.431	27458
812.573	27660
812.714	27800
812.855	27911
812.997	27869
813.138	28082
813.279	27903
813.421	27827
813.562	27709
813.703	27644
813.845	27606
813.986	27241
814.127	27150
814.268	26914
814.41	26925
814.551	27081
814.692	27131
814.833	26956
814.974	27070
815.115	27005
815.256	26788
815.397	26823
815.539	26781
815.68	26872
815.821	26651
815.962	26845
816.103	26697
816.244	26667
816.385	26583
816.526	26571
816.666	26438
816.807	26153
816.948	26450
817.089	26267
817.23	26278
817.371	26278
817.512	26324
817.653	26199
817.793	26229
817.934	26145
818.075	26282
818.216	26176
818.356	26229
818.497	26092
818.638	26081
818.778	26142
818.919	26031
819.06	26073
819.2	26176
819.341	26202
819.481	26214
819.622	26450
819.762	26518
819.903	26594
820.043	26423
820.184	26438
820.324	26336
820.465	26370
820.605	26499
820.746	26271
820.886	26153
821.026	26305
821.167	26339
821.307	26263
821.447	26294
821.588	26202
821.728	25986
821.868	25925
822.008	25708
822.149	25689
822.289	25791
822.429	25445
822.569	25362
822.709	25472
822.849	25209
822.99	25362
823.13	25126
823.27	25225
823.41	25088
823.55	24913
823.69	24996
823.83	25008
823.97	25046
824.11	24920
824.25	24837
824.389	24840
824.529	24958
824.669	24913
824.809	25126
824.949	25027
825.089	25023
825.228	24932
825.368	24707
825.508	24795
825.648	24833
825.787	24802
825.927	24916
826.067	24722
826.206	24745
826.346	24730
826.485	24760
826.625	24772
826.765	24962
826.904	24882
827.044	24467
827.183	24604
827.323	24486
827.462	24650
827.601	24494
827.741	24414
827.88	24540
828.02	24460
828.159	24509
828.298	24475
828.437	24601
828.577	24479
828.716	24513
828.855	24403
828.994	24239
829.134	24194
829.273	24277
829.412	24155
829.551	24220
829.69	24254
829.829	24433
829.968	24235
830.107	24300
830.246	24140
830.385	24068
830.524	24159
830.663	23980
830.802	23882
830.941	23863
831.08	23783
831.219	23866
831.357	23855
831.496	24110
831.635	23885
831.774	23676
831.913	23619
832.051	23646
832.19	23570
832.329	23566
832.467	23452
832.606	23414
832.744	23478
832.883	23505
833.022	23455
833.16	23619
833.299	23524
833.437	23528
833.576	23524
833.714	23535
833.852	23573
833.991	23501
834.129	23764
834.267	23718
834.406	23581
834.544	23604
834.682	23623
834.821	23566
834.959	23695
835.097	23471
835.235	23695
835.373	23596
835.511	23497
835.65	23372
835.788	23444
835.926	23239
836.064	23231
836.202	23258
836.34	23341
836.478	23589
836.615	23364
836.753	23433
836.891	23467
837.029	23360
837.167	23341
837.305	23299
837.443	23356
837.58	23242
837.718	23322
837.856	23261
837.993	23147
838.131	23292
838.269	23041
838.406	23117
838.544	23140
838.681	22957
838.819	23052
838.956	22691
839.094	22786
839.231	22805
839.369	22877
839.506	23280
839.643	23029
839.781	22778
839.918	22717
840.055	22771
840.193	22675
840.33	22660
840.467	22592
840.604	22755
840.742	22843
840.879	22546
841.016	22630
841.153	22569
841.29	22862
841.427	22645
841.564	22675
841.701	22497
841.838	22466
841.975	22580
842.112	22535
842.249	22424
842.385	22493
842.522	22615
842.659	22584
842.796	22424
842.933	22447
843.069	22409
843.206	22386
843.343	22542
843.479	22542
843.616	22485
843.752	22192
843.889	22360
844.025	22341
844.162	22287
844.298	22325
844.435	22226
844.571	22166
844.708	22405
844.844	22402
844.98	22474
845.117	22249
845.253	22211
845.389	22002
845.525	22032
845.661	22067
845.798	21876
845.934	22131
846.07	21831
846.206	21991
846.342	21991
846.478	21994
846.614	21724
846.75	21724
846.886	21648
847.022	21926
847.158	21743
847.294	21778
847.429	21743
847.565	21698
847.701	21880
847.837	21458
847.972	21466
848.108	21603
848.244	21511
848.379	21393
848.515	21188
848.65	21260
848.786	21256
848.921	21272
849.057	21336
849.192	21386
849.328	21408
849.463	21329
849.598	21214
849.734	21150
849.869	21207
850.004	21047
850.14	21009
850.275	21085
850.41	21070
850.545	20891
850.68	21047
850.815	21176
850.95	21074
851.085	21279
851.22	21176
851.355	21066
851.49	21032
851.625	21020
851.76	21058
851.895	20967
852.03	20883
852.165	21116
852.299	21039
852.434	21104
852.569	21005
852.703	20979
852.838	21104
852.973	21348
853.107	21043
853.242	21032
853.376	20880
853.511	20754
853.645	20861
853.78	20918
853.914	20807
854.048	20773
854.183	20845
854.317	20956
854.451	21070
854.585	20842
854.72	20899
854.854	21043
854.988	20921
855.122	20963
855.256	20777
855.39	20864
855.524	20956
855.658	20902
855.792	20933
855.926	20861
856.06	20979
856.194	20979
856.327	20876
856.461	20800
856.595	20887
856.729	20849
856.862	20952
856.996	21013
857.13	20914
857.263	20960
857.397	20925
857.53	20895
857.664	20876
857.797	20990
857.931	20975
858.064	20815
858.197	20963
858.331	20899
858.464	20739
858.597	20712
858.731	20899
858.864	20838
858.997	20960
859.13	20990
859.263	20887
859.396	20845
859.529	20651
859.662	20910
859.795	20815
859.928	20906
860.061	20956
860.194	21028
860.327	20982
860.46	20956
860.592	20956
860.725	21039
860.858	21100
860.99	20941
861.123	20823
861.256	20792
861.388	20868
861.521	21557
861.653	20705
861.786	20746
861.918	20674
862.05	20758
862.183	20674
862.315	20880
862.447	20990
862.58	20743
862.712	20587
862.844	20423
862.976	20762
863.108	20644
863.24	20921
863.372	20522
863.504	20625
863.636	20583
863.768	20625
863.9	20609
864.032	20552
864.164	20575
864.296	20579
864.428	20682
864.559	20663
864.691	20602
864.823	20549
864.954	20465
865.086	20552
865.217	20492
865.349	20336
865.48	20389
865.612	20393
865.743	20701
865.875	20613
866.006	20446
866.137	20457
866.269	20377
866.4	20488
866.531	20518
866.662	20381
866.793	20454
866.924	20461
867.055	20518
867.186	20488
867.317	20469
867.448	20244
867.579	20431
867.71	20328
867.841	20237
867.972	20328
868.103	20370
868.233	20396
868.364	20514
868.495	20492
868.625	20765
868.756	20819
868.886	20689
869.017	20640
869.147	20788
869.278	20891
869.408	20651
869.539	20670
869.669	20777
869.799	20792
869.929	20678
870.06	20750
870.19	21001
870.32	20971
870.45	21135
870.58	21123
870.71	21184
870.84	21336
870.97	21077
871.1	21017
871.23	21161
871.36	21252
871.489	21291
871.619	21317
871.749	21249
871.879	21298
872.008	21469
872.138	21237
872.267	21252
872.397	21176
872.526	21074
872.656	21127
872.785	21226
872.915	21245
873.044	21332
873.173	21336
873.303	21226
873.432	21370
873.561	21515
873.69	21211
873.819	21218
873.948	21252
874.077	21344
874.206	21252
874.335	21310
874.464	21405
874.593	21492
874.722	21355
874.851	21538
874.979	21538
875.108	21595
875.237	21488
875.365	21492
875.494	21507
875.623	21610
875.751	21545
875.88	21580
876.008	21610
876.136	21819
876.265	22059
876.393	22169
876.521	22013
876.65	21953
876.778	21941
876.906	21854
877.034	21865
877.162	21797
877.29	21876
877.418	21720
877.546	21899
877.674	21850
877.802	21922
877.93	21968
878.058	21755
878.185	21793
878.313	21915
878.441	21972
878.568	21694
878.696	21873
878.824	21922
878.951	22013
879.079	22048
879.206	22284
879.333	22078
879.461	22055
879.588	21953
879.715	21983
879.842	22272
879.97	21918
880.097	21671
880.224	21698
880.351	21781
880.478	21720
880.605	21747
880.732	21816
880.859	21941
880.986	21762
881.112	21747
881.239	21618
881.366	21454
881.493	21374
881.619	21233
881.746	21192
881.872	21195
881.999	21252
882.125	21279
882.252	21298
882.378	21317
882.505	21412
882.631	21230
882.757	21036
882.883	21013
883.01	21074
883.136	20796
883.262	20823
883.388	20872
883.514	21020
883.64	20998
883.766	21070
883.892	20708
884.018	20792
884.143	21089
884.269	21024
884.395	20842
884.52	20731
884.646	20674
884.772	20488
884.897	20556
885.023	20640
885.148	20689
885.274	20815
885.399	20727
885.524	20712
885.65	20674
885.775	20632
885.9	20651
886.025	20754
886.15	20632
886.275	20594
886.4	20461
886.525	20689
886.65	20640
886.775	20564
886.9	20743
887.025	20880
887.149	20606
887.274	20393
887.399	20480
887.523	20434
887.648	20446
887.773	20301
887.897	20434
888.021	20492
888.146	20336
888.27	20484
888.395	20549
888.519	20503
888.643	20442
888.767	20385
888.891	20328
889.015	20164
889.139	20259
889.263	20172
889.387	20263
889.511	20412
889.635	20389
889.759	20176
889.883	20183
890.006	20157
890.13	20256
890.254	20058
890.377	20149
890.501	20012
890.624	19951
890.748	19986
890.871	20008
890.995	19830
891.118	19712
891.241	19887
891.364	19753
891.488	19860
891.611	19757
891.734	19753
891.857	19803
891.98	19814
892.103	19963
892.226	19780
892.349	19765
892.471	19662
892.594	19807
892.717	19757
892.839	19674
892.962	19731
893.085	19776
893.207	19818
893.33	19609
893.452	19563
893.575	19647
893.697	19681
893.819	19841
893.941	19967
894.064	19845
894.186	19635
894.308	19712
894.43	19894
894.552	19803
894.674	19936
894.796	19693
894.918	19769
895.04	19700
895.161	19837
895.283	19647
895.405	19628
895.526	19746
895.648	19704
895.769	19696
895.891	19746
896.012	19753
896.134	19670
896.255	19742
896.376	19590
896.498	19757
896.619	19841
896.74	19746
896.861	19750
896.982	20062
897.103	20138
897.224	20024
897.345	19959
897.466	19925
897.587	19879
897.708	20149
897.828	20005
897.949	19871
898.07	19734
898.19	19864
898.311	19989
898.431	19856
898.552	19898
898.672	20077
898.792	20050
898.913	19947
899.033	19765
899.153	19780
899.273	19666
899.393	19799
899.513	19807
899.633	19578
899.753	19791
899.873	19616
899.993	19871
900.113	19628
900.232	19620
900.352	19510
900.472	19556
900.591	19430
900.711	19552
900.83	19396
900.95	19548
901.069	19548
901.189	19331
901.308	19198
901.427	19126
901.546	19129
901.665	19023
901.784	19057
901.904	18951
902.023	18924
902.141	18498
902.26	18620
902.379	18631
902.498	18540
902.617	18521
902.735	18616
902.854	18532
902.973	18471
903.091	18247
903.21	18190
903.328	18224
903.446	18098
903.565	18159
903.683	18155
903.801	18015
903.919	17992
904.038	18022
904.156	17790
904.274	17855
904.392	17878
904.51	17832
904.627	17855
904.745	17779
904.863	17866
904.981	17703
905.098	17554
905.216	17589
905.334	17570
905.451	17448
905.569	17490
905.686	17562
905.803	17452
905.921	17334
906.038	17406
906.155	17296
906.272	17102
906.389	17246
906.506	17052
906.623	17033
906.74	16984
906.857	16949
906.974	17041
907.091	17109
907.208	17204
907.324	17105
907.441	17025
907.557	16927
907.674	16736
907.79	16679
907.907	16824
908.023	16771
908.139	16790
908.256	16611
908.372	16656
908.488	16592
908.604	16523
908.72	16447
908.836	16516
908.952	16356
909.068	16531
909.184	16558
909.3	16493
909.415	16538
909.531	16455
909.647	16265
909.762	16204
909.878	16124
909.993	16204
910.108	16230
910.224	16135
910.339	16211
910.454	16071
910.57	16017
910.685	15918
910.8	16185
910.915	16112
911.03	15998
911.145	15808
911.259	15804
911.374	15800
911.489	15709
911.604	15705
911.718	15450
911.833	15576
911.947	15454
912.062	15466
912.176	15523
912.291	15614
912.405	15587
912.519	15850
912.633	15743
912.748	15492
912.862	15488
912.976	15367
913.09	15218
913.204	15268
913.318	15416
913.431	15340
913.545	15416
913.659	15450
913.772	15386
913.886	15245
914	15138
914.113	15329
914.226	15306
914.34	15291
914.453	14982
914.566	15188
914.68	15138
914.793	15074
914.906	14849
915.019	14754
915.132	14792
915.245	14826
915.358	14845
915.47	14792
915.583	14838
915.696	14883
915.809	14918
915.921	14857
916.034	14708
916.146	14746
916.259	14636
916.371	14746
916.483	14640
916.595	14579
916.708	14629
916.82	14648
916.932	14678
917.044	14598
917.156	14610
917.268	14465
917.38	14442
917.491	14476
917.603	14495
917.715	14461
917.826	14564
917.938	14450
918.049	14434
918.161	14450
918.272	14541
918.384	14560
918.495	14469
918.606	14317
918.717	14145
918.828	14278
918.939	14252
919.05	14088
919.161	14256
919.272	14016
919.383	14096
919.494	14263
919.604	14400
919.715	14305
919.826	14035
919.936	14214
920.047	14138
920.157	14153
920.267	14423
920.378	14252
920.488	14176
920.598	14408
920.708	14431
920.818	14298
920.928	14328
921.038	14476
921.148	14507
921.258	14119
921.368	13951
921.477	13940
921.587	13890
921.697	13818
921.806	13959
921.916	13860
922.025	13708
922.134	13597
922.244	13525
922.353	13559
922.462	13457
922.571	13434
922.68	13259
922.789	13225
922.898	13213
923.007	13099
923.116	13263
923.224	13168
923.333	13099
923.442	13118
923.55	13034
923.659	13095
923.767	13221
923.876	13076
923.984	13095
924.092	12932
924.201	12916
924.309	12905
924.417	12981
924.525	12890
924.633	12970
924.741	13670
924.849	12684
924.956	12791
925.064	12726
925.172	12608
925.279	12741
925.387	12688
925.494	12696
925.602	12745
925.709	12798
925.816	12673
925.924	12673
926.031	12681
926.138	12608
926.245	12642
926.352	12509
926.459	12646
926.566	12696
926.673	12525
926.779	12342
926.886	12330
926.993	12285
927.099	12243
927.206	12251
927.312	12163
927.419	12319
927.525	12258
927.631	12243
927.737	12136
927.843	12098
927.95	11988
928.056	12011
928.162	12125
928.267	12102
928.373	12612
928.479	12182
928.585	11870
928.69	11984
928.796	11988
928.901	11942
929.007	11809
929.112	11893
929.218	11832
929.323	11855
929.428	11783
929.533	11946
929.638	11771
929.743	11756
929.848	11859
929.953	11729
930.058	11642
930.163	11524
930.267	11562
930.372	11646
930.477	11436
930.581	11676
930.685	11562
930.79	11360
930.894	11360
930.998	11356
931.103	11532
931.207	11170
931.311	10999
931.415	10915
931.519	10816
931.623	10782
