Data from test_V78500241_2966.txt Node
Date: Fri Mar 25 15:30:30 CST 2022
User: usil
Spectrometer: V785-0024
Trigger mode: 0
Integration Time (sec): 4.000000E-1
Scans to average: 1
Nonlinearity correction enabled: false
Boxcar width: 0
Storing dark spectrum: false
XAxis mode: Wavelengths
Number of Pixels in Spectrum: 1024
>>>>>Begin Spectral Data<<<<<
801.071	26868
801.214	26773
801.356	26526
801.499	26495
801.641	26370
801.783	26229
801.926	26442
802.068	26366
802.211	26320
802.353	26237
802.496	26062
802.638	26016
802.78	26012
802.923	25868
803.065	25917
803.208	25932
803.35	26065
803.492	26122
803.635	26008
803.777	25966
803.919	25932
804.061	26674
804.204	26115
804.346	26008
804.488	25955
804.63	26088
804.773	25993
804.915	26149
805.057	26199
805.199	26210
805.341	26317
805.483	26145
805.626	26172
805.768	26134
805.91	26088
806.052	26313
806.194	26225
806.336	26366
806.478	26081
806.62	26290
806.762	26195
806.904	26313
807.046	26724
807.188	26594
807.33	26621
807.472	26792
807.614	26590
807.756	26571
807.898	26423
808.04	26389
808.182	26317
808.324	26461
808.465	26488
808.607	26716
808.749	26773
808.891	26899
809.033	26990
809.174	26899
809.316	26883
809.458	26807
809.6	26716
809.741	26902
809.883	26914
810.025	27142
810.166	27192
810.308	27051
810.45	27074
810.591	27013
810.733	26743
810.875	26697
811.016	26765
811.158	26731
811.299	26975
811.441	26933
811.582	26918
811.724	26918
811.865	26796
812.007	26754
812.148	26739
812.29	26811
812.431	26804
812.573	27032
812.714	27207
812.855	27279
812.997	27454
813.138	27473
813.279	27481
813.421	27260
813.562	27138
813.703	27100
813.845	26937
813.986	26686
814.127	26434
814.268	26461
814.41	26419
814.551	26374
814.692	26476
814.833	26362
814.974	26317
815.115	26374
815.256	26343
815.397	26400
815.539	26267
815.68	26218
815.821	26176
815.962	26275
816.103	26240
816.244	25986
816.385	25982
816.526	26050
816.666	25677
816.807	25666
816.948	25750
817.089	25696
817.23	25734
817.371	25594
817.512	25651
817.653	25685
817.793	25700
817.934	25662
818.075	25689
818.216	25670
818.356	25681
818.497	25495
818.638	25388
818.778	25537
818.919	25377
819.06	25548
819.2	25597
819.341	25719
819.481	25655
819.622	25852
819.762	26020
819.903	25890
820.043	25696
820.184	25894
820.324	25670
820.465	25753
820.605	25761
820.746	25761
820.886	25616
821.026	25814
821.167	25563
821.307	25799
821.447	25700
821.588	25575
821.728	25510
821.868	25335
822.008	25137
822.149	25065
822.289	25156
822.429	24924
822.569	24894
822.709	24943
822.849	24654
822.99	24574
823.13	24521
823.27	24475
823.41	24448
823.55	24296
823.69	24369
823.83	24429
823.97	24251
824.11	24239
824.25	24292
824.389	24163
824.529	24201
824.669	24258
824.809	24281
824.949	24342
825.089	24296
825.228	24285
825.368	24095
825.508	24087
825.648	24194
825.787	24201
825.927	24041
826.067	24072
826.206	24102
826.346	24144
826.485	24216
826.625	24079
826.765	24254
826.904	24068
827.044	23855
827.183	23950
827.323	23775
827.462	23916
827.601	23748
827.741	23794
827.88	23821
828.02	23642
828.159	23779
828.298	23775
828.437	23824
828.577	23779
828.716	23779
828.855	23733
828.994	23516
829.134	23535
829.273	23554
829.412	23395
829.551	23372
829.69	23501
829.829	23619
829.968	23551
830.107	23497
830.246	23581
830.385	23448
830.524	23440
830.663	23303
830.802	23155
830.941	23155
831.08	23102
831.219	23124
831.357	23155
831.496	23280
831.635	23105
831.774	22904
831.913	23052
832.051	22877
832.19	22946
832.329	22873
832.467	22744
832.606	22816
832.744	22759
832.883	22649
833.022	22767
833.16	22755
833.299	22881
833.437	22835
833.576	22968
833.714	22790
833.852	22873
833.991	22843
834.129	22961
834.267	22949
834.406	22759
834.544	22831
834.682	22782
834.821	22801
834.959	22824
835.097	22691
835.235	22976
835.373	22805
835.511	22805
835.65	22645
835.788	22698
835.926	22500
836.064	22443
836.202	22531
836.34	22740
836.478	22748
836.615	22599
836.753	22721
836.891	22805
837.029	22649
837.167	22660
837.305	22565
837.443	22634
837.58	22546
837.718	22599
837.856	22584
837.993	22428
838.131	22447
838.269	22421
838.406	22306
838.544	22348
838.681	22249
838.819	22200
838.956	22029
839.094	21956
839.231	21991
839.369	22257
839.506	22379
839.643	22246
839.781	22002
839.918	22025
840.055	22017
840.193	21956
840.33	21926
840.467	21842
840.604	21915
840.742	22413
840.879	21762
841.016	21850
841.153	21918
841.29	22055
841.427	21861
841.564	21991
841.701	21857
841.838	21797
841.975	21888
842.112	21873
842.249	21854
842.385	21629
842.522	22032
842.659	21686
842.796	21599
842.933	21755
843.069	21599
843.206	21648
843.343	21747
843.479	21633
843.616	21732
843.752	21336
843.889	21572
844.025	21591
844.162	21359
844.298	21637
844.435	21656
844.571	21348
844.708	21477
844.844	21660
844.98	21610
845.117	21534
845.253	21340
845.389	21256
845.525	21416
845.661	21306
845.798	21184
845.934	21272
846.07	21108
846.206	21321
846.342	21268
846.478	21127
846.614	21028
846.75	20864
846.886	20910
847.022	21089
847.158	21013
847.294	20921
847.429	21093
847.565	20906
847.701	21298
847.837	20765
847.972	20644
848.108	20792
848.244	20815
848.379	20526
848.515	20415
848.65	20583
848.786	20442
848.921	20583
849.057	20674
849.192	20514
849.328	20522
849.463	20518
849.598	20457
849.734	20396
849.869	20381
850.004	20282
850.14	20294
850.275	20248
850.41	20183
850.545	20286
850.68	20176
850.815	20324
850.95	20290
851.085	20339
851.22	20374
851.355	20301
851.49	20176
851.625	20240
851.76	20336
851.895	20263
852.03	20206
852.165	20317
852.299	20229
852.434	20488
852.569	20267
852.703	20263
852.838	20313
852.973	20301
853.107	20476
853.242	20164
853.376	20195
853.511	20001
853.645	20210
853.78	20187
853.914	20202
854.048	20107
854.183	20062
854.317	20187
854.451	20240
854.585	20271
854.72	20115
854.854	20153
854.988	19951
855.122	20214
855.256	20012
855.39	20221
855.524	20229
855.658	20290
855.792	20046
855.926	20134
856.06	20263
856.194	20134
856.327	20073
856.461	20027
856.595	20005
856.729	20058
856.862	20202
856.996	20176
857.13	20058
857.263	20256
857.397	20358
857.53	20103
857.664	20195
857.797	20145
857.931	20362
858.064	20115
858.197	20286
858.331	20134
858.464	20081
858.597	19997
858.731	20191
858.864	20035
858.997	20039
859.13	20115
859.263	20100
859.396	20180
859.529	20073
859.662	20096
859.795	20119
859.928	20115
860.061	20218
860.194	20400
860.327	20176
860.46	20149
860.592	20252
860.725	20172
860.858	20168
860.99	20122
861.123	20096
861.256	20050
861.388	20077
861.521	20686
861.653	19947
861.786	19837
861.918	19947
862.05	20020
862.183	20111
862.315	20058
862.447	20126
862.58	20008
862.712	19883
862.844	19818
862.976	19894
863.108	19841
863.24	20324
863.372	19719
863.504	19989
863.636	19860
863.768	19928
863.9	19902
864.032	19833
864.164	19765
864.296	19879
864.428	19982
864.559	19860
864.691	19993
864.823	19887
864.954	19928
865.086	19784
865.217	19799
865.349	19780
865.48	19734
865.612	19738
865.743	19902
865.875	19746
866.006	19628
866.137	19811
866.269	19776
866.4	19738
866.531	19772
866.662	19712
866.793	19742
866.924	19746
867.055	19753
867.186	19700
867.317	19594
867.448	19632
867.579	19655
867.71	19643
867.841	19655
867.972	19651
868.103	19651
868.233	19696
868.364	19750
868.495	19837
868.625	19940
868.756	20096
868.886	19917
869.017	20005
869.147	20005
869.278	20046
869.408	20027
869.539	19887
869.669	20050
869.799	20016
869.929	20218
870.06	20092
870.19	20298
870.32	20202
870.45	20343
870.58	20393
870.71	20461
870.84	20423
870.97	20332
871.1	20351
871.23	20587
871.36	20465
871.489	20473
871.619	20518
871.749	20568
871.879	20621
872.008	20739
872.138	20396
872.267	20568
872.397	20450
872.526	20351
872.656	20389
872.785	20362
872.915	20613
873.044	20617
873.173	20606
873.303	20648
873.432	20674
873.561	20720
873.69	20533
873.819	20644
873.948	20644
874.077	20507
874.206	20488
874.335	20674
874.464	20648
874.593	20788
874.722	20663
874.851	20811
874.979	20765
875.108	20883
875.237	20826
875.365	20708
875.494	20754
875.623	20876
875.751	20743
875.88	20739
876.008	21001
876.136	21085
876.265	21195
876.393	21302
876.521	21291
876.65	21348
876.778	21367
876.906	21203
877.034	21184
877.162	21146
877.29	21085
877.418	21203
877.546	21275
877.674	21241
877.802	21146
877.93	21222
878.058	21131
878.185	20990
878.313	21024
878.441	21252
878.568	21055
878.696	21005
878.824	21119
878.951	21325
879.079	21355
879.206	21469
879.333	21389
879.461	21169
879.588	21306
879.715	21355
879.842	21424
879.97	21241
880.097	21028
880.224	21009
880.351	21131
880.478	20990
880.605	20971
880.732	21009
880.859	21226
880.986	21043
881.112	21020
881.239	20929
881.366	20777
881.493	20587
881.619	20564
881.746	20590
881.872	20632
881.999	20621
882.125	20541
882.252	20552
882.378	20735
882.505	20674
882.631	20434
882.757	20336
882.883	20366
883.01	20366
883.136	20286
883.262	20142
883.388	20096
883.514	20259
883.64	20343
883.766	20187
883.892	20050
884.018	20145
884.143	20199
884.269	20393
884.395	20122
884.52	20043
884.646	20005
884.772	19951
884.897	19879
885.023	19902
885.148	20081
885.274	20043
885.399	19963
885.524	19951
885.65	19967
885.775	20035
885.9	19902
886.025	19963
886.15	19986
886.275	19898
886.4	19776
886.525	19887
886.65	19845
886.775	19898
886.9	20122
887.025	20081
887.149	19967
887.274	19685
887.399	19772
887.523	19689
887.648	19799
887.773	19620
887.897	19784
888.021	19807
888.146	19658
888.27	19757
888.395	19830
888.519	19795
888.643	19765
888.767	19814
888.891	19681
889.015	19480
889.139	19529
889.263	19609
889.387	19712
889.511	19776
889.635	19712
889.759	19464
889.883	19483
890.006	19613
890.13	19689
890.254	19396
890.377	19411
890.501	19438
890.624	19346
890.748	19381
890.871	19141
890.995	19080
891.118	19088
891.241	19266
891.364	19084
891.488	19232
891.611	19213
891.734	19156
891.857	19145
891.98	19247
892.103	19133
892.226	19156
892.349	19118
892.471	19023
892.594	19080
892.717	19122
892.839	18981
892.962	19164
893.085	19114
893.207	18977
893.33	18947
893.452	19012
893.575	19091
893.697	19015
893.819	19187
893.941	19179
894.064	19209
894.186	19069
894.308	18970
894.43	19148
894.552	19278
894.674	19175
894.796	18981
894.918	19019
895.04	18932
895.161	19148
895.283	19038
895.405	18920
895.526	19072
895.648	18943
895.769	19027
895.891	19129
896.012	19126
896.134	19031
896.255	19103
896.376	19091
896.498	19031
896.619	19061
896.74	18977
896.861	19122
896.982	19388
897.103	19499
897.224	19285
897.345	19285
897.466	19377
897.587	19381
897.708	19499
897.828	19327
897.949	19266
898.07	19175
898.19	19270
898.311	19346
898.431	19354
898.552	19369
898.672	19339
898.792	19384
898.913	19327
899.033	19209
899.153	19107
899.273	19118
899.393	19099
899.513	19080
899.633	19110
899.753	19137
899.873	19206
899.993	19137
900.113	19084
900.232	19046
900.352	19118
900.472	18932
900.591	19000
900.711	18840
900.83	18802
900.95	18890
901.069	19000
901.189	18779
901.308	18616
901.427	18517
901.546	18479
901.665	18498
901.784	18494
901.904	18365
902.023	18304
902.141	18098
902.26	18095
902.379	18125
902.498	17950
902.617	18007
902.735	18064
902.854	18076
902.973	17874
903.091	17756
903.21	17828
903.328	17764
903.446	17570
903.565	17547
903.683	17562
903.801	17391
903.919	17535
904.038	17452
904.156	17261
904.274	17353
904.392	17258
904.51	17246
904.627	17360
904.745	17349
904.863	17345
904.981	17071
905.098	16946
905.216	17037
905.334	17025
905.451	16877
905.569	17006
905.686	16972
905.803	16908
905.921	16782
906.038	16919
906.155	16759
906.272	16615
906.389	16645
906.506	16447
906.623	16470
906.74	16459
906.857	16371
906.974	16436
907.091	16497
907.208	16691
907.324	16504
907.441	16481
907.557	16352
907.674	16253
907.79	16120
907.907	16230
908.023	16204
908.139	16162
908.256	16112
908.372	16093
908.488	16162
908.604	16006
908.72	15903
908.836	15975
908.952	15911
909.068	16048
909.184	15994
909.3	16025
909.415	16002
909.531	15884
909.647	15747
909.762	15641
909.878	15614
909.993	15564
910.108	15614
910.224	15561
910.339	15618
910.454	15564
910.57	15424
910.685	15458
910.8	15614
910.915	15542
911.03	15447
911.145	15279
911.259	15245
911.374	15306
911.489	15241
911.604	15043
911.718	15009
911.833	15032
911.947	14975
912.062	14933
912.176	15093
912.291	15116
912.405	15070
912.519	15195
912.633	15256
912.748	15043
912.862	15005
912.976	14910
913.09	14792
913.204	14830
913.318	14823
913.431	14918
913.545	14937
913.659	14910
913.772	14701
913.886	14693
914	14727
914.113	14663
914.226	14651
914.34	14708
914.453	14507
914.566	14781
914.68	14587
914.793	14533
914.906	14324
915.019	14263
915.132	14172
915.245	14248
915.358	14320
915.47	14278
915.583	14259
915.696	14396
915.809	14434
915.921	14419
916.034	14221
916.146	14168
916.259	14172
916.371	14225
916.483	14385
916.595	14096
916.708	14096
916.82	14218
916.932	13978
917.044	14058
917.156	14202
917.268	13883
917.38	14062
917.491	14103
917.603	14020
917.715	13932
917.826	14077
917.938	13978
918.049	13871
918.161	14001
918.272	14092
918.384	14039
918.495	13940
918.606	13822
918.717	13731
918.828	13833
918.939	13826
919.05	13677
919.161	13864
919.272	13578
919.383	13647
919.494	13841
919.604	13898
919.715	13780
919.826	13674
919.936	13727
920.047	13868
920.157	13818
920.267	13944
920.378	13723
920.488	13689
920.598	13997
920.708	14073
920.818	13902
920.928	13898
921.038	13959
921.148	13974
921.258	13837
921.368	13681
921.477	13525
921.587	13571
921.697	13403
921.806	13525
921.916	13403
922.025	13236
922.134	13251
922.244	13236
922.353	13190
922.462	13103
922.571	13114
922.68	12901
922.789	12810
922.898	12840
923.007	12776
923.116	12924
923.224	12878
923.333	12802
923.442	12726
923.55	12654
923.659	12719
923.767	12726
923.876	12601
923.984	12833
924.092	12490
924.201	12563
924.309	12662
924.417	12544
924.525	12547
924.633	12574
924.741	13312
924.849	12296
924.956	12498
925.064	12372
925.172	12102
925.279	12357
925.387	12281
925.494	12277
925.602	12456
925.709	12391
925.816	12213
925.924	12155
926.031	12376
926.138	12213
926.245	12327
926.352	12186
926.459	12319
926.566	12247
926.673	12175
926.779	12034
926.886	12034
926.993	11889
927.099	11901
927.206	11843
927.312	11828
927.419	11878
927.525	11893
927.631	11946
927.737	11714
927.843	11767
927.95	11581
928.056	11703
928.162	11748
928.267	11748
928.373	12296
928.479	11786
928.585	11562
928.69	11649
928.796	11676
928.901	11661
929.007	11383
929.112	11611
929.218	11551
929.323	11474
929.428	11512
929.533	11573
929.638	11455
929.743	11402
929.848	11493
929.953	11463
930.058	11379
930.163	11140
930.267	11166
930.372	11322
930.477	11048
930.581	11360
930.685	11159
930.79	10995
930.894	11006
930.998	11022
931.103	11193
931.207	10744
931.311	10740
931.415	10675
931.519	10443
931.623	10531
