Data from test_V78500241_1298.txt Node
Date: Fri Mar 25 15:18:53 CST 2022
User: usil
Spectrometer: V785-0024
Trigger mode: 0
Integration Time (sec): 4.000000E-1
Scans to average: 1
Nonlinearity correction enabled: false
Boxcar width: 0
Storing dark spectrum: false
XAxis mode: Wavelengths
Number of Pixels in Spectrum: 1024
>>>>>Begin Spectral Data<<<<<
801.071	28154
801.214	28074
801.356	27937
801.499	27857
801.641	27728
801.783	27724
801.926	27755
802.068	27778
802.211	27679
802.353	27545
802.496	27511
802.638	27325
802.78	27363
802.923	27203
803.065	27252
803.208	27329
803.35	27481
803.492	27447
803.635	27450
803.777	27408
803.919	27660
804.061	27880
804.204	27797
804.346	27591
804.488	27576
804.63	27462
804.773	27526
804.915	27610
805.057	27694
805.199	27450
805.341	27667
805.483	27660
805.626	27736
805.768	27671
805.91	27629
806.052	27781
806.194	27576
806.336	27968
806.478	27599
806.62	27785
806.762	27793
806.904	27953
807.046	28234
807.188	28090
807.33	28032
807.472	28105
807.614	28021
807.756	28025
807.898	27972
808.04	27838
808.182	28059
808.324	28002
808.465	28230
808.607	28238
808.749	28268
808.891	28440
809.033	28474
809.174	28478
809.316	28207
809.458	28398
809.6	28261
809.741	28344
809.883	28481
810.025	28778
810.166	28740
810.308	28656
810.45	28573
810.591	28599
810.733	28375
810.875	28474
811.016	28223
811.158	28284
811.299	28455
811.441	28375
811.582	28493
811.724	28322
811.865	28451
812.007	28371
812.148	28200
812.29	28409
812.431	28569
812.573	28645
812.714	28774
812.855	28854
812.997	28995
813.138	29223
813.279	28991
813.421	28949
813.562	28915
813.703	28740
813.845	28569
813.986	28356
814.127	28325
814.268	28051
814.41	28131
814.551	28078
814.692	28067
814.833	28150
814.974	28051
815.115	28105
815.256	27941
815.397	27804
815.539	27873
815.68	27880
815.821	27728
815.962	27949
816.103	27987
816.244	27819
816.385	27656
816.526	27701
816.666	27450
816.807	27321
816.948	27595
817.089	27466
817.23	27378
817.371	27382
817.512	27389
817.653	27310
817.793	27317
817.934	27329
818.075	27393
818.216	27443
818.356	27405
818.497	27135
818.638	27017
818.778	27157
818.919	27077
819.06	27165
819.2	27218
819.341	27389
819.481	27386
819.622	27504
819.762	27797
819.903	27717
820.043	27580
820.184	27481
820.324	27492
820.465	27496
820.605	27564
820.746	27561
820.886	27519
821.026	27416
821.167	27420
821.307	27507
821.447	27405
821.588	27321
821.728	27093
821.868	27005
822.008	26830
822.149	26895
822.289	26872
822.429	26465
822.569	26438
822.709	26347
822.849	26404
822.99	26290
823.13	26298
823.27	26324
823.41	26282
823.55	26039
823.69	26168
823.83	26107
823.97	26202
824.11	25944
824.25	26062
824.389	25925
824.529	26092
824.669	25997
824.809	26164
824.949	26161
825.089	26145
825.228	25921
825.368	25925
825.508	25837
825.648	25841
825.787	25966
825.927	25982
826.067	25822
826.206	25849
826.346	25784
826.485	25959
826.625	25890
826.765	26008
826.904	25974
827.044	25635
827.183	25620
827.323	25658
827.462	25655
827.601	25628
827.741	25613
827.88	25605
828.02	25350
828.159	25571
828.298	25620
828.437	25601
828.577	25495
828.716	25540
828.855	25499
828.994	25194
829.134	25289
829.273	25217
829.412	25350
829.551	25362
829.69	25285
829.829	25335
829.968	25350
830.107	25327
830.246	25217
830.385	25133
830.524	25137
830.663	25061
830.802	25038
830.941	24989
831.08	24738
831.219	25004
831.357	24878
831.496	25091
831.635	25012
831.774	24833
831.913	24802
832.051	24772
832.19	24639
832.329	24791
832.467	24578
832.606	24681
832.744	24574
832.883	24509
833.022	24597
833.16	24601
833.299	24593
833.437	24540
833.576	24578
833.714	24654
833.852	24772
833.991	24696
834.129	24684
834.267	24722
834.406	24684
834.544	24612
834.682	24604
834.821	24574
834.959	24760
835.097	24646
835.235	24760
835.373	24650
835.511	24639
835.65	24589
835.788	24494
835.926	24338
836.064	24239
836.202	24289
836.34	24433
836.478	24517
836.615	24502
836.753	24456
836.891	24597
837.029	24475
837.167	24346
837.305	24353
837.443	24330
837.58	24213
837.718	24350
837.856	24315
837.993	24315
838.131	24319
838.269	24304
838.406	24281
838.544	24220
838.681	24003
838.819	23984
838.956	23790
839.094	23794
839.231	23893
839.369	23897
839.506	24228
839.643	23969
839.781	23745
839.918	23649
840.055	23832
840.193	23756
840.33	23703
840.467	23714
840.604	23668
840.742	23920
840.879	23570
841.016	23653
841.153	23703
841.29	23764
841.427	23672
841.564	23790
841.701	23619
841.838	23554
841.975	23539
842.112	23634
842.249	23539
842.385	23398
842.522	23638
842.659	23554
842.796	23341
842.933	23452
843.069	23368
843.206	23383
843.343	23425
843.479	23368
843.616	23372
843.752	23280
843.889	23307
844.025	23490
844.162	23254
844.298	23364
844.435	23299
844.571	23155
844.708	23159
844.844	23334
844.98	23425
845.117	23254
845.253	23250
845.389	23041
845.525	23121
845.661	23006
845.798	22995
845.934	23022
846.07	22980
846.206	22930
846.342	23086
846.478	22828
846.614	22892
846.75	22733
846.886	22790
847.022	22778
847.158	22740
847.294	22634
847.429	22706
847.565	22660
847.701	22858
847.837	22421
847.972	22398
848.108	22554
848.244	22466
848.379	22310
848.515	22322
848.65	22242
848.786	22375
848.921	22303
849.057	22504
849.192	22314
849.328	22299
849.463	22226
849.598	22219
849.734	22101
849.869	22082
850.004	21994
850.14	22112
850.275	22021
850.41	21972
850.545	21949
850.68	21873
850.815	22013
850.95	21987
851.085	22215
851.22	22116
851.355	22036
851.49	22032
851.625	21960
851.76	21956
851.895	21850
852.03	21835
852.165	21987
852.299	22086
852.434	21994
852.569	22070
852.703	21983
852.838	22032
852.973	22051
853.107	22238
853.242	21991
853.376	21903
853.511	21774
853.645	21732
853.78	22048
853.914	21835
854.048	21781
854.183	21743
854.317	21945
854.451	22055
854.585	21823
854.72	21808
854.854	21835
854.988	21835
855.122	21873
855.256	21751
855.39	21778
855.524	21869
855.658	21911
855.792	21800
855.926	21797
856.06	21842
856.194	21956
856.327	21774
856.461	21785
856.595	21812
856.729	21812
856.862	21869
856.996	21816
857.13	21884
857.263	22029
857.397	21937
857.53	21884
857.664	21861
857.797	21857
857.931	21964
858.064	21945
858.197	21907
858.331	21827
858.464	21812
858.597	21663
858.731	21743
858.864	21823
858.997	21774
859.13	21861
859.263	21842
859.396	21911
859.529	21831
859.662	21739
859.795	21785
859.928	21842
860.061	21812
860.194	21983
860.327	21854
860.46	21865
860.592	21888
860.725	22013
860.858	21854
860.99	21819
861.123	21663
861.256	21819
861.388	21918
861.521	22386
861.653	21797
861.786	21675
861.918	21614
862.05	21686
862.183	21789
862.315	21835
862.447	21755
862.58	21743
862.712	21656
862.844	21481
862.976	21759
863.108	21641
863.24	21930
863.372	21351
863.504	21523
863.636	21408
863.768	21713
863.9	21564
864.032	21526
864.164	21481
864.296	21542
864.428	21633
864.559	21618
864.691	21568
864.823	21526
864.954	21507
865.086	21477
865.217	21504
865.349	21439
865.48	21340
865.612	21310
865.743	21507
865.875	21519
866.006	21439
866.137	21458
866.269	21454
866.4	21534
866.531	21401
866.662	21310
866.793	21378
866.924	21393
867.055	21473
867.186	21291
867.317	21294
867.448	21336
867.579	21260
867.71	21283
867.841	21176
867.972	21252
868.103	21321
868.233	21310
868.364	21310
868.495	21420
868.625	21424
868.756	21625
868.886	21477
869.017	21583
869.147	21759
869.278	21671
869.408	21595
869.539	21641
869.669	21671
869.799	21603
869.929	21842
870.06	21663
870.19	21850
870.32	21800
870.45	22070
870.58	21991
870.71	22055
870.84	21945
870.97	22010
871.1	21991
871.23	22101
871.36	22143
871.489	22162
871.619	22215
871.749	22234
871.879	22226
872.008	22234
872.138	22059
872.267	22242
872.397	22025
872.526	21991
872.656	21930
872.785	22010
872.915	22074
873.044	22375
873.173	22173
873.303	22150
873.432	22287
873.561	22238
873.69	22386
873.819	22177
873.948	22303
874.077	22207
874.206	22112
874.335	22204
874.464	22394
874.593	22466
874.722	22295
874.851	22360
874.979	22519
875.108	22474
875.237	22322
875.365	22230
875.494	22348
875.623	22478
875.751	22337
875.88	22500
876.008	22557
876.136	22641
876.265	22668
876.393	23014
876.521	22934
876.65	22946
876.778	22927
876.906	22778
877.034	22721
877.162	22885
877.29	22603
877.418	22793
877.546	22691
877.674	22771
877.802	22736
877.93	22733
878.058	22626
878.185	22584
878.313	22672
878.441	22717
878.568	22569
878.696	22721
878.824	22744
878.951	22767
879.079	22953
879.206	23037
879.333	22908
879.461	22850
879.588	22801
879.715	22927
879.842	23003
879.97	22873
880.097	22523
880.224	22527
880.351	22474
880.478	22618
880.605	22535
880.732	22592
880.859	22752
880.986	22504
881.112	22554
881.239	22485
881.366	22382
881.493	22177
881.619	22215
881.746	22295
881.872	22143
881.999	22188
882.125	22097
882.252	22200
882.378	22139
882.505	22200
882.631	21934
882.757	21812
882.883	22109
883.01	21964
883.136	21778
883.262	21667
883.388	21663
883.514	21827
883.64	21842
883.766	21804
883.892	21625
884.018	21606
884.143	21899
884.269	21838
884.395	21534
884.52	21557
884.646	21538
884.772	21500
884.897	21515
885.023	21466
885.148	21644
885.274	21595
885.399	21553
885.524	21485
885.65	21405
885.775	21412
885.9	21374
886.025	21583
886.15	21572
886.275	21420
886.4	21359
886.525	21416
886.65	21351
886.775	21340
886.9	21515
887.025	21591
887.149	21386
887.274	21340
887.399	21389
887.523	21256
887.648	21310
887.773	21325
887.897	21203
888.021	21294
888.146	21165
888.27	21264
888.395	21351
888.519	21287
888.643	21298
888.767	21317
888.891	21100
889.015	21028
889.139	20956
889.263	21108
889.387	21165
889.511	21127
889.635	21192
889.759	20982
889.883	20899
890.006	20963
890.13	21127
890.254	20861
890.377	20979
890.501	20792
890.624	20785
890.748	20857
890.871	20773
890.995	20594
891.118	20530
891.241	20476
891.364	20617
891.488	20712
891.611	20606
891.734	20746
891.857	20682
891.98	20606
892.103	20537
892.226	20545
892.349	20503
892.471	20473
892.594	20579
892.717	20568
892.839	20549
892.962	20507
893.085	20564
893.207	20465
893.33	20351
893.452	20465
893.575	20511
893.697	20423
893.819	20541
893.941	20678
894.064	20632
894.186	20396
894.308	20427
894.43	20492
894.552	20667
894.674	20431
894.796	20290
894.918	20473
895.04	20476
895.161	20503
895.283	20568
895.405	20450
895.526	20412
895.648	20484
895.769	20465
895.891	20522
896.012	20552
896.134	20609
896.255	20583
896.376	20419
896.498	20530
896.619	20541
896.74	20465
896.861	20499
896.982	20769
897.103	20902
897.224	20785
897.345	20739
897.466	20590
897.587	20686
897.708	20895
897.828	20720
897.949	20632
898.07	20431
898.19	20655
898.311	20800
898.431	20537
898.552	20697
898.672	20781
898.792	20621
898.913	20667
899.033	20636
899.153	20598
899.273	20419
899.393	20541
899.513	20495
899.633	20434
899.753	20454
899.873	20336
899.993	20381
900.113	20389
900.232	20419
900.352	20355
900.472	20145
900.591	20084
900.711	20332
900.83	20206
900.95	20377
901.069	20271
901.189	20069
901.308	19742
901.427	19799
901.546	19811
901.665	19746
901.784	19753
901.904	19632
902.023	19495
902.141	19289
902.26	19369
902.379	19426
902.498	19278
902.617	19160
902.735	19312
902.854	19198
902.973	19293
903.091	18993
903.21	18916
903.328	18897
903.446	18848
903.565	18738
903.683	18684
903.801	18688
903.919	18795
904.038	18654
904.156	18540
904.274	18623
904.392	18445
904.51	18471
904.627	18532
904.745	18604
904.863	18547
904.981	18395
905.098	18273
905.216	18228
905.334	18216
905.451	18262
905.569	18190
905.686	18140
905.803	18235
905.921	17973
906.038	18182
906.155	18007
906.272	17882
906.389	17885
906.506	17741
906.623	17710
906.74	17722
906.857	17676
906.974	17581
907.091	17779
907.208	17813
907.324	17714
907.441	17539
907.557	17455
907.674	17459
907.79	17341
907.907	17391
908.023	17459
908.139	17383
908.256	17379
908.372	17254
908.488	17254
908.604	17102
908.72	17014
908.836	17105
908.952	17162
909.068	17174
909.184	17170
909.3	17197
909.415	17170
909.531	17132
909.647	16965
909.762	16831
909.878	16797
909.993	16850
910.108	16771
910.224	16713
910.339	16850
910.454	16637
910.57	16656
910.685	16717
910.8	16862
910.915	16778
911.03	16664
911.145	16470
911.259	16474
911.374	16561
911.489	16421
911.604	16516
911.718	16200
911.833	16139
911.947	16044
912.062	15941
912.176	16131
912.291	16169
912.405	16246
912.519	16386
912.633	16478
912.748	16299
912.862	16192
912.976	16044
913.09	15819
913.204	15994
913.318	15998
913.431	16135
913.545	16112
913.659	16112
913.772	15915
913.886	15831
914	15808
914.113	15857
914.226	15903
914.34	15766
914.453	15663
914.566	15903
914.68	15629
914.793	15637
914.906	15397
915.019	15420
915.132	15374
915.245	15435
915.358	15454
915.47	15447
915.583	15488
915.696	15408
915.809	15492
915.921	15526
916.034	15222
916.146	15294
916.259	15192
916.371	15488
916.483	15351
916.595	15272
916.708	15256
916.82	15180
916.932	15169
917.044	15131
917.156	15142
917.268	15024
917.38	15047
917.491	14971
917.603	15055
917.715	15131
917.826	15169
917.938	15055
918.049	14845
918.161	15070
918.272	15074
918.384	15188
918.495	15005
918.606	14883
918.717	14785
918.828	14845
918.939	14785
919.05	14785
919.161	14785
919.272	14442
919.383	14598
919.494	14796
919.604	15047
919.715	14792
919.826	14686
919.936	14636
920.047	14910
920.157	14891
920.267	14929
920.378	14727
920.488	14735
920.598	15005
920.708	14952
920.818	14883
920.928	14899
921.038	14918
921.148	14960
921.258	14731
921.368	14579
921.477	14526
921.587	14495
921.697	14442
921.806	14454
921.916	14351
922.025	14195
922.134	14111
922.244	14024
922.353	14244
922.462	13932
922.571	14031
922.68	13757
922.789	13757
922.898	13742
923.007	13757
923.116	13830
923.224	13658
923.333	13753
923.442	13681
923.55	13575
923.659	13696
923.767	13696
923.876	13491
923.984	13563
924.092	13464
924.201	13582
924.309	13552
924.417	13514
924.525	13384
924.633	13449
924.741	14305
924.849	13289
924.956	13354
925.064	13259
925.172	13076
925.279	13282
925.387	13103
925.494	13156
925.602	13266
925.709	13232
925.816	13019
925.924	13114
926.031	13164
926.138	13122
926.245	13145
926.352	12932
926.459	13122
926.566	13183
926.673	13110
926.779	12947
926.886	12913
926.993	12719
927.099	12757
927.206	12669
927.312	12662
927.419	12707
927.525	12639
927.631	12734
927.737	12582
927.843	12540
927.95	12407
928.056	12509
928.162	12566
928.267	12620
928.373	13175
928.479	12551
928.585	12289
928.69	12547
928.796	12445
928.901	12342
929.007	12232
929.112	12407
929.218	12365
929.323	12235
929.428	12235
929.533	12330
929.638	12125
929.743	12239
929.848	12266
929.953	12251
930.058	12095
930.163	11920
930.267	12034
930.372	12167
930.477	11931
930.581	12175
930.685	12011
930.79	11889
930.894	11931
930.998	11828
931.103	11897
931.207	11505
931.311	11429
931.415	11436
931.519	11220
931.623	11239
