Data from test_V78500241_1630.txt Node
Date: Fri Mar 25 15:21:12 CST 2022
User: usil
Spectrometer: V785-0024
Trigger mode: 0
Integration Time (sec): 4.000000E-1
Scans to average: 1
Nonlinearity correction enabled: false
Boxcar width: 0
Storing dark spectrum: false
XAxis mode: Wavelengths
Number of Pixels in Spectrum: 1024
>>>>>Begin Spectral Data<<<<<
801.071	27914
801.214	27838
801.356	27762
801.499	27606
801.641	27534
801.783	27519
801.926	27500
802.068	27504
802.211	27447
802.353	27199
802.496	27116
802.638	27017
802.78	27051
802.923	27077
803.065	26952
803.208	27108
803.35	27135
803.492	27096
803.635	27252
803.777	27108
803.919	27241
804.061	27443
804.204	27260
804.346	27237
804.488	27256
804.63	27233
804.773	27203
804.915	27237
805.057	27386
805.199	27389
805.341	27447
805.483	27462
805.626	27370
805.768	27287
805.91	27340
806.052	27351
806.194	27325
806.336	27701
806.478	27317
806.62	27431
806.762	27408
806.904	27564
807.046	27945
807.188	27747
807.33	27793
807.472	27861
807.614	27679
807.756	27732
807.898	27637
808.04	27633
808.182	27614
808.324	27781
808.465	27759
808.607	28002
808.749	28036
808.891	28059
809.033	28169
809.174	28105
809.316	28154
809.458	28032
809.6	27991
809.741	28063
809.883	28242
810.025	28432
810.166	28401
810.308	28325
810.45	28333
810.591	28238
810.733	28025
810.875	27994
811.016	27941
811.158	27873
811.299	28070
811.441	28223
811.582	28124
811.724	28196
811.865	28010
812.007	27975
812.148	28006
812.29	28154
812.431	28169
812.573	28337
812.714	28417
812.855	28561
812.997	28725
813.138	28668
813.279	28523
813.421	28546
813.562	28531
813.703	28379
813.845	28284
813.986	28139
814.127	27869
814.268	27816
814.41	27793
814.551	27789
814.692	27895
814.833	27660
814.974	27747
815.115	27781
815.256	27614
815.397	27736
815.539	27603
815.68	27412
815.821	27496
815.962	27424
816.103	27561
816.244	27298
816.385	27237
816.526	27291
816.666	27199
816.807	26956
816.948	27070
817.089	27127
817.23	27017
817.371	27066
817.512	26861
817.653	27043
817.793	26979
817.934	26960
818.075	26998
818.216	26956
818.356	27093
818.497	26899
818.638	26674
818.778	26701
818.919	26686
819.06	26849
819.2	26838
819.341	27039
819.481	27039
819.622	27176
819.762	27245
819.903	27294
820.043	27241
820.184	27142
820.324	27150
820.465	27241
820.605	27146
820.746	27104
820.886	26906
821.026	27180
821.167	26975
821.307	27176
821.447	27032
821.588	26906
821.728	26796
821.868	26644
822.008	26484
822.149	26533
822.289	26377
822.429	26122
822.569	26233
822.709	26092
822.849	25986
822.99	26081
823.13	25925
823.27	25978
823.41	25734
823.55	25769
823.69	25757
823.83	25890
823.97	25830
824.11	25529
824.25	25533
824.389	25559
824.529	25769
824.669	25620
824.809	25761
824.949	25776
825.089	25742
825.228	25616
825.368	25468
825.508	25529
825.648	25514
825.787	25487
825.927	25468
826.067	25457
826.206	25445
826.346	25544
826.485	25491
826.625	25438
826.765	25613
826.904	25597
827.044	25301
827.183	25228
827.323	25069
827.462	25304
827.601	25259
827.741	25145
827.88	25198
828.02	25160
828.159	25289
828.298	25232
828.437	25308
828.577	25164
828.716	25255
828.855	25019
828.994	24833
829.134	24901
829.273	24905
829.412	24905
829.551	24814
829.69	24992
829.829	24932
829.968	24935
830.107	24973
830.246	24901
830.385	24954
830.524	24928
830.663	24703
830.802	24635
830.941	24521
831.08	24574
831.219	24566
831.357	24623
831.496	24757
831.635	24460
831.774	24395
831.913	24460
832.051	24323
832.19	24251
832.329	24262
832.467	24270
832.606	24159
832.744	24083
832.883	24159
833.022	24201
833.16	24281
833.299	24178
833.437	24277
833.576	24216
833.714	24190
833.852	24350
833.991	24346
834.129	24350
834.267	24289
834.406	24239
834.544	24372
834.682	24220
834.821	24201
834.959	24490
835.097	24258
835.235	24304
835.373	24300
835.511	24323
835.65	24178
835.788	24194
835.926	23999
836.064	23935
836.202	23836
836.34	24072
836.478	24213
836.615	24068
836.753	24152
836.891	24178
837.029	24102
837.167	24083
837.305	23973
837.443	23931
837.58	23790
837.718	24064
837.856	24011
837.993	23851
838.131	23882
838.269	23824
838.406	23889
838.544	23840
838.681	23608
838.819	23623
838.956	23486
839.094	23410
839.231	23505
839.369	23573
839.506	23817
839.643	23608
839.781	23455
839.918	23322
840.055	23364
840.193	23383
840.33	23315
840.467	23181
840.604	23368
840.742	23608
840.879	23159
841.016	23189
841.153	23334
841.29	23402
841.427	23258
841.564	23364
841.701	23337
841.838	23353
841.975	23071
842.112	23132
842.249	23151
842.385	23044
842.522	23376
842.659	23292
842.796	23071
842.933	23067
843.069	22980
843.206	23041
843.343	23033
843.479	23117
843.616	23075
843.752	22858
843.889	22942
844.025	22961
844.162	22961
844.298	22999
844.435	22831
844.571	22843
844.708	22911
844.844	22968
844.98	22896
845.117	22942
845.253	22968
845.389	22599
845.525	22755
845.661	22850
845.798	22679
845.934	22675
846.07	22679
846.206	22645
846.342	22607
846.478	22645
846.614	22443
846.75	22234
846.886	22295
847.022	22398
847.158	22337
847.294	22440
847.429	22314
847.565	22432
847.701	22622
847.837	22063
847.972	21941
848.108	22101
848.244	22074
848.379	22044
848.515	21972
848.65	21880
848.786	22002
848.921	21873
849.057	22048
849.192	22051
849.328	22002
849.463	21861
849.598	21804
849.734	21884
849.869	21732
850.004	21705
850.14	21713
850.275	21717
850.41	21675
850.545	21568
850.68	21625
850.815	21743
850.95	21534
851.085	21884
851.22	21850
851.355	21739
851.49	21660
851.625	21591
851.76	21644
851.895	21591
852.03	21545
852.165	21637
852.299	21637
852.434	21766
852.569	21679
852.703	21717
852.838	21694
852.973	21755
853.107	21880
853.242	21644
853.376	21530
853.511	21473
853.645	21469
853.78	21717
853.914	21492
854.048	21530
854.183	21473
854.317	21629
854.451	21614
854.585	21538
854.72	21336
854.854	21606
854.988	21370
855.122	21466
855.256	21348
855.39	21435
855.524	21488
855.658	21625
855.792	21591
855.926	21477
856.06	21420
856.194	21530
856.327	21488
856.461	21450
856.595	21469
856.729	21583
856.862	21553
856.996	21542
857.13	21447
857.263	21789
857.397	21580
857.53	21492
857.664	21401
857.797	21526
857.931	21591
858.064	21549
858.197	21526
858.331	21458
858.464	21332
858.597	21363
858.731	21526
858.864	21511
858.997	21450
859.13	21367
859.263	21542
859.396	21652
859.529	21481
859.662	21416
859.795	21439
859.928	21500
860.061	21595
860.194	21591
860.327	21637
860.46	21526
860.592	21614
860.725	21671
860.858	21599
860.99	21644
861.123	21435
861.256	21515
861.388	21534
861.521	22192
861.653	21397
861.786	21252
861.918	21275
862.05	21393
862.183	21492
862.315	21507
862.447	21424
862.58	21450
862.712	21298
862.844	21165
862.976	21211
863.108	21260
863.24	21542
863.372	21150
863.504	21195
863.636	21188
863.768	21199
863.9	21146
864.032	21100
864.164	21150
864.296	21116
864.428	21176
864.559	21176
864.691	21291
864.823	21199
864.954	21173
865.086	21142
865.217	21116
865.349	21070
865.48	21081
865.612	21188
865.743	21249
865.875	21036
866.006	21123
866.137	20948
866.269	21085
866.4	21013
866.531	21047
866.662	20937
866.793	21142
866.924	21001
867.055	21112
867.186	21058
867.317	21089
867.448	21036
867.579	20990
867.71	20937
867.841	20956
867.972	20971
868.103	21020
868.233	20971
868.364	21100
868.495	21249
868.625	21195
868.756	21325
868.886	21230
869.017	21222
869.147	21275
869.278	21408
869.408	21252
869.539	21256
869.669	21481
869.799	21401
869.929	21325
870.06	21351
870.19	21618
870.32	21595
870.45	21652
870.58	21698
870.71	21705
870.84	21766
870.97	21663
871.1	21781
871.23	21857
871.36	21827
871.489	21724
871.619	21800
871.749	21956
871.879	21956
872.008	21880
872.138	21793
872.267	21823
872.397	21576
872.526	21679
872.656	21701
872.785	21743
872.915	21884
873.044	22021
873.173	21964
873.303	21865
873.432	21968
873.561	21953
873.69	21873
873.819	21797
873.948	21945
874.077	21827
874.206	21983
874.335	21774
874.464	22025
874.593	22162
874.722	22063
874.851	22147
874.979	22128
875.108	22131
875.237	22128
875.365	21964
875.494	22067
875.623	22128
875.751	22010
875.88	22306
876.008	22169
876.136	22238
876.265	22512
876.393	22577
876.521	22569
876.65	22516
876.778	22462
876.906	22440
877.034	22413
877.162	22504
877.29	22523
877.418	22405
877.546	22360
877.674	22443
877.802	22402
877.93	22436
878.058	22481
878.185	22295
878.313	22386
878.441	22367
878.568	22211
878.696	22352
878.824	22303
878.951	22424
879.079	22683
879.206	22687
879.333	22573
879.461	22523
879.588	22493
879.715	22417
879.842	22672
879.97	22516
880.097	22295
880.224	22246
880.351	22440
880.478	22386
880.605	22249
880.732	22310
880.859	22462
880.986	22325
881.112	22314
881.239	22131
881.366	21903
881.493	21949
881.619	21888
881.746	21922
881.872	21941
881.999	21949
882.125	21797
882.252	21873
882.378	21808
882.505	21994
882.631	21743
882.757	21667
882.883	21603
883.01	21580
883.136	21504
883.262	21351
883.388	21397
883.514	21599
883.64	21538
883.766	21431
883.892	21378
884.018	21340
884.143	21443
884.269	21507
884.395	21287
884.52	21222
884.646	21294
884.772	21127
884.897	21055
885.023	21214
885.148	21188
885.274	21336
885.399	21298
885.524	21233
885.65	21081
885.775	21207
885.9	21138
886.025	21241
886.15	21199
886.275	21230
886.4	20975
886.525	21085
886.65	21127
886.775	21085
886.9	21184
887.025	21344
887.149	21104
887.274	20979
887.399	21055
887.523	21013
887.648	20914
887.773	20815
887.897	21051
888.021	20971
888.146	20792
888.27	21036
888.395	21009
888.519	20944
888.643	20979
888.767	20952
888.891	20880
889.015	20674
889.139	20849
889.263	20857
889.387	20891
889.511	20933
889.635	20834
889.759	20750
889.883	20796
890.006	20735
890.13	20872
890.254	20530
890.377	20587
890.501	20469
890.624	20351
890.748	20594
890.871	20309
890.995	20206
891.118	20282
891.241	20317
891.364	20408
891.488	20374
891.611	20328
891.734	20404
891.857	20339
891.98	20229
892.103	20305
892.226	20199
892.349	20282
892.471	20058
892.594	20172
892.717	20244
892.839	20221
892.962	20084
893.085	20229
893.207	20126
893.33	20031
893.452	20069
893.575	20275
893.697	20126
893.819	20355
893.941	20465
894.064	20339
894.186	20069
894.308	20100
894.43	20301
894.552	20347
894.674	20210
894.796	20065
894.918	20157
895.04	20259
895.161	20275
895.283	20176
895.405	20111
895.526	20081
895.648	20221
895.769	20294
895.891	20240
896.012	20305
896.134	20225
896.255	20248
896.376	20077
896.498	20119
896.619	20305
896.74	20130
896.861	20290
896.982	20465
897.103	20571
897.224	20549
897.345	20381
897.466	20301
897.587	20396
897.708	20598
897.828	20499
897.949	20434
898.07	20267
898.19	20286
898.311	20473
898.431	20336
898.552	20408
898.672	20404
898.792	20583
898.913	20362
899.033	20286
899.153	20229
899.273	20088
899.393	20107
899.513	20168
899.633	20111
899.753	20164
899.873	20153
899.993	20130
900.113	20168
900.232	20278
900.352	20119
900.472	20005
900.591	19818
900.711	19986
900.83	19883
900.95	19936
901.069	19982
901.189	19776
901.308	19647
901.427	19586
901.546	19628
901.665	19567
901.784	19415
901.904	19422
902.023	19339
902.141	19118
902.26	19179
902.379	19126
902.498	19042
902.617	19034
902.735	19004
902.854	19080
902.973	19050
903.091	18665
903.21	18688
903.328	18734
903.446	18688
903.565	18566
903.683	18525
903.801	18414
903.919	18448
904.038	18452
904.156	18304
904.274	18330
904.392	18239
904.51	18292
904.627	18323
904.745	18289
904.863	18296
904.981	18152
905.098	17923
905.216	17965
905.334	17954
905.451	17988
905.569	17836
905.686	18026
905.803	17836
905.921	17756
906.038	17847
906.155	17691
906.272	17634
906.389	17627
906.506	17566
906.623	17551
906.74	17414
906.857	17269
906.974	17444
907.091	17570
907.208	17558
907.324	17452
907.441	17372
907.557	17250
907.674	17277
907.79	17189
907.907	17261
908.023	17204
908.139	17280
908.256	17162
908.372	17094
908.488	17090
908.604	16995
908.72	16930
908.836	17045
908.952	16900
909.068	16965
909.184	17048
909.3	16999
909.415	16987
909.531	16858
909.647	16653
909.762	16634
909.878	16580
909.993	16767
910.108	16580
910.224	16580
910.339	16603
910.454	16489
910.57	16481
910.685	16287
910.8	16717
910.915	16558
911.03	16402
911.145	16284
911.259	16215
911.374	16344
911.489	16109
911.604	16185
911.718	16051
911.833	16006
911.947	15857
912.062	15812
912.176	15899
912.291	15937
912.405	15915
912.519	16169
912.633	16181
912.748	16116
912.862	15987
912.976	15808
913.09	15728
913.204	15797
913.318	15785
913.431	15888
913.545	15937
913.659	15819
913.772	15686
913.886	15633
914	15576
914.113	15652
914.226	15736
914.34	15603
914.453	15450
914.566	15679
914.68	15485
914.793	15439
914.906	15169
915.019	15161
915.132	15150
915.245	15237
915.358	15169
915.47	15188
915.583	15146
915.696	15199
915.809	15340
915.921	15268
916.034	15070
916.146	15195
916.259	14975
916.371	15211
916.483	15157
916.595	15093
916.708	15036
916.82	15032
916.932	14971
917.044	15051
917.156	14998
917.268	14887
917.38	14800
917.491	14861
917.603	14880
917.715	14982
917.826	14975
917.938	14678
918.049	14689
918.161	14697
918.272	14979
918.384	14994
918.495	14933
918.606	14663
918.717	14480
918.828	14724
918.939	14598
919.05	14518
919.161	14670
919.272	14294
919.383	14499
919.494	14689
919.604	14769
919.715	14625
919.826	14457
919.936	14488
920.047	14610
920.157	14541
920.267	14762
920.378	14556
920.488	14503
920.598	14727
920.708	14868
920.818	14644
920.928	14610
921.038	14857
921.148	14785
921.258	14549
921.368	14408
921.477	14248
921.587	14324
921.697	14168
921.806	14309
921.916	14145
922.025	14031
922.134	14012
922.244	13837
922.353	13852
922.462	13837
922.571	13784
922.68	13670
922.789	13651
922.898	13613
923.007	13445
923.116	13681
923.224	13567
923.333	13468
923.442	13457
923.55	13438
923.659	13426
923.767	13506
923.876	13422
923.984	13407
924.092	13343
924.201	13453
924.309	13301
924.417	13335
924.525	13358
924.633	13285
924.741	14157
924.849	12985
924.956	13179
925.064	13061
925.172	12935
925.279	13027
925.387	13046
925.494	13038
925.602	13072
925.709	13084
925.816	12867
925.924	12958
926.031	12996
926.138	12924
926.245	12928
926.352	12981
926.459	12973
926.566	12989
926.673	12863
926.779	12779
926.886	12738
926.993	12639
927.099	12585
927.206	12471
927.312	12536
927.419	12601
927.525	12547
927.631	12585
927.737	12475
927.843	12426
927.95	12372
928.056	12334
928.162	12445
928.267	12365
928.373	13019
928.479	12353
928.585	12228
928.69	12426
928.796	12346
928.901	12319
929.007	12114
929.112	12266
929.218	12186
929.323	12121
929.428	12038
929.533	12209
929.638	12026
929.743	12057
929.848	12144
929.953	12091
930.058	11977
930.163	11771
930.267	11813
930.372	11973
930.477	11786
930.581	11927
930.685	11874
930.79	11646
930.894	11764
930.998	11714
931.103	11901
931.207	11436
931.311	11288
931.415	11376
931.519	11136
931.623	10965
