Data from test_V78500241_1086.txt Node
Date: Fri Mar 25 15:17:25 CST 2022
User: usil
Spectrometer: V785-0024
Trigger mode: 0
Integration Time (sec): 4.000000E-1
Scans to average: 1
Nonlinearity correction enabled: false
Boxcar width: 0
Storing dark spectrum: false
XAxis mode: Wavelengths
Number of Pixels in Spectrum: 1024
>>>>>Begin Spectral Data<<<<<
801.071	28158
801.214	28124
801.356	27857
801.499	27850
801.641	27686
801.783	27755
801.926	27854
802.068	27755
802.211	27812
802.353	27724
802.496	27462
802.638	27420
802.78	27458
802.923	27355
803.065	27431
803.208	27370
803.35	27492
803.492	27553
803.635	27557
803.777	27389
803.919	27660
804.061	28006
804.204	27644
804.346	27698
804.488	27492
804.63	27603
804.773	27603
804.915	27641
805.057	27736
805.199	27648
805.341	27682
805.483	27827
805.626	27774
805.768	27633
805.91	27816
806.052	27739
806.194	27842
806.336	27994
806.478	27819
806.62	27869
806.762	27934
806.904	28116
807.046	28284
807.188	28124
807.33	28219
807.472	28196
807.614	28166
807.756	28226
807.898	28169
808.04	28143
808.182	28109
808.324	28120
808.465	28093
808.607	28291
808.749	28436
808.891	28466
809.033	28554
809.174	28409
809.316	28577
809.458	28504
809.6	28394
809.741	28584
809.883	28535
810.025	28740
810.166	28729
810.308	28736
810.45	28615
810.591	28683
810.733	28447
810.875	28470
811.016	28253
811.158	28352
811.299	28542
811.441	28596
811.582	28599
811.724	28512
811.865	28386
812.007	28360
812.148	28382
812.29	28325
812.431	28611
812.573	28774
812.714	28919
812.855	28961
812.997	28961
813.138	29159
813.279	29151
813.421	28938
813.562	28987
813.703	28888
813.845	28694
813.986	28409
814.127	28223
814.268	28116
814.41	28196
814.551	28029
814.692	28200
814.833	28063
814.974	28105
815.115	28169
815.256	27949
815.397	28006
815.539	28090
815.68	27766
815.821	27812
815.962	27972
816.103	28093
816.244	27975
816.385	27759
816.526	27698
816.666	27606
816.807	27416
816.948	27603
817.089	27549
817.23	27583
817.371	27568
817.512	27450
817.653	27431
817.793	27313
817.934	27458
818.075	27542
818.216	27557
818.356	27511
818.497	27424
818.638	27055
818.778	27089
818.919	27241
819.06	27332
819.2	27405
819.341	27435
819.481	27443
819.622	27557
819.762	27751
819.903	27751
820.043	27667
820.184	27583
820.324	27603
820.465	27709
820.605	27557
820.746	27557
820.886	27298
821.026	27656
821.167	27454
821.307	27545
821.447	27504
821.588	27485
821.728	27382
821.868	27192
822.008	27001
822.149	26853
822.289	26986
822.429	26701
822.569	26571
822.709	26640
822.849	26568
822.99	26617
823.13	26461
823.27	26492
823.41	26404
823.55	26062
823.69	26282
823.83	26336
823.97	26313
824.11	26027
824.25	26126
824.389	26077
824.529	26149
824.669	26225
824.809	26381
824.949	26237
825.089	26256
825.228	26065
825.368	25925
825.508	26043
825.648	26008
825.787	26039
825.927	26096
826.067	26054
826.206	25883
826.346	26115
826.485	26027
826.625	26005
826.765	26153
826.904	26107
827.044	25917
827.183	25769
827.323	25784
827.462	25826
827.601	25852
827.741	25685
827.88	25750
828.02	25548
828.159	25620
828.298	25643
828.437	25879
828.577	25742
828.716	25685
828.855	25674
828.994	25392
829.134	25506
829.273	25403
829.412	25460
829.551	25335
829.69	25392
829.829	25464
829.968	25586
830.107	25449
830.246	25476
830.385	25346
830.524	25350
830.663	25251
830.802	25190
830.941	25046
831.08	24977
831.219	25202
831.357	25080
831.496	25240
831.635	25065
831.774	25053
831.913	24878
832.051	24821
832.19	24821
832.329	24966
832.467	24856
832.606	24559
832.744	24559
832.883	24734
833.022	24719
833.16	24791
833.299	24749
833.437	24654
833.576	24810
833.714	24863
833.852	24779
833.991	24871
834.129	24878
834.267	24905
834.406	24954
834.544	24783
834.682	24878
834.821	24791
834.959	25008
835.097	24817
835.235	24878
835.373	24783
835.511	24962
835.65	24639
835.788	24757
835.926	24601
836.064	24369
836.202	24483
836.34	24661
836.478	24692
836.615	24486
836.753	24658
836.891	24719
837.029	24612
837.167	24738
837.305	24544
837.443	24532
837.58	24479
837.718	24582
837.856	24566
837.993	24448
838.131	24403
838.269	24380
838.406	24433
838.544	24365
838.681	24114
838.819	24095
838.956	23893
839.094	23916
839.231	24022
839.369	24110
839.506	24456
839.643	24296
839.781	24011
839.918	23939
840.055	23904
840.193	23954
840.33	23931
840.467	23992
840.604	23809
840.742	24182
840.879	23737
841.016	23786
841.153	23737
841.29	24011
841.427	23863
841.564	23939
841.701	23813
841.838	23813
841.975	23889
842.112	23729
842.249	23695
842.385	23539
842.522	23817
842.659	23691
842.796	23577
842.933	23634
843.069	23661
843.206	23547
843.343	23786
843.479	23577
843.616	23581
843.752	23417
843.889	23452
844.025	23509
844.162	23330
844.298	23436
844.435	23474
844.571	23254
844.708	23406
844.844	23627
844.98	23497
845.117	23501
845.253	23315
845.389	23337
845.525	23258
845.661	23258
845.798	23140
845.934	23166
846.07	23117
846.206	23086
846.342	23288
846.478	23174
846.614	22919
846.75	22713
846.886	22885
847.022	22877
847.158	22984
847.294	22877
847.429	22946
847.565	22778
847.701	23109
847.837	22702
847.972	22603
848.108	22767
848.244	22596
848.379	22474
848.515	22379
848.65	22318
848.786	22504
848.921	22523
849.057	22478
849.192	22512
849.328	22592
849.463	22390
849.598	22451
849.734	22390
849.869	22333
850.004	22348
850.14	22246
850.275	22181
850.41	22223
850.545	22067
850.68	22253
850.815	22306
850.95	22143
851.085	22367
851.22	22310
851.355	22272
851.49	22287
851.625	22192
851.76	22177
851.895	22093
852.03	22211
852.165	22207
852.299	22246
852.434	22219
852.569	22219
852.703	22246
852.838	22390
852.973	22386
853.107	22246
853.242	22219
853.376	22059
853.511	21926
853.645	21903
853.78	22013
853.914	22234
854.048	22010
854.183	22067
854.317	22059
854.451	22242
854.585	22006
854.72	21960
854.854	22154
854.988	22025
855.122	22017
855.256	21827
855.39	21884
855.524	22040
855.658	22029
855.792	22029
855.926	22021
856.06	22112
856.194	22048
856.327	22078
856.461	21937
856.595	22048
856.729	22059
856.862	21983
856.996	22032
857.13	22185
857.263	22116
857.397	22139
857.53	21907
857.664	21991
857.797	22067
857.931	22006
858.064	22059
858.197	22131
858.331	22059
858.464	21968
858.597	21911
858.731	21998
858.864	22021
858.997	22006
859.13	22070
859.263	21998
859.396	22143
859.529	21964
859.662	22021
859.795	21987
859.928	22078
860.061	22242
860.194	22188
860.327	22013
860.46	22086
860.592	22147
860.725	22234
860.858	22109
860.99	22188
861.123	21945
861.256	21987
861.388	22055
861.521	22607
861.653	21930
861.786	21819
861.918	21857
862.05	21846
862.183	21846
862.315	21956
862.447	21998
862.58	21869
862.712	21835
862.844	21701
862.976	21895
863.108	21778
863.24	22192
863.372	21713
863.504	21739
863.636	21739
863.768	21747
863.9	21766
864.032	21736
864.164	21618
864.296	21762
864.428	21964
864.559	21842
864.691	21812
864.823	21838
864.954	21717
865.086	21717
865.217	21720
865.349	21557
865.48	21622
865.612	21614
865.743	21747
865.875	21698
866.006	21675
866.137	21709
866.269	21717
866.4	21660
866.531	21523
866.662	21591
866.793	21622
866.924	21587
867.055	21690
867.186	21545
867.317	21511
867.448	21382
867.579	21488
867.71	21370
867.841	21466
867.972	21603
868.103	21454
868.233	21728
868.364	21625
868.495	21686
868.625	21770
868.756	21861
868.886	21751
869.017	21713
869.147	21972
869.278	21869
869.408	21770
869.539	21751
869.669	21953
869.799	21869
869.929	21892
870.06	21835
870.19	22032
870.32	22090
870.45	22032
870.58	22048
870.71	22150
870.84	22303
870.97	22268
871.1	22329
871.23	22447
871.36	22405
871.489	22398
871.619	22314
871.749	22421
871.879	22451
872.008	22398
872.138	22344
872.267	22394
872.397	22135
872.526	22261
872.656	22318
872.785	22139
872.915	22421
873.044	22504
873.173	22371
873.303	22466
873.432	22432
873.561	22417
873.69	22535
873.819	22386
873.948	22360
874.077	22352
874.206	22440
874.335	22322
874.464	22653
874.593	22584
874.722	22478
874.851	22702
874.979	22664
875.108	22626
875.237	22440
875.365	22580
875.494	22497
875.623	22691
875.751	22485
875.88	22569
876.008	22653
876.136	22755
876.265	22961
876.393	23193
876.521	23204
876.65	23037
876.778	23044
876.906	22854
877.034	23003
877.162	22896
877.29	22809
877.418	23098
877.546	23029
877.674	22965
877.802	22987
877.93	23018
878.058	22850
878.185	22946
878.313	23048
878.441	22961
878.568	22740
878.696	22908
878.824	23041
878.951	22972
879.079	23204
879.206	23242
879.333	23121
879.461	23010
879.588	23067
879.715	23208
879.842	23159
879.97	23048
880.097	22717
880.224	22713
880.351	22706
880.478	22797
880.605	22869
880.732	22812
880.859	22892
880.986	22824
881.112	22858
881.239	22508
881.366	22538
881.493	22402
881.619	22405
881.746	22440
881.872	22424
881.999	22352
882.125	22295
882.252	22360
882.378	22284
882.505	22485
882.631	22207
882.757	22070
882.883	22131
883.01	22086
883.136	21873
883.262	21842
883.388	21903
883.514	21937
883.64	22059
883.766	21892
883.892	21835
884.018	21797
884.143	21960
884.269	22086
884.395	21789
884.52	21663
884.646	21675
884.772	21595
884.897	21504
885.023	21663
885.148	21705
885.274	21781
885.399	21705
885.524	21625
885.65	21705
885.775	21717
885.9	21618
886.025	21728
886.15	21713
886.275	21603
886.4	21504
886.525	21701
886.65	21549
886.775	21644
886.9	21686
887.025	21915
887.149	21553
887.274	21477
887.399	21462
887.523	21359
887.648	21382
887.773	21275
887.897	21545
888.021	21587
888.146	21397
888.27	21496
888.395	21557
888.519	21481
888.643	21367
888.767	21416
888.891	21374
889.015	21211
889.139	21241
889.263	21199
889.387	21374
889.511	21420
889.635	21454
889.759	21203
889.883	21283
890.006	21230
890.13	21325
890.254	21222
890.377	21085
890.501	20982
890.624	20990
890.748	21028
890.871	20941
890.995	20800
891.118	20598
891.241	20826
891.364	20754
891.488	20906
891.611	20769
891.734	20826
891.857	20815
891.98	20697
892.103	20826
892.226	20724
892.349	20811
892.471	20659
892.594	20667
892.717	20769
892.839	20613
892.962	20701
893.085	20678
893.207	20648
893.33	20495
893.452	20636
893.575	20777
893.697	20613
893.819	20807
893.941	20933
894.064	20880
894.186	20537
894.308	20689
894.43	20568
894.552	20773
894.674	20682
894.796	20533
894.918	20697
895.04	20697
895.161	20815
895.283	20762
895.405	20701
895.526	20705
895.648	20625
895.769	20655
895.891	20796
896.012	20712
896.134	20556
896.255	20609
896.376	20560
896.498	20678
896.619	20716
896.74	20686
896.861	20613
896.982	20941
897.103	21058
897.224	20883
897.345	20883
897.466	20838
897.587	20941
897.708	20960
897.828	20895
897.949	20762
898.07	20705
898.19	20750
898.311	20914
898.431	20804
898.552	20853
898.672	21001
898.792	20906
898.913	20743
899.033	20781
899.153	20659
899.273	20537
899.393	20537
899.513	20545
899.633	20621
899.753	20632
899.873	20545
899.993	20655
900.113	20625
900.232	20549
900.352	20617
900.472	20438
900.591	20282
900.711	20400
900.83	20328
900.95	20518
901.069	20408
901.189	20168
901.308	20020
901.427	19894
901.546	19928
901.665	19951
901.784	19890
901.904	19849
902.023	19708
902.141	19582
902.26	19369
902.379	19533
902.498	19266
902.617	19415
902.735	19544
902.854	19396
902.973	19327
903.091	19050
903.21	19076
903.328	19107
903.446	18993
903.565	18939
903.683	18856
903.801	18886
903.919	18985
904.038	18878
904.156	18654
904.274	18730
904.392	18597
904.51	18700
904.627	18753
904.745	18696
904.863	18779
904.981	18540
905.098	18315
905.216	18437
905.334	18334
905.451	18357
905.569	18319
905.686	18464
905.803	18346
905.921	18125
906.038	18209
906.155	18152
906.272	18011
906.389	18060
906.506	17885
906.623	17863
906.74	17798
906.857	17802
906.974	17767
907.091	18064
907.208	17961
907.324	17904
907.441	17809
907.557	17733
907.674	17493
907.79	17551
907.907	17649
908.023	17619
908.139	17558
908.256	17551
908.372	17566
908.488	17379
908.604	17265
908.72	17292
908.836	17261
908.952	17197
909.068	17315
909.184	17501
909.3	17292
909.415	17315
909.531	17330
909.647	17064
909.762	17060
909.878	16984
909.993	17083
910.108	16961
910.224	16892
910.339	17029
910.454	16831
910.57	16820
910.685	16858
910.8	17010
910.915	16934
911.03	16831
911.145	16653
911.259	16596
911.374	16603
911.489	16508
911.604	16527
911.718	16268
911.833	16337
911.947	16249
912.062	16101
912.176	16417
912.291	16299
912.405	16287
912.519	16478
912.633	16478
912.748	16325
912.862	16207
912.976	16181
913.09	16078
913.204	16093
913.318	16204
913.431	16139
913.545	16246
913.659	16162
913.772	16090
913.886	16051
914	15926
914.113	16059
914.226	16128
914.34	15926
914.453	15850
914.566	15880
914.68	15781
914.793	15732
914.906	15637
915.019	15603
915.132	15526
915.245	15591
915.358	15576
915.47	15526
915.583	15610
915.696	15622
915.809	15618
915.921	15644
916.034	15496
916.146	15481
916.259	15321
916.371	15622
916.483	15454
916.595	15260
916.708	15439
916.82	15401
916.932	15283
917.044	15447
917.156	15222
917.268	15165
917.38	15325
917.491	15058
917.603	15173
917.715	15325
917.826	15264
917.938	15051
918.049	15104
918.161	15142
918.272	15188
918.384	15252
918.495	15192
918.606	14925
918.717	14868
918.828	14982
918.939	14925
919.05	14811
919.161	14998
919.272	14720
919.383	14701
919.494	14834
919.604	15184
919.715	14868
919.826	14861
919.936	14842
920.047	14986
920.157	14982
920.267	15089
920.378	14864
920.488	14792
920.598	15058
920.708	15214
920.818	15013
920.928	15146
921.038	15169
921.148	15074
921.258	14800
921.368	14746
921.477	14648
921.587	14598
921.697	14495
921.806	14739
921.916	14415
922.025	14313
922.134	14248
922.244	14199
922.353	14229
922.462	14001
922.571	14153
922.68	14001
922.789	13898
922.898	13913
923.007	13719
923.116	13883
923.224	13913
923.333	13822
923.442	13788
923.55	13670
923.659	13708
923.767	13734
923.876	13632
923.984	13734
924.092	13609
924.201	13636
924.309	13601
924.417	13571
924.525	13529
924.633	13567
924.741	14415
924.849	13365
924.956	13396
925.064	13324
925.172	13240
925.279	13304
925.387	13301
925.494	13293
925.602	13335
925.709	13365
925.816	13164
925.924	13289
926.031	13282
926.138	13232
926.245	13221
926.352	13088
926.459	13285
926.566	13236
926.673	13091
926.779	13053
926.886	13046
926.993	12798
927.099	12764
927.206	12715
927.312	12840
927.419	12859
927.525	12848
927.631	12871
927.737	12703
927.843	12677
927.95	12551
928.056	12654
928.162	12707
928.267	12639
928.373	13327
928.479	12681
928.585	12486
928.69	12688
928.796	12665
928.901	12559
929.007	12372
929.112	12506
929.218	12475
929.323	12418
929.428	12319
929.533	12471
929.638	12220
929.743	12376
929.848	12353
929.953	12308
930.058	12140
930.163	12068
930.267	11988
930.372	12133
930.477	12053
930.581	12182
930.685	12087
930.79	11847
930.894	11973
930.998	11843
931.103	12026
931.207	11691
931.311	11600
931.415	11566
931.519	11417
931.623	11269
