Data from test_V78500241_2293.txt Node
Date: Fri Mar 25 15:25:49 CST 2022
User: usil
Spectrometer: V785-0024
Trigger mode: 0
Integration Time (sec): 4.000000E-1
Scans to average: 1
Nonlinearity correction enabled: false
Boxcar width: 0
Storing dark spectrum: false
XAxis mode: Wavelengths
Number of Pixels in Spectrum: 1024
>>>>>Begin Spectral Data<<<<<
801.071	27583
801.214	27736
801.356	27523
801.499	27416
801.641	27298
801.783	27264
801.926	27294
802.068	27321
802.211	27260
802.353	27077
802.496	27081
802.638	26940
802.78	26788
802.923	26804
803.065	26758
803.208	26785
803.35	26826
803.492	27104
803.635	27062
803.777	26952
803.919	27135
804.061	27473
804.204	27176
804.346	27047
804.488	27108
804.63	27131
804.773	26986
804.915	27100
805.057	27188
805.199	27036
805.341	27184
805.483	27222
805.626	27218
805.768	27093
805.91	27169
806.052	27306
806.194	27077
806.336	27344
806.478	27245
806.62	27104
806.762	27264
806.904	27363
807.046	27736
807.188	27713
807.33	27606
807.472	27797
807.614	27496
807.756	27458
807.898	27500
808.04	27473
808.182	27488
808.324	27492
808.465	27526
808.607	27766
808.749	27937
808.891	27979
809.033	28044
809.174	27956
809.316	27899
809.458	27797
809.6	27770
809.741	27895
809.883	27979
810.025	28139
810.166	28074
810.308	28181
810.45	28059
810.591	27964
810.733	27884
810.875	27854
811.016	27701
811.158	27682
811.299	27895
811.441	27892
811.582	28006
811.724	27888
811.865	27869
812.007	27595
812.148	27774
812.29	27793
812.431	28070
812.573	28150
812.714	28192
812.855	28226
812.997	28512
813.138	28645
813.279	28462
813.421	28299
813.562	28185
813.703	28097
813.845	28025
813.986	27759
814.127	27675
814.268	27515
814.41	27656
814.551	27485
814.692	27644
814.833	27595
814.974	27519
815.115	27530
815.256	27389
815.397	27507
815.539	27447
815.68	27249
815.821	27317
815.962	27344
816.103	27287
816.244	27180
816.385	27077
816.526	27055
816.666	26849
816.807	26925
816.948	26754
817.089	26895
817.23	26899
817.371	26826
817.512	26667
817.653	26727
817.793	26708
817.934	26705
818.075	26937
818.216	26826
818.356	26762
818.497	26640
818.638	26480
818.778	26450
818.919	26708
819.06	26526
819.2	26636
819.341	26849
819.481	26849
819.622	26804
819.762	27226
819.903	27100
820.043	26990
820.184	26937
820.324	26857
820.465	27017
820.605	26914
820.746	26891
820.886	26667
821.026	26895
821.167	26880
821.307	26986
821.447	26845
821.588	26575
821.728	26689
821.868	26374
822.008	26229
822.149	26210
822.289	26248
822.429	26001
822.569	26024
822.709	25864
822.849	25769
822.99	25674
823.13	25719
823.27	25658
823.41	25510
823.55	25487
823.69	25597
823.83	25525
823.97	25586
824.11	25392
824.25	25228
824.389	25232
824.529	25483
824.669	25411
824.809	25597
824.949	25407
825.089	25479
825.228	25472
825.368	25282
825.508	25244
825.648	25202
825.787	25377
825.927	25441
826.067	25225
826.206	25228
826.346	25266
826.485	25293
826.625	25217
826.765	25232
826.904	25472
827.044	25156
827.183	25103
827.323	25015
827.462	24954
827.601	24829
827.741	24989
827.88	25023
828.02	24970
828.159	24932
828.298	24875
828.437	25000
828.577	24992
828.716	25175
828.855	24947
828.994	24726
829.134	24604
829.273	24627
829.412	24658
829.551	24574
829.69	24623
829.829	24642
829.968	24692
830.107	24711
830.246	24719
830.385	24623
830.524	24509
830.663	24456
830.802	24452
830.941	24376
831.08	24308
831.219	24243
831.357	24437
831.496	24479
831.635	24300
831.774	24243
831.913	24140
832.051	23965
832.19	24117
832.329	24140
832.467	24022
832.606	23832
832.744	24098
832.883	24053
833.022	23901
833.16	23950
833.299	23965
833.437	24018
833.576	23950
833.714	23980
833.852	24148
833.991	24038
834.129	24022
834.267	23996
834.406	24011
834.544	24114
834.682	23999
834.821	24045
834.959	24220
835.097	23973
835.235	24057
835.373	23927
835.511	24041
835.65	23836
835.788	23882
835.926	23775
836.064	23672
836.202	23611
836.34	23863
836.478	23939
836.615	23863
836.753	23840
836.891	23935
837.029	23920
837.167	23737
837.305	23767
837.443	23634
837.58	23665
837.718	23687
837.856	23729
837.993	23764
838.131	23707
838.269	23509
838.406	23680
838.544	23531
838.681	23452
838.819	23353
838.956	23170
839.094	23216
839.231	23143
839.369	23299
839.506	23554
839.643	23497
839.781	23254
839.918	22987
840.055	23128
840.193	23155
840.33	23132
840.467	23124
840.604	23113
840.742	23296
840.879	23014
841.016	23071
841.153	22927
841.29	23235
841.427	23037
841.564	23083
841.701	23025
841.838	23022
841.975	22946
842.112	22949
842.249	22793
842.385	22763
842.522	22972
842.659	22911
842.796	22892
842.933	22782
843.069	22915
843.206	22759
843.343	22790
843.479	22839
843.616	22733
843.752	22668
843.889	22721
844.025	22637
844.162	22588
844.298	22656
844.435	22622
844.571	22527
844.708	22622
844.844	22596
844.98	22721
845.117	22896
845.253	22512
845.389	22523
845.525	22512
845.661	22432
845.798	22295
845.934	22428
846.07	22344
846.206	22436
846.342	22485
846.478	22352
846.614	22291
846.75	22048
846.886	22124
847.022	22150
847.158	22139
847.294	22048
847.429	22116
847.565	22032
847.701	22367
847.837	21861
847.972	21751
848.108	21842
848.244	21842
848.379	21724
848.515	21705
848.65	21648
848.786	21671
848.921	21705
849.057	21682
849.192	21831
849.328	21557
849.463	21660
849.598	21606
849.734	21496
849.869	21504
850.004	21477
850.14	21447
850.275	21389
850.41	21344
850.545	21431
850.68	21466
850.815	21500
850.95	21439
851.085	21572
851.22	21538
851.355	21511
851.49	21416
851.625	21462
851.76	21313
851.895	21313
852.03	21397
852.165	21462
852.299	21466
852.434	21496
852.569	21443
852.703	21405
852.838	21496
852.973	21450
853.107	21572
853.242	21336
853.376	21184
853.511	21131
853.645	21195
853.78	21344
853.914	21321
854.048	21252
854.183	21173
854.317	21272
854.451	21439
854.585	21321
854.72	21321
854.854	21325
854.988	21173
855.122	21249
855.256	21203
855.39	21165
855.524	21214
855.658	21252
855.792	21264
855.926	21154
856.06	21386
856.194	21279
856.327	21313
856.461	21283
856.595	21142
856.729	21313
856.862	21378
856.996	21268
857.13	21393
857.263	21408
857.397	21405
857.53	21222
857.664	21241
857.797	21424
857.931	21363
858.064	21317
858.197	21389
858.331	21176
858.464	21180
858.597	21123
858.731	21245
858.864	21169
858.997	21226
859.13	21245
859.263	21313
859.396	21363
859.529	21275
859.662	21321
859.795	21241
859.928	21306
860.061	21504
860.194	21454
860.327	21310
860.46	21188
860.592	21458
860.725	21359
860.858	21374
860.99	21268
861.123	21108
861.256	21157
861.388	21355
861.521	21968
861.653	21176
861.786	21020
861.918	21089
862.05	21127
862.183	21108
862.315	21233
862.447	21184
862.58	21207
862.712	20967
862.844	20921
862.976	21138
863.108	21001
863.24	21329
863.372	21036
863.504	20944
863.636	20998
863.768	21119
863.9	20960
864.032	21009
864.164	20944
864.296	20994
864.428	21001
864.559	21066
864.691	20910
864.823	21077
864.954	20960
865.086	20941
865.217	20895
865.349	20731
865.48	20906
865.612	20883
865.743	20948
865.875	20842
866.006	20845
866.137	20872
866.269	20921
866.4	20830
866.531	20823
866.662	20792
866.793	20773
866.924	20769
867.055	20708
867.186	20739
867.317	20845
867.448	20693
867.579	20785
867.71	20659
867.841	20708
867.972	20845
868.103	20785
868.233	20686
868.364	20750
868.495	20937
868.625	21123
868.756	21154
868.886	20899
869.017	21020
869.147	21116
869.278	21142
869.408	21047
869.539	21024
869.669	21093
869.799	21161
869.929	21036
870.06	21192
870.19	21294
870.32	21340
870.45	21302
870.58	21359
870.71	21526
870.84	21583
870.97	21511
871.1	21507
871.23	21637
871.36	21705
871.489	21538
871.619	21732
871.749	21625
871.879	21561
872.008	21690
872.138	21656
872.267	21507
872.397	21561
872.526	21416
872.656	21496
872.785	21477
872.915	21595
873.044	21762
873.173	21595
873.303	21660
873.432	21587
873.561	21648
873.69	21667
873.819	21564
873.948	21762
874.077	21622
874.206	21583
874.335	21663
874.464	21770
874.593	21899
874.722	21808
874.851	21816
874.979	21975
875.108	21842
875.237	21854
875.365	21701
875.494	21892
875.623	21956
875.751	21800
875.88	21975
876.008	22048
876.136	22040
876.265	22310
876.393	22512
876.521	22474
876.65	22489
876.778	22329
876.906	22196
877.034	22150
877.162	22284
877.29	22067
877.418	22158
877.546	22242
877.674	22257
877.802	22207
877.93	22166
878.058	22223
878.185	22063
878.313	22257
878.441	22093
878.568	22128
878.696	22322
878.824	22207
878.951	22230
879.079	22413
879.206	22516
879.333	22413
879.461	22295
879.588	22417
879.715	22459
879.842	22489
879.97	22363
880.097	21964
880.224	22059
880.351	22177
880.478	22139
880.605	22101
880.732	22097
880.859	22246
880.986	22120
881.112	22036
881.239	21846
881.366	21804
881.493	21641
881.619	21690
881.746	21686
881.872	21690
881.999	21606
882.125	21682
882.252	21648
882.378	21614
882.505	21644
882.631	21477
882.757	21291
882.883	21431
883.01	21306
883.136	21287
883.262	21355
883.388	21317
883.514	21260
883.64	21393
883.766	21245
883.892	21192
884.018	21081
884.143	21264
884.269	21298
884.395	21062
884.52	20880
884.646	20952
884.772	20998
884.897	21020
885.023	20979
885.148	20990
885.274	21089
885.399	21184
885.524	20868
885.65	20918
885.775	20887
885.9	20845
886.025	21112
886.15	20986
886.275	20986
886.4	20918
886.525	20971
886.65	20857
886.775	20819
886.9	20944
887.025	21169
887.149	20952
887.274	20716
887.399	20708
887.523	20648
887.648	20686
887.773	20598
887.897	20777
888.021	20777
888.146	20659
888.27	20864
888.395	20788
888.519	20777
888.643	20918
888.767	20815
888.891	20701
889.015	20530
889.139	20644
889.263	20530
889.387	20697
889.511	20743
889.635	20716
889.759	20465
889.883	20423
890.006	20571
890.13	20568
890.254	20484
890.377	20469
890.501	20324
890.624	20229
890.748	20343
890.871	20240
890.995	20107
891.118	19925
891.241	20103
891.364	20172
891.488	20221
891.611	20157
891.734	20126
891.857	20172
891.98	20092
892.103	20096
892.226	20115
892.349	20062
892.471	19925
892.594	20035
892.717	20073
892.839	19997
892.962	20016
893.085	20187
893.207	19921
893.33	19818
893.452	19986
893.575	20065
893.697	19967
893.819	20092
893.941	20244
894.064	20142
894.186	19940
894.308	19890
894.43	20126
894.552	20050
894.674	20130
894.796	19894
894.918	20050
895.04	19944
895.161	20221
895.283	20103
895.405	20020
895.526	19997
895.648	19921
895.769	19967
895.891	20218
896.012	20088
896.134	20092
896.255	19944
896.376	19944
896.498	19932
896.619	20126
896.74	20058
896.861	20081
896.982	20415
897.103	20511
897.224	20305
897.345	20172
897.466	20058
897.587	20153
897.708	20328
897.828	20206
897.949	20229
898.07	20024
898.19	20191
898.311	20259
898.431	20240
898.552	20195
898.672	20317
898.792	20229
898.913	20221
899.033	20088
899.153	19989
899.273	19974
899.393	19913
899.513	20115
899.633	20039
899.753	19974
899.873	19887
899.993	20005
900.113	19955
900.232	20016
900.352	19921
900.472	19791
900.591	19788
900.711	19837
900.83	19696
900.95	19807
901.069	19841
901.189	19567
901.308	19480
901.427	19419
901.546	19282
901.665	19434
901.784	19331
901.904	19232
902.023	19145
902.141	18897
902.26	18943
902.379	18837
902.498	18932
902.617	18833
902.735	18909
902.854	18749
902.973	18791
903.091	18635
903.21	18452
903.328	18517
903.446	18380
903.565	18353
903.683	18270
903.801	18254
903.919	18239
904.038	18254
904.156	18144
904.274	18216
904.392	18076
904.51	18041
904.627	18076
904.745	18220
904.863	18186
904.981	17824
905.098	17691
905.216	17741
905.334	17767
905.451	17764
905.569	17771
905.686	17745
905.803	17866
905.921	17554
906.038	17554
906.155	17566
906.272	17455
906.389	17497
906.506	17284
906.623	17440
906.74	17364
906.857	17174
906.974	17216
907.091	17391
907.208	17414
907.324	17231
907.441	17250
907.557	17014
907.674	16987
907.79	16919
907.907	17025
908.023	17094
908.139	16965
908.256	16984
908.372	16923
908.488	16911
908.604	16740
908.72	16812
908.836	16771
908.952	16691
909.068	16752
909.184	16881
909.3	16687
909.415	16740
909.531	16736
909.647	16459
909.762	16417
909.878	16398
909.993	16432
910.108	16417
910.224	16394
910.339	16432
910.454	16325
910.57	16284
910.685	16234
910.8	16470
910.915	16497
911.03	16249
911.145	16257
911.259	16010
911.374	16029
911.489	15983
911.604	15880
911.718	15793
911.833	15857
911.947	15675
912.062	15610
912.176	15751
912.291	15789
912.405	15766
912.519	15922
912.633	16017
912.748	15816
912.862	15739
912.976	15595
913.09	15420
913.204	15549
913.318	15724
913.431	15705
913.545	15709
913.659	15701
913.772	15515
913.886	15420
914	15374
914.113	15500
914.226	15424
914.34	15515
914.453	15279
914.566	15344
914.68	15363
914.793	15256
914.906	15100
915.019	15036
915.132	14948
915.245	14971
915.358	15028
915.47	14944
915.583	14971
915.696	15116
915.809	15089
915.921	15173
916.034	14929
916.146	14963
916.259	14910
916.371	15097
916.483	14891
916.595	14868
916.708	14762
916.82	14868
916.932	14762
917.044	14819
917.156	14762
917.268	14655
917.38	14788
917.491	14640
917.603	14689
917.715	14670
917.826	14735
917.938	14575
918.049	14587
918.161	14655
918.272	14678
918.384	14727
918.495	14590
918.606	14522
918.717	14419
918.828	14366
918.939	14427
919.05	14370
919.161	14457
919.272	14248
919.383	14275
919.494	14362
919.604	14549
919.715	14431
919.826	14298
919.936	14419
920.047	14556
920.157	14450
920.267	14545
920.378	14484
920.488	14366
920.598	14499
920.708	14701
920.818	14442
920.928	14522
921.038	14670
921.148	14568
921.258	14412
921.368	14248
921.477	14142
921.587	14088
921.697	14069
921.806	14069
921.916	13944
922.025	13856
922.134	13788
922.244	13761
922.353	13761
922.462	13666
922.571	13548
922.68	13377
922.789	13362
922.898	13388
923.007	13396
923.116	13472
923.224	13388
923.333	13434
923.442	13270
923.55	13301
923.659	13316
923.767	13304
923.876	13126
923.984	13312
924.092	13175
924.201	13149
924.309	13149
924.417	13225
924.525	13023
924.633	13076
924.741	13959
924.849	12890
924.956	13114
925.064	12837
925.172	12798
925.279	12852
925.387	12875
925.494	12894
925.602	12951
925.709	12768
925.816	12700
925.924	12768
926.031	12772
926.138	12741
926.245	12745
926.352	12608
926.459	12837
926.566	12844
926.673	12722
926.779	12654
926.886	12544
926.993	12399
927.099	12391
927.206	12346
927.312	12414
927.419	12441
927.525	12353
927.631	12380
927.737	12304
927.843	12285
927.95	12125
928.056	12266
928.162	12251
928.267	12311
928.373	12753
928.479	12388
928.585	12057
928.69	12235
928.796	12235
928.901	12057
929.007	12003
929.112	12117
929.218	11980
929.323	12098
929.428	12003
929.533	12072
929.638	11950
929.743	11866
929.848	11973
929.953	11973
930.058	11813
930.163	11703
930.267	11657
930.372	11767
930.477	11707
930.581	11790
930.685	11710
930.79	11558
930.894	11581
930.998	11520
931.103	11703
931.207	11284
931.311	11231
931.415	11140
931.519	10919
931.623	10949
