Data from test_V78500241_1672.txt Node
Date: Fri Mar 25 15:21:29 CST 2022
User: usil
Spectrometer: V785-0024
Trigger mode: 0
Integration Time (sec): 4.000000E-1
Scans to average: 1
Nonlinearity correction enabled: false
Boxcar width: 0
Storing dark spectrum: false
XAxis mode: Wavelengths
Number of Pixels in Spectrum: 1024
>>>>>Begin Spectral Data<<<<<
801.071	28010
801.214	27979
801.356	27656
801.499	27614
801.641	27317
801.783	27515
801.926	27667
802.068	27606
802.211	27363
802.353	27412
802.496	27165
802.638	27043
802.78	27169
802.923	27252
803.065	27135
803.208	27180
803.35	27077
803.492	27287
803.635	27287
803.777	27283
803.919	27443
804.061	27675
804.204	27583
804.346	27249
804.488	27363
804.63	27450
804.773	27317
804.915	27336
805.057	27488
805.199	27538
805.341	27580
805.483	27447
805.626	27462
805.768	27431
805.91	27424
806.052	27488
806.194	27302
806.336	27762
806.478	27568
806.62	27629
806.762	27656
806.904	27861
807.046	27991
807.188	27979
807.33	27960
807.472	28002
807.614	27800
807.756	28013
807.898	27888
808.04	27614
808.182	27686
808.324	27823
808.465	27797
808.607	28040
808.749	28131
808.891	28063
809.033	28413
809.174	28253
809.316	28162
809.458	28135
809.6	28162
809.741	28348
809.883	28242
810.025	28424
810.166	28394
810.308	28390
810.45	28398
810.591	28363
810.733	28219
810.875	28147
811.016	28017
811.158	27983
811.299	28131
811.441	28230
811.582	28295
811.724	28188
811.865	28181
812.007	28185
812.148	28067
812.29	28230
812.431	28481
812.573	28443
812.714	28584
812.855	28683
812.997	28850
813.138	28824
813.279	28919
813.421	28797
813.562	28710
813.703	28500
813.845	28413
813.986	28112
814.127	27960
814.268	27949
814.41	27793
814.551	27857
814.692	27964
814.833	27854
814.974	27857
815.115	27842
815.256	27747
815.397	27838
815.539	27759
815.68	27587
815.821	27595
815.962	27751
816.103	27587
816.244	27504
816.385	27450
816.526	27439
816.666	27195
816.807	27146
816.948	27264
817.089	27165
817.23	27199
817.371	27096
817.512	27043
817.653	27089
817.793	27127
817.934	27142
818.075	27211
818.216	27180
818.356	27058
818.497	27024
818.638	26887
818.778	26872
818.919	26925
819.06	26975
819.2	26963
819.341	27047
819.481	27207
819.622	27325
819.762	27492
819.903	27405
820.043	27454
820.184	27218
820.324	27169
820.465	27302
820.605	27119
820.746	27226
820.886	27146
821.026	27252
821.167	27123
821.307	27211
821.447	27192
821.588	27195
821.728	26876
821.868	26762
822.008	26598
822.149	26579
822.289	26507
822.429	26332
822.569	26374
822.709	26301
822.849	26157
822.99	26199
823.13	26092
823.27	26050
823.41	25890
823.55	25860
823.69	25932
823.83	25947
823.97	25871
824.11	25750
824.25	25776
824.389	25635
824.529	25894
824.669	25780
824.809	25849
824.949	25871
825.089	25807
825.228	25826
825.368	25601
825.508	25689
825.648	25700
825.787	25639
825.927	25635
826.067	25575
826.206	25552
826.346	25594
826.485	25677
826.625	25548
826.765	25776
826.904	25696
827.044	25419
827.183	25396
827.323	25373
827.462	25430
827.601	25365
827.741	25297
827.88	25396
828.02	25285
828.159	25297
828.298	25308
828.437	25529
828.577	25206
828.716	25430
828.855	25362
828.994	25046
829.134	25099
829.273	25076
829.412	24962
829.551	25046
829.69	25008
829.829	24951
829.968	25042
830.107	25217
830.246	25057
830.385	24875
830.524	24943
830.663	24935
830.802	24669
830.941	24738
831.08	24715
831.219	24806
831.357	24795
831.496	24924
831.635	24665
831.774	24517
831.913	24471
832.051	24608
832.19	24414
832.329	24494
832.467	24308
832.606	24304
832.744	24262
832.883	24304
833.022	24334
833.16	24247
833.299	24407
833.437	24300
833.576	24369
833.714	24414
833.852	24380
833.991	24517
834.129	24479
834.267	24338
834.406	24323
834.544	24384
834.682	24467
834.821	24315
834.959	24403
835.097	24334
835.235	24296
835.373	24395
835.511	24372
835.65	24239
835.788	24235
835.926	24087
836.064	23980
836.202	24106
836.34	24171
836.478	24273
836.615	24243
836.753	24235
836.891	24277
837.029	24304
837.167	24232
837.305	24201
837.443	24197
837.58	24194
837.718	24076
837.856	24110
837.993	23992
838.131	23992
838.269	23889
838.406	23923
838.544	23878
838.681	23783
838.819	23649
838.956	23581
839.094	23531
839.231	23608
839.369	23665
839.506	23931
839.643	23767
839.781	23490
839.918	23573
840.055	23524
840.193	23573
840.33	23486
840.467	23486
840.604	23452
840.742	23764
840.879	23311
841.016	23315
841.153	23330
841.29	23505
841.427	23478
841.564	23353
841.701	23436
841.838	23455
841.975	23231
842.112	23296
842.249	23330
842.385	23197
842.522	23493
842.659	23143
842.796	23181
842.933	23242
843.069	23162
843.206	23033
843.343	23242
843.479	23193
843.616	23124
843.752	22949
843.889	23094
844.025	23071
844.162	22892
844.298	23140
844.435	22930
844.571	22968
844.708	22850
844.844	23162
844.98	23041
845.117	22987
845.253	23124
845.389	22786
845.525	22790
845.661	22911
845.798	22812
845.934	22725
846.07	22656
846.206	22740
846.342	22767
846.478	22664
846.614	22478
846.75	22375
846.886	22440
847.022	22622
847.158	22527
847.294	22577
847.429	22531
847.565	22344
847.701	22645
847.837	22246
847.972	22055
848.108	22242
848.244	22246
848.379	22135
848.515	22051
848.65	22040
848.786	22059
848.921	21979
849.057	22154
849.192	22082
849.328	22013
849.463	22093
849.598	21983
849.734	21922
849.869	21994
850.004	21827
850.14	21953
850.275	21850
850.41	21682
850.545	21656
850.68	21869
850.815	21835
850.95	21816
851.085	21918
851.22	21876
851.355	21850
851.49	21736
851.625	21838
851.76	21793
851.895	21774
852.03	21781
852.165	21717
852.299	21766
852.434	21804
852.569	21876
852.703	21778
852.838	21835
852.973	21926
853.107	21781
853.242	21709
853.376	21622
853.511	21488
853.645	21583
853.78	21778
853.914	21644
854.048	21606
854.183	21450
854.317	21679
854.451	21827
854.585	21568
854.72	21534
854.854	21656
854.988	21561
855.122	21504
855.256	21447
855.39	21732
855.524	21717
855.658	21667
855.792	21743
855.926	21644
856.06	21644
856.194	21751
856.327	21625
856.461	21633
856.595	21580
856.729	21618
856.862	21709
856.996	21633
857.13	21713
857.263	21690
857.397	21728
857.53	21644
857.664	21701
857.797	21694
857.931	21671
858.064	21698
858.197	21812
858.331	21648
858.464	21610
858.597	21485
858.731	21545
858.864	21526
858.997	21534
859.13	21534
859.263	21606
859.396	21724
859.529	21614
859.662	21580
859.795	21481
859.928	21542
860.061	21690
860.194	21694
860.327	21679
860.46	21595
860.592	21641
860.725	21762
860.858	21747
860.99	21633
861.123	21485
861.256	21538
861.388	21591
861.521	22424
861.653	21408
861.786	21367
861.918	21428
862.05	21477
862.183	21462
862.315	21542
862.447	21576
862.58	21587
862.712	21310
862.844	21351
862.976	21469
863.108	21336
863.24	21762
863.372	21161
863.504	21291
863.636	21340
863.768	21348
863.9	21367
864.032	21374
864.164	21260
864.296	21397
864.428	21443
864.559	21313
864.691	21363
864.823	21306
864.954	21302
865.086	21268
865.217	21233
865.349	21074
865.48	21230
865.612	21211
865.743	21241
865.875	21154
866.006	21268
866.137	21275
866.269	21214
866.4	21180
866.531	21138
866.662	21058
866.793	21112
866.924	21264
867.055	21161
867.186	21165
867.317	21077
867.448	21020
867.579	21055
867.71	21119
867.841	21165
867.972	21028
868.103	21165
868.233	21169
868.364	21116
868.495	21233
868.625	21408
868.756	21485
868.886	21249
869.017	21420
869.147	21492
869.278	21473
869.408	21363
869.539	21313
869.669	21511
869.799	21374
869.929	21625
870.06	21492
870.19	21766
870.32	21701
870.45	21759
870.58	21812
870.71	21937
870.84	21968
870.97	21789
871.1	21728
871.23	21869
871.36	22109
871.489	21918
871.619	21975
871.749	21987
871.879	22139
872.008	22109
872.138	22051
872.267	21983
872.397	21835
872.526	21789
872.656	21835
872.785	21785
872.915	22006
873.044	22101
873.173	21994
873.303	22082
873.432	22150
873.561	22090
873.69	22036
873.819	21953
873.948	22093
874.077	22158
874.206	21987
874.335	21937
874.464	22051
874.593	22219
874.722	22261
874.851	22230
874.979	22371
875.108	22268
875.237	22234
875.365	22090
875.494	22230
875.623	22352
875.751	22238
875.88	22154
876.008	22344
876.136	22459
876.265	22725
876.393	22801
876.521	22649
876.65	22744
876.778	22554
876.906	22538
877.034	22485
877.162	22489
877.29	22481
877.418	22698
877.546	22653
877.674	22478
877.802	22668
877.93	22546
878.058	22493
878.185	22497
878.313	22573
878.441	22478
878.568	22363
878.696	22519
878.824	22713
878.951	22668
879.079	22763
879.206	22904
879.333	22824
879.461	22569
879.588	22721
879.715	22820
879.842	22790
879.97	22664
880.097	22413
880.224	22352
880.351	22459
880.478	22470
880.605	22341
880.732	22432
880.859	22691
880.986	22428
881.112	22417
881.239	22196
881.366	22086
881.493	22150
881.619	21960
881.746	21911
881.872	21892
881.999	21941
882.125	21934
882.252	22025
882.378	21994
882.505	22059
882.631	21762
882.757	21679
882.883	21808
883.01	21751
883.136	21682
883.262	21542
883.388	21485
883.514	21652
883.64	21728
883.766	21580
883.892	21492
884.018	21469
884.143	21713
884.269	21759
884.395	21443
884.52	21279
884.646	21401
884.772	21351
884.897	21268
885.023	21378
885.148	21401
885.274	21534
885.399	21485
885.524	21313
885.65	21336
885.775	21306
885.9	21310
886.025	21447
886.15	21386
886.275	21173
886.4	21275
886.525	21279
886.65	21283
886.775	21287
886.9	21420
887.025	21485
887.149	21241
887.274	21081
887.399	21039
887.523	21119
887.648	21036
887.773	20986
887.897	21081
888.021	21051
888.146	20944
888.27	21116
888.395	21150
888.519	21119
888.643	21081
888.767	20963
888.891	20914
889.015	20971
889.139	20975
889.263	20826
889.387	20891
889.511	21093
889.635	20998
889.759	20941
889.883	20914
890.006	20868
890.13	21058
890.254	20861
890.377	20693
890.501	20632
890.624	20663
890.748	20697
890.871	20598
890.995	20381
891.118	20438
891.241	20507
891.364	20408
891.488	20613
891.611	20537
891.734	20419
891.857	20560
891.98	20446
892.103	20526
892.226	20450
892.349	20336
892.471	20187
892.594	20259
892.717	20488
892.839	20195
892.962	20347
893.085	20552
893.207	20263
893.33	20301
893.452	20210
893.575	20301
893.697	20347
893.819	20503
893.941	20514
894.064	20446
894.186	20305
894.308	20282
894.43	20427
894.552	20484
894.674	20442
894.796	20199
894.918	20240
895.04	20294
895.161	20351
895.283	20385
895.405	20313
895.526	20282
895.648	20240
895.769	20336
895.891	20248
896.012	20427
896.134	20396
896.255	20423
896.376	20294
896.498	20309
896.619	20389
896.74	20400
896.861	20381
896.982	20712
897.103	20864
897.224	20571
897.345	20541
897.466	20545
897.587	20450
897.708	20648
897.828	20564
897.949	20530
898.07	20358
898.19	20564
898.311	20621
898.431	20419
898.552	20583
898.672	20526
898.792	20583
898.913	20617
899.033	20507
899.153	20461
899.273	20180
899.393	20267
899.513	20381
899.633	20305
899.753	20332
899.873	20343
899.993	20275
900.113	20157
900.232	20381
900.352	20161
900.472	20195
900.591	19982
900.711	20084
900.83	19898
900.95	20081
901.069	20161
901.189	19974
901.308	19837
901.427	19620
901.546	19647
901.665	19712
901.784	19681
901.904	19521
902.023	19464
902.141	19225
902.26	19148
902.379	19297
902.498	19171
902.617	19221
902.735	19221
902.854	19152
902.973	19038
903.091	18878
903.21	18829
903.328	18802
903.446	18760
903.565	18616
903.683	18642
903.801	18555
903.919	18681
904.038	18509
904.156	18365
904.274	18346
904.392	18426
904.51	18369
904.627	18391
904.745	18410
904.863	18418
904.981	18254
905.098	18007
905.216	18007
905.334	18186
905.451	18091
905.569	17996
905.686	18129
905.803	17973
905.921	17863
906.038	17977
906.155	17863
906.272	17798
906.389	17817
906.506	17551
906.623	17592
906.74	17611
906.857	17478
906.974	17524
907.091	17668
907.208	17653
907.324	17562
907.441	17486
907.557	17258
907.674	17265
907.79	17296
907.907	17315
908.023	17353
908.139	17341
908.256	17239
908.372	17178
908.488	17170
908.604	17064
908.72	17010
908.836	16968
908.952	16980
909.068	17094
909.184	17109
909.3	17113
909.415	17113
909.531	17006
909.647	16805
909.762	16744
909.878	16774
909.993	16771
910.108	16771
910.224	16733
910.339	16782
910.454	16531
910.57	16569
910.685	16405
910.8	16641
910.915	16679
911.03	16500
911.145	16432
911.259	16348
911.374	16329
911.489	16185
911.604	16249
911.718	16067
911.833	16082
911.947	15953
912.062	15892
912.176	16082
912.291	15964
912.405	16090
912.519	16268
912.633	16287
912.748	16090
912.862	15911
912.976	15838
913.09	15755
913.204	15789
913.318	15911
913.431	15956
913.545	15953
913.659	15972
913.772	15831
913.886	15671
914	15618
914.113	15694
914.226	15789
914.34	15785
914.453	15618
914.566	15682
914.68	15485
914.793	15614
914.906	15386
915.019	15245
915.132	15272
915.245	15344
915.358	15329
915.47	15283
915.583	15344
915.696	15332
915.809	15439
915.921	15412
916.034	15108
916.146	15097
916.259	15123
916.371	15321
916.483	15245
916.595	15173
916.708	15100
916.82	15097
916.932	15047
917.044	15055
917.156	15077
917.268	14933
917.38	14792
917.491	14910
917.603	14895
917.715	15009
917.826	15020
917.938	14914
918.049	14705
918.161	14777
918.272	15009
918.384	14944
918.495	14830
918.606	14739
918.717	14621
918.828	14754
918.939	14773
919.05	14465
919.161	14670
919.272	14457
919.383	14533
919.494	14678
919.604	14891
919.715	14739
919.826	14499
919.936	14579
920.047	14686
920.157	14598
920.267	14724
920.378	14575
920.488	14518
920.598	14724
920.708	14960
920.818	14785
920.928	14746
921.038	14921
921.148	14845
921.258	14583
921.368	14465
921.477	14450
921.587	14294
921.697	14275
921.806	14332
921.916	14240
922.025	13986
922.134	13974
922.244	13936
922.353	14031
922.462	13883
922.571	13708
922.68	13636
922.789	13643
922.898	13628
923.007	13559
923.116	13636
923.224	13590
923.333	13529
923.442	13540
923.55	13495
923.659	13544
923.767	13586
923.876	13346
923.984	13563
924.092	13362
924.201	13422
924.309	13407
924.417	13335
924.525	13362
924.633	13373
924.741	14134
924.849	13050
924.956	13232
925.064	13122
925.172	13129
925.279	12981
925.387	13152
925.494	13076
925.602	13137
925.709	13084
925.816	13050
925.924	13031
926.031	13057
926.138	13012
926.245	13034
926.352	12935
926.459	12977
926.566	13107
926.673	12962
926.779	12772
926.886	12856
926.993	12681
927.099	12555
927.206	12604
927.312	12555
927.419	12688
927.525	12623
927.631	12650
927.737	12467
927.843	12441
927.95	12346
928.056	12429
928.162	12494
928.267	12464
928.373	13149
928.479	12513
928.585	12262
928.69	12330
928.796	12456
928.901	12308
929.007	12182
929.112	12361
929.218	12266
929.323	12201
929.428	12213
929.533	12361
929.638	12019
929.743	12072
929.848	12148
929.953	12038
930.058	11958
930.163	11821
930.267	11923
930.372	11958
930.477	11775
930.581	12041
930.685	11832
930.79	11726
930.894	11745
930.998	11688
931.103	11733
931.207	11505
931.311	11360
931.415	11280
931.519	11079
931.623	11056
