Data from test_V78500241_3114.txt Node
Date: Fri Mar 25 15:31:32 CST 2022
User: usil
Spectrometer: V785-0024
Trigger mode: 0
Integration Time (sec): 4.000000E-1
Scans to average: 1
Nonlinearity correction enabled: false
Boxcar width: 0
Storing dark spectrum: false
XAxis mode: Wavelengths
Number of Pixels in Spectrum: 1024
>>>>>Begin Spectral Data<<<<<
801.071	26712
801.214	26568
801.356	26484
801.499	26377
801.641	26317
801.783	26263
801.926	26256
802.068	26183
802.211	26225
802.353	26176
802.496	25906
802.638	25879
802.78	26027
802.923	25814
803.065	25727
803.208	25651
803.35	25723
803.492	25963
803.635	26168
803.777	25837
803.919	25982
804.061	26286
804.204	26043
804.346	25932
804.488	25875
804.63	25940
804.773	25742
804.915	25959
805.057	26084
805.199	25902
805.341	26020
805.483	26149
805.626	26126
805.768	26058
805.91	26138
806.052	26092
806.194	25951
806.336	26370
806.478	26073
806.62	26107
806.762	26058
806.904	26237
807.046	26727
807.188	26404
807.33	26583
807.472	26495
807.614	26465
807.756	26541
807.898	26221
808.04	26244
808.182	26202
808.324	26244
808.465	26415
808.607	26651
808.749	26670
808.891	26872
809.033	26891
809.174	26727
809.316	26644
809.458	26697
809.6	26549
809.741	26781
809.883	26807
810.025	26940
810.166	27043
810.308	27017
810.45	26918
810.591	26868
810.733	26758
810.875	26655
811.016	26598
811.158	26545
811.299	26811
811.441	26838
811.582	26777
811.724	26556
811.865	26587
812.007	26670
812.148	26686
812.29	26621
812.431	26880
812.573	27024
812.714	27112
812.855	27108
812.997	27245
813.138	27310
813.279	27321
813.421	27180
813.562	27020
813.703	26895
813.845	26830
813.986	26621
814.127	26511
814.268	26305
814.41	26324
814.551	26206
814.692	26408
814.833	26366
814.974	26244
815.115	26336
815.256	26168
815.397	26138
815.539	26145
815.68	26081
815.821	26103
815.962	26191
816.103	26058
816.244	25894
816.385	25791
816.526	25894
816.666	25613
816.807	25476
816.948	25616
817.089	25685
817.23	25460
817.371	25510
817.512	25449
817.653	25518
817.793	25590
817.934	25487
818.075	25537
818.216	25559
818.356	25540
818.497	25548
818.638	25266
818.778	25171
818.919	25297
819.06	25384
819.2	25472
819.341	25388
819.481	25415
819.622	25738
819.762	25833
819.903	25727
820.043	25696
820.184	25674
820.324	25613
820.465	25563
820.605	25601
820.746	25704
820.886	25514
821.026	25575
821.167	25563
821.307	25563
821.447	25529
821.588	25502
821.728	25362
821.868	25293
822.008	25114
822.149	25000
822.289	24966
822.429	24779
822.569	24806
822.709	24700
822.849	24528
822.99	24471
823.13	24464
823.27	24399
823.41	24232
823.55	24159
823.69	24407
823.83	24285
823.97	24258
824.11	24057
824.25	24064
824.389	24091
824.529	24258
824.669	24068
824.809	24152
824.949	24273
825.089	24110
825.228	24129
825.368	23939
825.508	24038
825.648	23878
825.787	23866
825.927	24007
826.067	23889
826.206	24034
826.346	24095
826.485	23996
826.625	24064
826.765	23942
826.904	24110
827.044	23729
827.183	23798
827.323	23653
827.462	23710
827.601	23863
827.741	23642
827.88	23649
828.02	23455
828.159	23585
828.298	23741
828.437	23790
828.577	23573
828.716	23817
828.855	23554
828.994	23414
829.134	23318
829.273	23467
829.412	23467
829.551	23448
829.69	23364
829.829	23383
829.968	23516
830.107	23520
830.246	23296
830.385	23246
830.524	23250
830.663	23109
830.802	23071
830.941	22934
831.08	22934
831.219	23029
831.357	23147
831.496	23147
831.635	22980
831.774	22965
831.913	22869
832.051	22793
832.19	22767
832.329	22877
832.467	22672
832.606	22603
832.744	22618
832.883	22656
833.022	22668
833.16	22713
833.299	22660
833.437	22641
833.576	22717
833.714	22713
833.852	22755
833.991	22748
834.129	22812
834.267	22873
834.406	22744
834.544	22957
834.682	22752
834.821	22778
834.959	22889
835.097	22786
835.235	22797
835.373	22771
835.511	22752
835.65	22607
835.788	22557
835.926	22451
836.064	22287
836.202	22466
836.34	22546
836.478	22531
836.615	22516
836.753	22615
836.891	22542
837.029	22592
837.167	22538
837.305	22398
837.443	22493
837.58	22413
837.718	22489
837.856	22386
837.993	22341
838.131	22382
838.269	22352
838.406	22356
838.544	22234
838.681	22097
838.819	22082
838.956	21857
839.094	21895
839.231	21899
839.369	22181
839.506	22329
839.643	22158
839.781	21956
839.918	21819
840.055	21937
840.193	21819
840.33	21880
840.467	21728
840.604	21979
840.742	22143
840.879	21705
841.016	21808
841.153	21694
841.29	21994
841.427	21751
841.564	21934
841.701	21812
841.838	21804
841.975	21797
842.112	21846
842.249	21751
842.385	21606
842.522	21888
842.659	21660
842.796	21690
842.933	21583
843.069	21595
843.206	21641
843.343	21523
843.479	21633
843.616	21660
843.752	21405
843.889	21466
844.025	21466
844.162	21397
844.298	21458
844.435	21416
844.571	21348
844.708	21298
844.844	21450
844.98	21530
845.117	21416
845.253	21344
845.389	21214
845.525	21325
845.661	21222
845.798	21089
845.934	21241
846.07	21020
846.206	21275
846.342	21169
846.478	21074
846.614	20944
846.75	20876
846.886	20762
847.022	20956
847.158	20952
847.294	20963
847.429	20910
847.565	20861
847.701	21085
847.837	20571
847.972	20590
848.108	20697
848.244	20670
848.379	20571
848.515	20461
848.65	20465
848.786	20530
848.921	20495
849.057	20594
849.192	20469
849.328	20454
849.463	20526
849.598	20400
849.734	20366
849.869	20343
850.004	20172
850.14	20267
850.275	20263
850.41	20157
850.545	20244
850.68	20320
850.815	20180
850.95	20248
851.085	20415
851.22	20286
851.355	20275
851.49	20172
851.625	20256
851.76	20282
851.895	20195
852.03	20176
852.165	20256
852.299	20305
852.434	20305
852.569	20210
852.703	20183
852.838	20240
852.973	20301
853.107	20336
853.242	20229
853.376	20180
853.511	19906
853.645	20008
853.78	20122
853.914	20100
854.048	20069
854.183	20020
854.317	20065
854.451	20225
854.585	20084
854.72	20065
854.854	20214
854.988	19951
855.122	20115
855.256	19978
855.39	20062
855.524	20077
855.658	20100
855.792	20195
855.926	20065
856.06	20145
856.194	20176
856.327	19947
856.461	20039
856.595	19947
856.729	20050
856.862	20035
856.996	20062
857.13	20077
857.263	20240
857.397	20168
857.53	20084
857.664	20111
857.797	20145
857.931	20096
858.064	20016
858.197	20176
858.331	20058
858.464	19978
858.597	19852
858.731	20020
858.864	20069
858.997	19993
859.13	20081
859.263	19970
859.396	20176
859.529	20092
859.662	20012
859.795	19963
859.928	20107
860.061	20225
860.194	20301
860.327	20043
860.46	20081
860.592	20187
860.725	20164
860.858	20103
860.99	20054
861.123	19936
861.256	20046
861.388	20073
861.521	20533
861.653	20001
861.786	19890
861.918	19925
862.05	19997
862.183	20050
862.315	20027
862.447	20073
862.58	19997
862.712	19742
862.844	19727
862.976	19955
863.108	19833
863.24	20142
863.372	19769
863.504	19791
863.636	19780
863.768	19833
863.9	19826
864.032	19757
864.164	19693
864.296	19947
864.428	19913
864.559	19947
864.691	19769
864.823	19845
864.954	19769
865.086	19738
865.217	19738
865.349	19738
865.48	19689
865.612	19731
865.743	19940
865.875	19666
866.006	19548
866.137	19700
866.269	19677
866.4	19727
866.531	19647
866.662	19597
866.793	19590
866.924	19620
867.055	19704
867.186	19731
867.317	19609
867.448	19506
867.579	19575
867.71	19575
867.841	19499
867.972	19605
868.103	19624
868.233	19712
868.364	19670
868.495	19742
868.625	19837
868.756	19894
868.886	19750
869.017	19742
869.147	20035
869.278	19814
869.408	19917
869.539	19909
869.669	20005
869.799	19993
869.929	20115
870.06	19967
870.19	20176
870.32	20214
870.45	20157
870.58	20282
870.71	20332
870.84	20347
870.97	20191
871.1	20317
871.23	20457
871.36	20374
871.489	20473
871.619	20408
871.749	20473
871.879	20522
872.008	20598
872.138	20552
872.267	20507
872.397	20324
872.526	20256
872.656	20317
872.785	20305
872.915	20564
873.044	20568
873.173	20537
873.303	20480
873.432	20552
873.561	20560
873.69	20480
873.819	20480
873.948	20602
874.077	20533
874.206	20469
874.335	20446
874.464	20701
874.593	20781
874.722	20636
874.851	20765
874.979	20724
875.108	20811
875.237	20655
875.365	20720
875.494	20773
875.623	20982
875.751	20743
875.88	20918
876.008	20944
876.136	21005
876.265	21157
876.393	21363
876.521	21233
876.65	21169
876.778	21199
876.906	21218
877.034	20986
877.162	21066
877.29	21013
877.418	21195
877.546	21226
877.674	21081
877.802	21131
877.93	21131
878.058	21066
878.185	21142
878.313	21085
878.441	20963
878.568	20948
878.696	21009
878.824	21207
878.951	21188
879.079	21233
879.206	21298
879.333	21466
879.461	21131
879.588	21279
879.715	21287
879.842	21386
879.97	21241
880.097	20948
880.224	20918
880.351	21024
880.478	21020
880.605	20868
880.732	20982
880.859	21112
880.986	21085
881.112	20975
881.239	20883
881.366	20598
881.493	20674
881.619	20613
881.746	20663
881.872	20514
881.999	20499
882.125	20465
882.252	20537
882.378	20514
882.505	20492
882.631	20431
882.757	20282
882.883	20248
883.01	20180
883.136	20172
883.262	20199
883.388	20096
883.514	20191
883.64	20347
883.766	20278
883.892	20081
884.018	20024
884.143	20324
884.269	20317
884.395	19967
884.52	19932
884.646	19936
884.772	19780
884.897	19909
885.023	19928
885.148	20027
885.274	20096
885.399	19871
885.524	19997
885.65	19921
885.775	20008
885.9	19947
886.025	20008
886.15	19986
886.275	19833
886.4	19879
886.525	19818
886.65	19864
886.775	19898
886.9	20073
887.025	20187
887.149	19852
887.274	19742
887.399	19628
887.523	19643
887.648	19689
887.773	19704
887.897	19799
888.021	19674
888.146	19658
888.27	19883
888.395	19784
888.519	19795
888.643	19715
888.767	19734
888.891	19559
889.015	19480
889.139	19563
889.263	19472
889.387	19658
889.511	19674
889.635	19578
889.759	19449
889.883	19571
890.006	19571
890.13	19635
890.254	19441
890.377	19403
890.501	19232
890.624	19263
890.748	19346
890.871	19228
890.995	19046
891.118	19053
891.241	19164
891.364	19183
891.488	19244
891.611	19008
891.734	19061
891.857	19259
891.98	19053
892.103	19194
892.226	19053
892.349	19050
892.471	18878
892.594	19095
892.717	18996
892.839	18977
892.962	19168
893.085	19190
893.207	19042
893.33	18901
893.452	19004
893.575	19076
893.697	18924
893.819	19099
893.941	19129
894.064	19141
894.186	19023
894.308	18871
894.43	19114
894.552	19118
894.674	19164
894.796	19012
894.918	18954
895.04	18962
895.161	19065
895.283	19053
895.405	19057
895.526	19038
895.648	18920
895.769	19042
895.891	19164
896.012	19084
896.134	19053
896.255	19050
896.376	19034
896.498	18954
896.619	19080
896.74	18993
896.861	19141
896.982	19346
897.103	19434
897.224	19274
897.345	19407
897.466	19194
897.587	19350
897.708	19441
897.828	19312
897.949	19339
898.07	19122
898.19	19263
898.311	19381
898.431	19187
898.552	19403
898.672	19335
898.792	19308
898.913	19354
899.033	19213
899.153	19179
899.273	19069
899.393	19069
899.513	19122
899.633	19103
899.753	19141
899.873	18970
899.993	19152
900.113	19141
900.232	19088
900.352	19084
900.472	18890
900.591	18829
900.711	18749
900.83	18817
900.95	18958
901.069	18943
901.189	18821
901.308	18597
901.427	18506
901.546	18475
901.665	18448
901.784	18410
901.904	18304
902.023	18201
902.141	18079
902.26	18022
902.379	18003
902.498	17961
902.617	17878
902.735	17984
902.854	17882
902.973	17863
903.091	17509
903.21	17676
903.328	17661
903.446	17474
903.565	17516
903.683	17440
903.801	17425
903.919	17353
904.038	17379
904.156	17337
904.274	17353
904.392	17223
904.51	17151
904.627	17288
904.745	17258
904.863	17193
904.981	17056
905.098	16904
905.216	17064
905.334	16900
905.451	16873
905.569	16953
905.686	17018
905.803	16949
905.921	16641
906.038	16805
906.155	16744
906.272	16603
906.389	16626
906.506	16440
906.623	16618
906.74	16527
906.857	16329
906.974	16329
907.091	16535
907.208	16417
907.324	16489
907.441	16341
907.557	16238
907.674	16181
907.79	16128
907.907	16207
908.023	16234
908.139	16105
908.256	16139
908.372	16101
908.488	16051
908.604	15842
908.72	15888
908.836	15937
908.952	15918
909.068	15865
909.184	15949
909.3	15903
909.415	15869
909.531	15865
909.647	15671
909.762	15660
909.878	15519
909.993	15595
910.108	15595
910.224	15549
910.339	15584
910.454	15454
910.57	15462
910.685	15268
910.8	15701
910.915	15580
911.03	15454
911.145	15222
911.259	15310
911.374	15260
911.489	15188
911.604	15165
911.718	14994
911.833	15039
911.947	14971
912.062	14845
912.176	15020
912.291	15039
912.405	14963
912.519	15222
912.633	15135
912.748	15047
912.862	14921
912.976	14880
913.09	14712
913.204	14811
913.318	14857
913.431	14948
913.545	14838
913.659	14899
913.772	14781
913.886	14667
914	14625
914.113	14651
914.226	14651
914.34	14754
914.453	14571
914.566	14746
914.68	14533
914.793	14480
914.906	14343
915.019	14305
915.132	14187
915.245	14259
915.358	14267
915.47	14267
915.583	14275
915.696	14218
915.809	14389
915.921	14336
916.034	14221
916.146	14138
916.259	14119
916.371	14259
916.483	14248
916.595	14111
916.708	14103
916.82	14157
916.932	13997
917.044	14065
917.156	14046
917.268	13909
917.38	13932
917.491	13951
917.603	14005
917.715	14073
917.826	14126
917.938	13860
918.049	13746
918.161	13917
918.272	14058
918.384	14081
918.495	13940
918.606	13696
918.717	13636
918.828	13704
918.939	13822
919.05	13674
919.161	13704
919.272	13548
919.383	13544
919.494	13753
919.604	13963
919.715	13647
919.826	13655
919.936	13636
920.047	13757
920.157	13795
920.267	13978
920.378	13772
920.488	13647
920.598	13936
920.708	14084
920.818	13811
920.928	13875
921.038	14020
921.148	13974
921.258	13696
921.368	13594
921.477	13552
921.587	13495
921.697	13232
921.806	13343
921.916	13304
922.025	13156
922.134	13129
922.244	13069
922.353	13099
922.462	12993
922.571	12886
922.68	12859
922.789	12730
922.898	12776
923.007	12673
923.116	12719
923.224	12772
923.333	12734
923.442	12627
923.55	12597
923.659	12669
923.767	12635
923.876	12506
923.984	12582
924.092	12445
924.201	12517
924.309	12517
924.417	12471
924.525	12445
924.633	12426
924.741	13396
924.849	12266
924.956	12369
925.064	12251
925.172	12205
925.279	12235
925.387	12144
925.494	12243
925.602	12254
925.709	12258
925.816	12216
925.924	12114
926.031	12243
926.138	12182
926.245	12232
926.352	12140
926.459	12243
926.566	12296
926.673	12148
926.779	12038
926.886	12007
926.993	11878
927.099	11863
927.206	11843
927.312	11786
927.419	11920
927.525	11771
927.631	11840
927.737	11745
927.843	11691
927.95	11528
928.056	11577
928.162	11611
928.267	11756
928.373	12357
928.479	11718
928.585	11528
928.69	11596
928.796	11665
928.901	11547
929.007	11341
929.112	11497
929.218	11395
929.323	11455
929.428	11395
929.533	11543
929.638	11356
929.743	11353
929.848	11303
929.953	11284
930.058	11212
930.163	11052
930.267	11113
930.372	11296
930.477	11113
930.581	11269
930.685	11162
930.79	10915
930.894	11090
930.998	10968
931.103	11079
931.207	10744
931.311	10660
931.415	10596
931.519	10485
931.623	10424
