Data from test_V78500241_2374.txt Node
Date: Fri Mar 25 15:26:23 CST 2022
User: usil
Spectrometer: V785-0024
Trigger mode: 0
Integration Time (sec): 4.000000E-1
Scans to average: 1
Nonlinearity correction enabled: false
Boxcar width: 0
Storing dark spectrum: false
XAxis mode: Wavelengths
Number of Pixels in Spectrum: 1024
>>>>>Begin Spectral Data<<<<<
801.071	27526
801.214	27321
801.356	27329
801.499	27264
801.641	27017
801.783	27070
801.926	27009
802.068	27047
802.211	26861
802.353	27017
802.496	26632
802.638	26727
802.78	26625
802.923	26629
803.065	26541
803.208	26613
803.35	26651
803.492	26883
803.635	26910
803.777	26792
803.919	26895
804.061	27211
804.204	26937
804.346	26746
804.488	26838
804.63	26746
804.773	26838
804.915	26857
805.057	26876
805.199	26830
805.341	27017
805.483	26937
805.626	26876
805.768	26857
805.91	26849
806.052	27005
806.194	26921
806.336	27077
806.478	26971
806.62	26895
806.762	27138
806.904	27146
807.046	27488
807.188	27340
807.33	27386
807.472	27386
807.614	27211
807.756	27321
807.898	27252
808.04	27108
808.182	27150
808.324	27260
808.465	27275
808.607	27351
808.749	27633
808.891	27652
809.033	27682
809.174	27576
809.316	27523
809.458	27564
809.6	27477
809.741	27576
809.883	27713
810.025	27762
810.166	27842
810.308	27854
810.45	27728
810.591	27804
810.733	27660
810.875	27427
811.016	27317
811.158	27450
811.299	27633
811.441	27561
811.582	27755
811.724	27587
811.865	27523
812.007	27485
812.148	27443
812.29	27720
812.431	27759
812.573	27797
812.714	27934
812.855	28010
812.997	28131
813.138	28314
813.279	28211
813.421	28013
813.562	28090
813.703	27914
813.845	27819
813.986	27431
814.127	27313
814.268	27214
814.41	27412
814.551	27188
814.692	27336
814.833	27226
814.974	27188
815.115	27256
815.256	27195
815.397	27173
815.539	27051
815.68	26956
815.821	26868
815.962	26948
816.103	27081
816.244	26823
816.385	26804
816.526	26842
816.666	26511
816.807	26473
816.948	26632
817.089	26518
817.23	26495
817.371	26442
817.512	26511
817.653	26465
817.793	26275
817.934	26499
818.075	26518
818.216	26412
818.356	26374
818.497	26347
818.638	26221
818.778	26145
818.919	26290
819.06	26267
819.2	26499
819.341	26469
819.481	26431
819.622	26651
819.762	26807
819.903	26743
820.043	26640
820.184	26594
820.324	26545
820.465	26697
820.605	26640
820.746	26431
820.886	26450
821.026	26545
821.167	26514
821.307	26640
821.447	26404
821.588	26301
821.728	26351
821.868	26043
822.008	26005
822.149	26058
822.289	25966
822.429	25761
822.569	25639
822.709	25693
822.849	25540
822.99	25468
823.13	25464
823.27	25354
823.41	25320
823.55	25148
823.69	25251
823.83	25388
823.97	25156
824.11	25110
824.25	24954
824.389	25107
824.529	25247
824.669	25133
824.809	25099
824.949	25152
825.089	25042
825.228	25179
825.368	24890
825.508	25000
825.648	24909
825.787	25038
825.927	24966
826.067	24795
826.206	25008
826.346	24924
826.485	24989
826.625	24973
826.765	24920
826.904	25072
827.044	24757
827.183	24738
827.323	24604
827.462	24749
827.601	24658
827.741	24612
827.88	24692
828.02	24505
828.159	24601
828.298	24642
828.437	24551
828.577	24536
828.716	24783
828.855	24566
828.994	24338
829.134	24300
829.273	24304
829.412	24422
829.551	24178
829.69	24372
829.829	24418
829.968	24365
830.107	24437
830.246	24311
830.385	24330
830.524	24289
830.663	24117
830.802	23893
830.941	24087
831.08	23847
831.219	24102
831.357	23980
831.496	24289
831.635	23946
831.774	23920
831.913	23870
832.051	23718
832.19	23889
832.329	23764
832.467	23600
832.606	23642
832.744	23623
832.883	23699
833.022	23589
833.16	23611
833.299	23627
833.437	23775
833.576	23764
833.714	23707
833.852	23741
833.991	23756
834.129	23790
834.267	23668
834.406	23714
834.544	23790
834.682	23714
834.821	23737
834.959	23760
835.097	23680
835.235	23840
835.373	23619
835.511	23729
835.65	23714
835.788	23467
835.926	23566
836.064	23356
836.202	23421
836.34	23524
836.478	23627
836.615	23417
836.753	23600
836.891	23539
837.029	23608
837.167	23471
837.305	23474
837.443	23524
837.58	23414
837.718	23429
837.856	23391
837.993	23292
838.131	23296
838.269	23220
838.406	23193
838.544	23105
838.681	23041
838.819	23029
838.956	22850
839.094	22938
839.231	22984
839.369	23121
839.506	23197
839.643	23105
839.781	22801
839.918	22786
840.055	22850
840.193	22839
840.33	22790
840.467	22793
840.604	22824
840.742	22972
840.879	22668
841.016	22809
841.153	22607
841.29	22911
841.427	22649
841.564	22805
841.701	22869
841.838	22774
841.975	22664
842.112	22744
842.249	22637
842.385	22569
842.522	22733
842.659	22569
842.796	22527
842.933	22542
843.069	22512
843.206	22459
843.343	22706
843.479	22504
843.616	22653
843.752	22402
843.889	22333
844.025	22485
844.162	22318
844.298	22413
844.435	22348
844.571	22143
844.708	22314
844.844	22402
844.98	22417
845.117	22394
845.253	22249
845.389	22169
845.525	22356
845.661	22192
845.798	22135
845.934	22070
846.07	22006
846.206	22063
846.342	22230
846.478	21903
846.614	21835
846.75	21755
846.886	21827
847.022	21930
847.158	21793
847.294	21899
847.429	21994
847.565	21686
847.701	22067
847.837	21542
847.972	21507
848.108	21515
848.244	21564
848.379	21359
848.515	21428
848.65	21370
848.786	21412
848.921	21298
849.057	21397
849.192	21485
849.328	21374
849.463	21481
849.598	21275
849.734	21321
849.869	21214
850.004	21195
850.14	21207
850.275	21165
850.41	21039
850.545	21043
850.68	21055
850.815	21173
850.95	21104
851.085	21382
851.22	21241
851.355	21260
851.49	21165
851.625	21081
851.76	21112
851.895	21036
852.03	20971
852.165	21100
852.299	21222
852.434	21150
852.569	21150
852.703	21138
852.838	21173
852.973	21218
853.107	21260
853.242	21013
853.376	21074
853.511	20838
853.645	21020
853.78	21089
853.914	20956
854.048	20887
854.183	21039
854.317	21039
854.451	21131
854.585	21017
854.72	20986
854.854	20990
854.988	20990
855.122	20868
855.256	20914
855.39	20899
855.524	20998
855.658	21108
855.792	21032
855.926	21036
856.06	21074
856.194	21005
856.327	20975
856.461	20845
856.595	20944
856.729	20933
856.862	21123
856.996	21039
857.13	21112
857.263	21100
857.397	20963
857.53	20990
857.664	21062
857.797	21081
857.931	21199
858.064	20975
858.197	21028
858.331	20994
858.464	20857
858.597	20914
858.731	20895
858.864	20941
858.997	20975
859.13	21085
859.263	21036
859.396	20967
859.529	20956
859.662	20937
859.795	21047
859.928	21074
860.061	21142
860.194	21119
860.327	21161
860.46	20998
860.592	21081
860.725	21146
860.858	21108
860.99	21180
861.123	20963
861.256	21047
861.388	21043
861.521	21454
861.653	20857
861.786	20838
861.918	20853
862.05	20998
862.183	20914
862.315	20986
862.447	21036
862.58	20975
862.712	20807
862.844	20636
862.976	20838
863.108	20845
863.24	21218
863.372	20686
863.504	20701
863.636	20621
863.768	20735
863.9	20659
864.032	20773
864.164	20674
864.296	20667
864.428	20849
864.559	20773
864.691	20724
864.823	20750
864.954	20762
865.086	20758
865.217	20750
865.349	20545
865.48	20636
865.612	20697
865.743	20750
865.875	20648
866.006	20663
866.137	20556
866.269	20682
866.4	20537
866.531	20663
866.662	20560
866.793	20526
866.924	20549
867.055	20575
867.186	20613
867.317	20522
867.448	20499
867.579	20575
867.71	20495
867.841	20389
867.972	20674
868.103	20602
868.233	20613
868.364	20598
868.495	20598
868.625	20788
868.756	20845
868.886	20743
869.017	20807
869.147	20868
869.278	20880
869.408	20804
869.539	20750
869.669	20979
869.799	20769
869.929	20937
870.06	20914
870.19	21169
870.32	21108
870.45	21154
870.58	21119
870.71	21241
870.84	21298
870.97	21203
871.1	21138
871.23	21256
871.36	21374
871.489	21272
871.619	21317
871.749	21344
871.879	21416
872.008	21542
872.138	21382
872.267	21401
872.397	21355
872.526	21211
872.656	21344
872.785	21237
872.915	21428
873.044	21534
873.173	21378
873.303	21389
873.432	21454
873.561	21557
873.69	21401
873.819	21374
873.948	21389
874.077	21568
874.206	21359
874.335	21313
874.464	21523
874.593	21694
874.722	21686
874.851	21576
874.979	21625
875.108	21545
875.237	21618
875.365	21507
875.494	21557
875.623	21770
875.751	21637
875.88	21701
876.008	21759
876.136	21850
876.265	22029
876.393	22154
876.521	22120
876.65	22135
876.778	22021
876.906	21918
877.034	21945
877.162	22097
877.29	21918
877.418	21949
877.546	21994
877.674	21884
877.802	22006
877.93	22074
878.058	21869
878.185	21918
878.313	21915
878.441	21937
878.568	21838
878.696	21865
878.824	21907
878.951	22074
879.079	22230
879.206	22253
879.333	22185
879.461	22036
879.588	22067
879.715	22105
879.842	22295
879.97	22177
880.097	21835
880.224	21804
880.351	21861
880.478	21823
880.605	21778
880.732	21869
880.859	22051
880.986	21854
881.112	21895
881.239	21660
881.366	21622
881.493	21553
881.619	21454
881.746	21466
881.872	21279
881.999	21367
882.125	21222
882.252	21431
882.378	21363
882.505	21523
882.631	21184
882.757	21203
882.883	21245
883.01	21047
883.136	21150
883.262	21001
883.388	21017
883.514	21058
883.64	21104
883.766	21062
883.892	20906
884.018	20921
884.143	21032
884.269	21043
884.395	20838
884.52	20773
884.646	20697
884.772	20682
884.897	20590
885.023	20758
885.148	20792
885.274	20838
885.399	20819
885.524	20693
885.65	20807
885.775	20773
885.9	20678
886.025	20876
886.15	20815
886.275	20712
886.4	20594
886.525	20762
886.65	20712
886.775	20754
886.9	20914
887.025	20861
887.149	20796
887.274	20564
887.399	20560
887.523	20476
887.648	20495
887.773	20442
887.897	20541
888.021	20556
888.146	20442
888.27	20594
888.395	20594
888.519	20514
888.643	20560
888.767	20594
888.891	20480
889.015	20347
889.139	20404
889.263	20351
889.387	20434
889.511	20473
889.635	20484
889.759	20267
889.883	20362
890.006	20320
890.13	20362
890.254	20256
890.377	20237
890.501	20073
890.624	20145
890.748	20092
890.871	20016
890.995	19845
891.118	19909
891.241	20005
891.364	19894
891.488	19902
891.611	19898
891.734	19879
891.857	19932
891.98	19887
892.103	19928
892.226	19913
892.349	19727
892.471	19799
892.594	19879
892.717	19856
892.839	19689
892.962	19845
893.085	20016
893.207	19788
893.33	19647
893.452	19655
893.575	19917
893.697	19708
893.819	19860
893.941	19955
894.064	19902
894.186	19689
894.308	19822
894.43	19928
894.552	19856
894.674	19807
894.796	19715
894.918	19651
895.04	19826
895.161	19913
895.283	19879
895.405	19822
895.526	19883
895.648	19909
895.769	19734
895.891	19913
896.012	19955
896.134	19826
896.255	19814
896.376	19830
896.498	19818
896.619	19928
896.74	19788
896.861	19784
896.982	20138
897.103	20290
897.224	20050
897.345	20081
897.466	20031
897.587	20069
897.708	20016
897.828	20084
897.949	19951
898.07	19814
898.19	19967
898.311	20107
898.431	19925
898.552	20084
898.672	20111
898.792	20065
898.913	20069
899.033	19932
899.153	19818
899.273	19769
899.393	19890
899.513	19833
899.633	19807
899.753	19883
899.873	19624
899.993	19753
900.113	19818
900.232	19712
900.352	19772
900.472	19647
900.591	19552
900.711	19635
900.83	19544
900.95	19628
901.069	19670
901.189	19510
901.308	19285
901.427	19091
901.546	19255
901.665	19206
901.784	19183
901.904	19084
902.023	18985
902.141	18745
902.26	18760
902.379	18779
902.498	18722
902.617	18555
902.735	18696
902.854	18696
902.973	18551
903.091	18353
903.21	18448
903.328	18338
903.446	18205
903.565	18205
903.683	18216
903.801	18007
903.919	18076
904.038	18060
904.156	17923
904.274	17946
904.392	17935
904.51	17927
904.627	17805
904.745	17969
904.863	17950
904.981	17737
905.098	17615
905.216	17596
905.334	17714
905.451	17630
905.569	17535
905.686	17604
905.803	17581
905.921	17372
906.038	17478
906.155	17368
906.272	17307
906.389	17364
906.506	17223
906.623	17098
906.74	17185
906.857	17121
906.974	17033
907.091	17056
907.208	17189
907.324	17181
907.441	17178
907.557	16911
907.674	16896
907.79	16801
907.907	16763
908.023	16854
908.139	16862
908.256	16839
908.372	16691
908.488	16733
908.604	16603
908.72	16588
908.836	16641
908.952	16550
909.068	16462
909.184	16653
909.3	16504
909.415	16611
909.531	16569
909.647	16382
909.762	16398
909.878	16303
909.993	16280
910.108	16223
910.224	16238
910.339	16303
910.454	16192
910.57	16025
910.685	15987
910.8	16371
910.915	16230
911.03	16067
911.145	15960
911.259	15915
911.374	15972
911.489	15747
911.604	15739
911.718	15633
911.833	15709
911.947	15523
912.062	15454
912.176	15599
912.291	15694
912.405	15690
912.519	15724
912.633	15800
912.748	15667
912.862	15553
912.976	15386
913.09	15450
913.204	15348
913.318	15428
913.431	15481
913.545	15507
913.659	15549
913.772	15344
913.886	15237
914	15291
914.113	15351
914.226	15332
914.34	15313
914.453	15119
914.566	15195
914.68	15146
914.793	15161
914.906	14918
915.019	14918
915.132	14731
915.245	14804
915.358	14975
915.47	14899
915.583	14857
915.696	14796
915.809	14963
915.921	14887
916.034	14720
916.146	14777
916.259	14899
916.371	14853
916.483	14887
916.595	14800
916.708	14849
916.82	14659
916.932	14667
917.044	14712
917.156	14629
917.268	14533
917.38	14492
917.491	14560
917.603	14507
917.715	14590
917.826	14693
917.938	14518
918.049	14431
918.161	14556
918.272	14727
918.384	14579
918.495	14457
918.606	14374
918.717	14191
918.828	14317
918.939	14393
919.05	14191
919.161	14377
919.272	14065
919.383	14176
919.494	14374
919.604	14423
919.715	14358
919.826	14286
919.936	14267
920.047	14290
920.157	14225
920.267	14396
920.378	14320
920.488	14161
920.598	14408
920.708	14579
920.818	14366
920.928	14339
921.038	14545
921.148	14499
921.258	14153
921.368	14134
921.477	13963
921.587	14001
921.697	13909
921.806	13932
921.916	13890
922.025	13727
922.134	13620
922.244	13605
922.353	13776
922.462	13453
922.571	13472
922.68	13320
922.789	13308
922.898	13365
923.007	13213
923.116	13365
923.224	13259
923.333	13240
923.442	13179
923.55	13095
923.659	13183
923.767	13187
923.876	13156
923.984	13099
924.092	13133
924.201	13050
924.309	13012
924.417	13114
924.525	12977
924.633	12909
924.741	13932
924.849	12700
924.956	12867
925.064	12802
925.172	12650
925.279	12726
925.387	12753
925.494	12719
925.602	12844
925.709	12745
925.816	12692
925.924	12684
926.031	12757
926.138	12650
926.245	12662
926.352	12658
926.459	12719
926.566	12719
926.673	12604
926.779	12574
926.886	12483
926.993	12232
927.099	12369
927.206	12155
927.312	12167
927.419	12235
927.525	12262
927.631	12289
927.737	12209
927.843	12049
927.95	12003
928.056	12140
928.162	12110
928.267	12194
928.373	12776
928.479	12186
928.585	11961
928.69	12064
928.796	12106
928.901	11977
929.007	11874
929.112	12072
929.218	12030
929.323	11866
929.428	11897
929.533	12076
929.638	11741
929.743	11756
929.848	11859
929.953	11843
930.058	11688
930.163	11539
930.267	11532
930.372	11691
930.477	11554
930.581	11748
930.685	11619
930.79	11474
930.894	11414
930.998	11334
931.103	11524
931.207	11223
931.311	11174
931.415	11022
931.519	10889
931.623	10828
