Data from test_V78500241_3556.txt Node
Date: Fri Mar 25 15:34:37 CST 2022
User: usil
Spectrometer: V785-0024
Trigger mode: 0
Integration Time (sec): 4.000000E-1
Scans to average: 1
Nonlinearity correction enabled: false
Boxcar width: 0
Storing dark spectrum: false
XAxis mode: Wavelengths
Number of Pixels in Spectrum: 1024
>>>>>Begin Spectral Data<<<<<
801.071	27336
801.214	27378
801.356	26929
801.499	26937
801.641	26853
801.783	26788
801.926	26891
802.068	26853
802.211	26625
802.353	26663
802.496	26530
802.638	26404
802.78	26438
802.923	26393
803.065	26282
803.208	26419
803.35	26514
803.492	26602
803.635	26705
803.777	26575
803.919	26613
804.061	26857
804.204	26689
804.346	26457
804.488	26473
804.63	26609
804.773	26457
804.915	26587
805.057	26674
805.199	26674
805.341	26621
805.483	26777
805.626	26731
805.768	26655
805.91	26788
806.052	26659
806.194	26663
806.336	26849
806.478	26708
806.62	26762
806.762	26735
806.904	27066
807.046	27123
807.188	27009
807.33	27119
807.472	27154
807.614	27119
807.756	27085
807.898	26990
808.04	26906
808.182	26902
808.324	26921
808.465	26971
808.607	27264
808.749	27405
808.891	27348
809.033	27393
809.174	27325
809.316	27275
809.458	27389
809.6	27249
809.741	27545
809.883	27370
810.025	27534
810.166	27599
810.308	27610
810.45	27519
810.591	27587
810.733	27386
810.875	27245
811.016	27203
811.158	27192
811.299	27427
811.441	27477
811.582	27507
811.724	27237
811.865	27184
812.007	27272
812.148	27272
812.29	27325
812.431	27519
812.573	27652
812.714	27701
812.855	27800
812.997	27846
813.138	27956
813.279	27998
813.421	27694
813.562	27728
813.703	27526
813.845	27599
813.986	27233
814.127	26967
814.268	26971
814.41	27058
814.551	26902
814.692	26963
814.833	26933
814.974	26971
815.115	26960
815.256	26861
815.397	26899
815.539	26842
815.68	26857
815.821	26792
815.962	26811
816.103	26792
816.244	26609
816.385	26549
816.526	26499
816.666	26419
816.807	26259
816.948	26259
817.089	26328
817.23	26214
817.371	26309
817.512	26267
817.653	26324
817.793	26301
817.934	26107
818.075	26237
818.216	26233
818.356	26237
818.497	26157
818.638	26092
818.778	25970
818.919	25925
819.06	26016
819.2	26027
819.341	26347
819.481	26267
819.622	26301
819.762	26621
819.903	26514
820.043	26453
820.184	26366
820.324	26275
820.465	26461
820.605	26229
820.746	26271
820.886	26233
821.026	26259
821.167	26343
821.307	26290
821.447	26259
821.588	26195
821.728	26069
821.868	25856
822.008	25746
822.149	25700
822.289	25719
822.429	25441
822.569	25266
822.709	25365
822.849	25228
822.99	25217
823.13	25171
823.27	25080
823.41	24829
823.55	24844
823.69	24951
823.83	25080
823.97	24966
824.11	24840
824.25	24897
824.389	24768
824.529	24920
824.669	24810
824.809	25050
824.949	24939
825.089	24916
825.228	24886
825.368	24795
825.508	24783
825.648	24639
825.787	24700
825.927	24772
826.067	24654
826.206	24715
826.346	24707
826.485	24757
826.625	24585
826.765	24768
826.904	24738
827.044	24532
827.183	24490
827.323	24372
827.462	24388
827.601	24521
827.741	24517
827.88	24490
828.02	24300
828.159	24464
828.298	24353
828.437	24448
828.577	24346
828.716	24544
828.855	24395
828.994	24220
829.134	24095
829.273	24228
829.412	24129
829.551	24087
829.69	24121
829.829	24117
829.968	24098
830.107	24220
830.246	24220
830.385	24072
830.524	24011
830.663	23973
830.802	23859
830.941	23775
831.08	23847
831.219	23817
831.357	23699
831.496	23984
831.635	23714
831.774	23687
831.913	23558
832.051	23501
832.19	23608
832.329	23467
832.467	23391
832.606	23242
832.744	23322
832.883	23364
833.022	23406
833.16	23429
833.299	23497
833.437	23474
833.576	23543
833.714	23414
833.852	23558
833.991	23524
834.129	23558
834.267	23543
834.406	23505
834.544	23505
834.682	23520
834.821	23372
834.959	23551
835.097	23486
835.235	23577
835.373	23509
835.511	23509
835.65	23353
835.788	23322
835.926	23258
836.064	23143
836.202	23178
836.34	23379
836.478	23421
836.615	23315
836.753	23246
836.891	23429
837.029	23398
837.167	23265
837.305	23288
837.443	23254
837.58	23227
837.718	23197
837.856	23189
837.993	23102
838.131	23052
838.269	23048
838.406	23094
838.544	22995
838.681	22801
838.819	22854
838.956	22797
839.094	22713
839.231	22721
839.369	22828
839.506	23037
839.643	22987
839.781	22645
839.918	22649
840.055	22660
840.193	22710
840.33	22592
840.467	22565
840.604	22611
840.742	22881
840.879	22462
841.016	22516
841.153	22394
841.29	22736
841.427	22516
841.564	22645
841.701	22691
841.838	22523
841.975	22588
842.112	22573
842.249	22367
842.385	22523
842.522	22603
842.659	22348
842.796	22329
842.933	22443
843.069	22242
843.206	22223
843.343	22451
843.479	22390
843.616	22516
843.752	22173
843.889	22051
844.025	22318
844.162	22162
844.298	22177
844.435	22257
844.571	22029
844.708	22177
844.844	22246
844.98	22363
845.117	22265
845.253	22143
845.389	22048
845.525	22010
845.661	21991
845.798	21895
845.934	21895
846.07	21816
846.206	21846
846.342	22055
846.478	21880
846.614	21690
846.75	21667
846.886	21660
847.022	21720
847.158	21717
847.294	21576
847.429	21747
847.565	21656
847.701	21899
847.837	21405
847.972	21488
848.108	21283
848.244	21420
848.379	21268
848.515	21252
848.65	21211
848.786	21192
848.921	21127
849.057	21291
849.192	21302
849.328	21279
849.463	21317
849.598	21287
849.734	21062
849.869	20998
850.004	21028
850.14	20994
850.275	20994
850.41	20811
850.545	20986
850.68	20967
850.815	20960
850.95	21017
851.085	21161
851.22	21138
851.355	21108
851.49	20914
851.625	20891
851.76	21039
851.895	20925
852.03	20842
852.165	20952
852.299	20944
852.434	21058
852.569	21089
852.703	20979
852.838	21096
852.973	21058
853.107	21039
853.242	20887
853.376	20785
853.511	20735
853.645	20705
853.78	20933
853.914	20830
854.048	20857
854.183	20724
854.317	20857
854.451	20971
854.585	20788
854.72	20750
854.854	20895
854.988	20826
855.122	20823
855.256	20750
855.39	20777
855.524	20906
855.658	20838
855.792	20769
855.926	20785
856.06	20781
856.194	20971
856.327	20849
856.461	20629
856.595	20754
856.729	20777
856.862	20963
856.996	20689
857.13	20785
857.263	20872
857.397	20857
857.53	20651
857.664	20914
857.797	20811
857.931	20819
858.064	20830
858.197	20773
858.331	20724
858.464	20788
858.597	20716
858.731	20750
858.864	20811
858.997	20887
859.13	20731
859.263	20758
859.396	20864
859.529	20811
859.662	20819
859.795	20735
859.928	20804
860.061	20937
860.194	20883
860.327	20864
860.46	20853
860.592	20823
860.725	20868
860.858	21017
860.99	20887
861.123	20678
861.256	20769
861.388	20872
861.521	21614
861.653	20739
861.786	20629
861.918	20727
862.05	20621
862.183	20720
862.315	20716
862.447	20826
862.58	20807
862.712	20522
862.844	20575
862.976	20594
863.108	20590
863.24	20960
863.372	20526
863.504	20545
863.636	20442
863.768	20480
863.9	20454
864.032	20393
864.164	20514
864.296	20526
864.428	20484
864.559	20533
864.691	20617
864.823	20514
864.954	20518
865.086	20484
865.217	20533
865.349	20450
865.48	20404
865.612	20461
865.743	20530
865.875	20533
866.006	20263
866.137	20343
866.269	20366
866.4	20374
866.531	20332
866.662	20328
866.793	20328
866.924	20385
867.055	20370
867.186	20248
867.317	20229
867.448	20301
867.579	20366
867.71	20138
867.841	20366
867.972	20408
868.103	20294
868.233	20419
868.364	20290
868.495	20404
868.625	20621
868.756	20758
868.886	20541
869.017	20686
869.147	20838
869.278	20663
869.408	20678
869.539	20594
869.669	20739
869.799	20659
869.929	20701
870.06	20746
870.19	20868
870.32	20857
870.45	21017
870.58	20906
870.71	21077
870.84	21093
870.97	20994
871.1	20929
871.23	21138
871.36	21199
871.489	21211
871.619	21188
871.749	21142
871.879	21150
872.008	21306
872.138	21291
872.267	21165
872.397	21112
872.526	21108
872.656	21119
872.785	21024
872.915	21241
873.044	21367
873.173	21279
873.303	21336
873.432	21340
873.561	21268
873.69	21351
873.819	21100
873.948	21237
874.077	21180
874.206	21302
874.335	21188
874.464	21291
874.593	21420
874.722	21401
874.851	21511
874.979	21515
875.108	21492
875.237	21420
875.365	21405
875.494	21367
875.623	21580
875.751	21428
875.88	21549
876.008	21648
876.136	21690
876.265	21987
876.393	21953
876.521	21956
876.65	21915
876.778	21869
876.906	21804
877.034	21770
877.162	21797
877.29	21751
877.418	21857
877.546	21747
877.674	21747
877.802	21705
877.93	21797
878.058	21781
878.185	21713
878.313	21686
878.441	21705
878.568	21675
878.696	21797
878.824	21934
878.951	21892
879.079	21922
879.206	22109
879.333	22017
879.461	21899
879.588	21934
879.715	21983
879.842	22177
879.97	21979
880.097	21637
880.224	21682
880.351	21713
880.478	21671
880.605	21671
880.732	21694
880.859	21899
880.986	21637
881.112	21667
881.239	21526
881.366	21382
881.493	21447
881.619	21306
881.746	21233
881.872	21188
881.999	21287
882.125	21264
882.252	21321
882.378	21199
882.505	21340
882.631	21081
882.757	20887
882.883	21043
883.01	20883
883.136	20842
883.262	20868
883.388	20899
883.514	20921
883.64	21062
883.766	20948
883.892	20705
884.018	20682
884.143	20815
884.269	21077
884.395	20598
884.52	20602
884.646	20575
884.772	20495
884.897	20556
885.023	20693
885.148	20629
885.274	20807
885.399	20625
885.524	20526
885.65	20625
885.775	20484
885.9	20568
886.025	20636
886.15	20636
886.275	20590
886.4	20571
886.525	20503
886.65	20484
886.775	20434
886.9	20670
887.025	20686
887.149	20575
887.274	20484
887.399	20328
887.523	20446
887.648	20412
887.773	20259
887.897	20450
888.021	20412
888.146	20393
888.27	20412
888.395	20514
888.519	20336
888.643	20366
888.767	20286
888.891	20214
889.015	20119
889.139	20294
889.263	20157
889.387	20252
889.511	20351
889.635	20183
889.759	20031
889.883	20149
890.006	20176
890.13	20183
890.254	20187
890.377	20058
890.501	19925
890.624	19837
890.748	19909
890.871	19868
890.995	19849
891.118	19696
891.241	19712
891.364	19658
891.488	19928
891.611	19734
891.734	19674
891.857	19860
891.98	19772
892.103	19753
892.226	19742
892.349	19700
892.471	19677
892.594	19689
892.717	19635
892.839	19537
892.962	19677
893.085	19811
893.207	19563
893.33	19609
893.452	19594
893.575	19715
893.697	19540
893.819	19799
893.941	19932
894.064	19723
894.186	19647
894.308	19639
894.43	19731
894.552	19852
894.674	19769
894.796	19635
894.918	19738
895.04	19613
895.161	19814
895.283	19639
895.405	19605
895.526	19582
895.648	19643
895.769	19674
895.891	19719
896.012	19696
896.134	19689
896.255	19689
896.376	19666
896.498	19731
896.619	19700
896.74	19658
896.861	19708
896.982	20058
897.103	20096
897.224	20016
897.345	19875
897.466	19856
897.587	19909
897.708	20039
897.828	19928
897.949	19898
898.07	19780
898.19	19875
898.311	19970
898.431	19837
898.552	19883
898.672	19925
898.792	19963
898.913	19807
899.033	19715
899.153	19700
899.273	19578
899.393	19537
899.513	19651
899.633	19712
899.753	19544
899.873	19632
899.993	19746
900.113	19476
900.232	19540
900.352	19537
900.472	19544
900.591	19388
900.711	19453
900.83	19350
900.95	19502
901.069	19563
901.189	19324
901.308	19114
901.427	19042
901.546	18924
901.665	19046
901.784	18962
901.904	18901
902.023	18806
902.141	18604
902.26	18616
902.379	18559
902.498	18551
902.617	18483
902.735	18620
902.854	18692
902.973	18433
903.091	18239
903.21	18232
903.328	18296
903.446	18251
903.565	18106
903.683	18079
903.801	17798
903.919	17992
904.038	17824
904.156	17718
904.274	17790
904.392	17748
904.51	17809
904.627	17794
904.745	17691
904.863	17745
904.981	17604
905.098	17562
905.216	17497
905.334	17417
905.451	17452
905.569	17341
905.686	17398
905.803	17433
905.921	17284
906.038	17376
906.155	17353
906.272	17181
906.389	17212
906.506	17033
906.623	16976
906.74	16896
906.857	16908
906.974	16911
907.091	16957
907.208	17048
907.324	16980
907.441	16953
907.557	16793
907.674	16729
907.79	16615
907.907	16675
908.023	16729
908.139	16554
908.256	16607
908.372	16626
908.488	16603
908.604	16535
908.72	16432
908.836	16432
908.952	16417
909.068	16447
909.184	16481
909.3	16428
909.415	16443
909.531	16424
909.647	16204
909.762	16181
909.878	16116
909.993	16116
910.108	16101
910.224	16059
910.339	16131
910.454	16059
910.57	15968
910.685	15850
910.8	16150
910.915	16040
911.03	15922
911.145	15759
911.259	15759
911.374	15762
911.489	15675
911.604	15648
911.718	15469
911.833	15488
911.947	15447
912.062	15317
912.176	15561
912.291	15568
912.405	15523
912.519	15625
912.633	15622
912.748	15614
912.862	15542
912.976	15416
913.09	15264
913.204	15310
913.318	15260
913.431	15431
913.545	15393
913.659	15348
913.772	15264
913.886	15230
914	15112
914.113	15119
914.226	15268
914.34	15222
914.453	15077
914.566	15127
914.68	15032
914.793	15009
914.906	14788
915.019	14712
915.132	14716
915.245	14830
915.358	14712
915.47	14773
915.583	14872
915.696	14773
915.809	14857
915.921	14864
916.034	14686
916.146	14655
916.259	14602
916.371	14705
916.483	14655
916.595	14545
916.708	14564
916.82	14598
916.932	14507
917.044	14663
917.156	14564
917.268	14389
917.38	14522
917.491	14301
917.603	14412
917.715	14492
917.826	14541
917.938	14381
918.049	14286
918.161	14374
918.272	14446
918.384	14511
918.495	14199
918.606	14206
918.717	14031
918.828	14221
918.939	14233
919.05	13986
919.161	14221
919.272	13951
919.383	13989
919.494	14259
919.604	14381
919.715	14180
919.826	14081
919.936	14183
920.047	14244
920.157	14161
920.267	14309
920.378	14142
920.488	14180
920.598	14256
920.708	14339
920.818	14290
920.928	14309
921.038	14336
921.148	14385
921.258	14054
921.368	14016
921.477	13879
921.587	13890
921.697	13776
921.806	13932
921.916	13780
922.025	13552
922.134	13578
922.244	13510
922.353	13582
922.462	13510
922.571	13377
922.68	13141
922.789	13156
922.898	13259
923.007	13141
923.116	13164
923.224	13156
923.333	13122
923.442	13034
923.55	13023
923.659	13088
923.767	13061
923.876	13027
923.984	13061
924.092	12993
924.201	12970
924.309	13057
924.417	12848
924.525	12840
924.633	12829
924.741	13620
924.849	12631
924.956	12768
925.064	12662
925.172	12483
925.279	12665
925.387	12631
925.494	12570
925.602	12711
925.709	12726
925.816	12483
925.924	12601
926.031	12627
926.138	12471
926.245	12593
926.352	12502
926.459	12616
926.566	12654
926.673	12563
926.779	12388
926.886	12441
926.993	12224
927.099	12228
927.206	12095
927.312	12159
927.419	12266
927.525	12232
927.631	12213
927.737	12083
927.843	12121
927.95	11939
928.056	11996
928.162	12030
928.267	12034
928.373	12593
928.479	12121
928.585	11882
928.69	12038
928.796	12076
928.901	11958
929.007	11786
929.112	11912
929.218	11813
929.323	11794
929.428	11684
929.533	11870
929.638	11691
929.743	11726
929.848	11665
929.953	11703
930.058	11630
930.163	11459
930.267	11604
930.372	11551
930.477	11490
930.581	11680
930.685	11497
930.79	11383
930.894	11376
930.998	11372
931.103	11440
931.207	11159
931.311	11029
931.415	10938
931.519	10691
931.623	10672
