Data from test_V78500241_955.txt Node
Date: Fri Mar 25 15:16:30 CST 2022
User: usil
Spectrometer: V785-0024
Trigger mode: 0
Integration Time (sec): 4.000000E-1
Scans to average: 1
Nonlinearity correction enabled: false
Boxcar width: 0
Storing dark spectrum: false
XAxis mode: Wavelengths
Number of Pixels in Spectrum: 1024
>>>>>Begin Spectral Data<<<<<
801.071	27907
801.214	27835
801.356	27564
801.499	27504
801.641	27443
801.783	27469
801.926	27572
802.068	27427
802.211	27321
802.353	27336
802.496	27207
802.638	27085
802.78	27112
802.923	26906
803.065	27058
803.208	26948
803.35	27055
803.492	27256
803.635	27275
803.777	27047
803.919	27378
804.061	27606
804.204	27321
804.346	27169
804.488	27104
804.63	27252
804.773	27089
804.915	27222
805.057	27283
805.199	27332
805.341	27382
805.483	27389
805.626	27351
805.768	27317
805.91	27249
806.052	27291
806.194	27260
806.336	27542
806.478	27519
806.62	27393
806.762	27603
806.904	27618
807.046	27892
807.188	27857
807.33	27823
807.472	27827
807.614	27835
807.756	27739
807.898	27717
808.04	27713
808.182	27747
808.324	27682
808.465	27800
808.607	27994
808.749	28006
808.891	28276
809.033	28295
809.174	28044
809.316	27979
809.458	27998
809.6	28048
809.741	28242
809.883	28181
810.025	28440
810.166	28500
810.308	28284
810.45	28352
810.591	28371
810.733	28375
810.875	28093
811.016	28010
811.158	28063
811.299	28131
811.441	28192
811.582	28124
811.724	28135
811.865	28124
812.007	28105
812.148	28067
812.29	28211
812.431	28299
812.573	28409
812.714	28329
812.855	28630
812.997	28698
813.138	28771
813.279	28736
813.421	28649
813.562	28531
813.703	28394
813.845	28314
813.986	28063
814.127	27831
814.268	27831
814.41	27728
814.551	27873
814.692	27800
814.833	27625
814.974	27739
815.115	27679
815.256	27671
815.397	27755
815.539	27705
815.68	27633
815.821	27507
815.962	27622
816.103	27591
816.244	27473
816.385	27367
816.526	27313
816.666	27211
816.807	26937
816.948	27203
817.089	27214
817.23	27043
817.371	27028
817.512	27028
817.653	27062
817.793	26899
817.934	27093
818.075	27077
818.216	27058
818.356	26967
818.497	27093
818.638	26682
818.778	26952
818.919	26845
819.06	26880
819.2	26937
819.341	27032
819.481	27180
819.622	27081
819.762	27431
819.903	27405
820.043	27321
820.184	27150
820.324	27032
820.465	27169
820.605	27081
820.746	27146
820.886	27020
821.026	27096
821.167	27169
821.307	27214
821.447	27028
821.588	27062
821.728	26834
821.868	26587
822.008	26526
822.149	26488
822.289	26461
822.429	26324
822.569	26180
822.709	26275
822.849	26031
822.99	26122
823.13	25978
823.27	26149
823.41	25871
823.55	25738
823.69	25944
823.83	25811
823.97	25734
824.11	25757
824.25	25753
824.389	25647
824.529	25833
824.669	25632
824.809	25776
824.949	25822
825.089	25689
825.228	25784
825.368	25605
825.508	25578
825.648	25670
825.787	25479
825.927	25616
826.067	25468
826.206	25540
826.346	25723
826.485	25670
826.625	25605
826.765	25616
826.904	25552
827.044	25419
827.183	25373
827.323	25320
827.462	25297
827.601	25171
827.741	25285
827.88	25274
828.02	25221
828.159	25362
828.298	25430
828.437	25343
828.577	25129
828.716	25434
828.855	25171
828.994	25015
829.134	24916
829.273	25000
829.412	25031
829.551	24916
829.69	24897
829.829	25012
829.968	24996
830.107	24962
830.246	25027
830.385	24977
830.524	24932
830.663	24886
830.802	24753
830.941	24589
831.08	24460
831.219	24642
831.357	24757
831.496	24696
831.635	24612
831.774	24536
831.913	24452
832.051	24247
832.19	24330
832.329	24471
832.467	24346
832.606	24300
832.744	24182
832.883	24262
833.022	24194
833.16	24254
833.299	24247
833.437	24422
833.576	24357
833.714	24414
833.852	24353
833.991	24448
834.129	24391
834.267	24483
834.406	24388
834.544	24490
834.682	24422
834.821	24304
834.959	24494
835.097	24369
835.235	24308
835.373	24372
835.511	24346
835.65	24190
835.788	24258
835.926	24159
836.064	24030
836.202	24095
836.34	24148
836.478	24270
836.615	24224
836.753	24251
836.891	24064
837.029	24292
837.167	24106
837.305	24254
837.443	24171
837.58	24022
837.718	23965
837.856	24152
837.993	23897
838.131	24114
838.269	23882
838.406	23961
838.544	23779
838.681	23604
838.819	23642
838.956	23425
839.094	23490
839.231	23558
839.369	23581
839.506	23882
839.643	23680
839.781	23452
839.918	23414
840.055	23566
840.193	23417
840.33	23379
840.467	23505
840.604	23398
840.742	23726
840.879	23220
841.016	23345
841.153	23250
841.29	23611
841.427	23398
841.564	23440
841.701	23497
841.838	23322
841.975	23360
842.112	23395
842.249	23273
842.385	23223
842.522	23326
842.659	23299
842.796	23109
842.933	23193
843.069	23128
843.206	23041
843.343	23109
843.479	23117
843.616	23288
843.752	23010
843.889	23022
844.025	23014
844.162	22908
844.298	23178
844.435	22942
844.571	22900
844.708	23060
844.844	23025
844.98	23121
845.117	23067
845.253	22991
845.389	22831
845.525	22801
845.661	22828
845.798	22675
845.934	22774
846.07	22698
846.206	22645
846.342	22763
846.478	22668
846.614	22485
846.75	22371
846.886	22432
847.022	22375
847.158	22500
847.294	22325
847.429	22413
847.565	22432
847.701	22622
847.837	22188
847.972	22158
848.108	22249
848.244	22333
848.379	21998
848.515	22017
848.65	22025
848.786	22082
848.921	21945
849.057	22112
849.192	22093
849.328	22124
849.463	21949
849.598	22067
849.734	21880
849.869	21876
850.004	21804
850.14	21903
850.275	21732
850.41	21595
850.545	21759
850.68	21785
850.815	21804
850.95	21713
851.085	21960
851.22	21793
851.355	21732
851.49	21739
851.625	21701
851.76	21778
851.895	21671
852.03	21625
852.165	21827
852.299	21797
852.434	21857
852.569	21850
852.703	21789
852.838	21880
852.973	21907
853.107	21869
853.242	21644
853.376	21622
853.511	21393
853.645	21606
853.78	21667
853.914	21572
854.048	21622
854.183	21603
854.317	21576
854.451	21922
854.585	21587
854.72	21599
854.854	21534
854.988	21454
855.122	21557
855.256	21519
855.39	21542
855.524	21656
855.658	21690
855.792	21492
855.926	21496
856.06	21637
856.194	21781
856.327	21542
856.461	21473
856.595	21523
856.729	21610
856.862	21618
856.996	21629
857.13	21774
857.263	21705
857.397	21671
857.53	21652
857.664	21603
857.797	21599
857.931	21663
858.064	21625
858.197	21804
858.331	21622
858.464	21572
858.597	21477
858.731	21450
858.864	21583
858.997	21530
859.13	21549
859.263	21614
859.396	21705
859.529	21603
859.662	21526
859.795	21412
859.928	21606
860.061	21690
860.194	21804
860.327	21580
860.46	21553
860.592	21736
860.725	21762
860.858	21705
860.99	21534
861.123	21511
861.256	21473
861.388	21553
861.521	22238
861.653	21382
861.786	21488
861.918	21481
862.05	21405
862.183	21492
862.315	21439
862.447	21564
862.58	21534
862.712	21332
862.844	21211
862.976	21302
863.108	21344
863.24	21633
863.372	21176
863.504	21230
863.636	21325
863.768	21294
863.9	21279
864.032	21310
864.164	21264
864.296	21249
864.428	21443
864.559	21351
864.691	21370
864.823	21260
864.954	21279
865.086	21321
865.217	21249
865.349	21218
865.48	21252
865.612	21131
865.743	21275
865.875	21203
866.006	21058
866.137	21150
866.269	21150
866.4	21116
866.531	21119
866.662	21051
866.793	21024
866.924	21180
867.055	21127
867.186	21013
867.317	21081
867.448	21096
867.579	21070
867.71	20956
867.841	21085
867.972	21123
868.103	21116
868.233	21230
868.364	21112
868.495	21192
868.625	21264
868.756	21408
868.886	21214
869.017	21405
869.147	21504
869.278	21359
869.408	21466
869.539	21428
869.669	21412
869.799	21428
869.929	21428
870.06	21405
870.19	21652
870.32	21648
870.45	21644
870.58	21751
870.71	21755
870.84	21789
870.97	21606
871.1	21713
871.23	21895
871.36	21907
871.489	21869
871.619	22010
871.749	21778
871.879	21903
872.008	21956
872.138	22082
872.267	22006
872.397	21778
872.526	21739
872.656	21819
872.785	21884
872.915	22051
873.044	21903
873.173	22063
873.303	21937
873.432	22078
873.561	22131
873.69	21838
873.819	21838
873.948	22006
874.077	21983
874.206	21956
874.335	21941
874.464	22025
874.593	22162
874.722	22215
874.851	22276
874.979	22188
875.108	22329
875.237	22230
875.365	22086
875.494	22124
875.623	22204
875.751	22128
875.88	22150
876.008	22310
876.136	22322
876.265	22592
876.393	22805
876.521	22622
876.65	22637
876.778	22675
876.906	22516
877.034	22447
877.162	22611
877.29	22588
877.418	22603
877.546	22516
877.674	22626
877.802	22611
877.93	22531
878.058	22478
878.185	22405
878.313	22538
878.441	22519
878.568	22303
878.696	22402
878.824	22577
878.951	22637
879.079	22664
879.206	22721
879.333	22740
879.461	22683
879.588	22554
879.715	22683
879.842	22782
879.97	22573
880.097	22382
880.224	22421
880.351	22436
880.478	22466
880.605	22287
880.732	22386
880.859	22489
880.986	22344
881.112	22367
881.239	22284
881.366	22139
881.493	21956
881.619	21831
881.746	21994
881.872	22051
881.999	21918
882.125	21857
882.252	21953
882.378	21903
882.505	22013
882.631	21812
882.757	21705
882.883	21648
883.01	21728
883.136	21545
883.262	21561
883.388	21454
883.514	21641
883.64	21728
883.766	21515
883.892	21492
884.018	21428
884.143	21618
884.269	21728
884.395	21317
884.52	21256
884.646	21275
884.772	21161
884.897	21214
885.023	21249
885.148	21264
885.274	21363
885.399	21348
885.524	21306
885.65	21348
885.775	21317
885.9	21233
886.025	21325
886.15	21306
886.275	21135
886.4	21180
886.525	21165
886.65	21096
886.775	21214
886.9	21317
887.025	21477
887.149	21226
887.274	21085
887.399	20990
887.523	21043
887.648	20925
887.773	20849
887.897	21142
888.021	21009
888.146	20925
888.27	21306
888.395	21108
888.519	21135
888.643	21108
888.767	20982
888.891	20963
889.015	20902
889.139	20956
889.263	20891
889.387	20918
889.511	20944
889.635	20956
889.759	20796
889.883	20769
890.006	20762
890.13	20937
890.254	20750
890.377	20743
890.501	20648
890.624	20507
890.748	20575
890.871	20556
890.995	20438
891.118	20347
891.241	20484
891.364	20423
891.488	20461
891.611	20396
891.734	20396
891.857	20488
891.98	20423
892.103	20366
892.226	20461
892.349	20336
892.471	20107
892.594	20377
892.717	20351
892.839	20248
892.962	20320
893.085	20294
893.207	20309
893.33	20168
893.452	20202
893.575	20358
893.697	20214
893.819	20408
893.941	20404
894.064	20434
894.186	20195
894.308	20248
894.43	20324
894.552	20408
894.674	20332
894.796	20237
894.918	20286
895.04	20183
895.161	20309
895.283	20389
895.405	20206
895.526	20202
895.648	20290
895.769	20286
895.891	20301
896.012	20298
896.134	20294
896.255	20332
896.376	20298
896.498	20317
896.619	20385
896.74	20248
896.861	20309
896.982	20526
897.103	20819
897.224	20503
897.345	20632
897.466	20476
897.587	20556
897.708	20609
897.828	20598
897.949	20469
898.07	20290
898.19	20484
898.311	20575
898.431	20518
898.552	20495
898.672	20495
898.792	20514
898.913	20545
899.033	20374
899.153	20187
899.273	20233
899.393	20248
899.513	20275
899.633	20168
899.753	20309
899.873	20252
899.993	20199
900.113	20153
900.232	20256
900.352	20191
900.472	20168
900.591	19826
900.711	20065
900.83	19936
900.95	20164
901.069	20149
901.189	19921
901.308	19662
901.427	19662
901.546	19643
901.665	19734
901.784	19632
901.904	19434
902.023	19381
902.141	19129
902.26	19206
902.379	19240
902.498	19057
902.617	19061
902.735	19247
902.854	19099
902.973	18993
903.091	18844
903.21	18814
903.328	18696
903.446	18734
903.565	18563
903.683	18665
903.801	18441
903.919	18566
904.038	18521
904.156	18270
904.274	18426
904.392	18414
904.51	18361
904.627	18319
904.745	18388
904.863	18346
904.981	18209
905.098	18064
905.216	17980
905.334	18049
905.451	17992
905.569	18026
905.686	18102
905.803	17954
905.921	17828
906.038	17935
906.155	17901
906.272	17726
906.389	17642
906.506	17581
906.623	17528
906.74	17573
906.857	17383
906.974	17501
907.091	17630
907.208	17611
907.324	17657
907.441	17452
907.557	17360
907.674	17254
907.79	17235
907.907	17235
908.023	17269
908.139	17170
908.256	17288
908.372	17250
908.488	17025
908.604	16999
908.72	17010
908.836	16984
908.952	17018
909.068	16995
909.184	17124
909.3	16972
909.415	16892
909.531	16980
909.647	16778
909.762	16778
909.878	16607
909.993	16672
910.108	16713
910.224	16653
910.339	16713
910.454	16656
910.57	16489
910.685	16382
910.8	16755
910.915	16615
911.03	16485
911.145	16268
911.259	16215
911.374	16306
911.489	16181
911.604	16265
911.718	16090
911.833	16139
911.947	16040
912.062	15861
912.176	15983
912.291	16029
912.405	15987
912.519	16185
912.633	16287
912.748	16158
912.862	15953
912.976	15823
913.09	15682
913.204	15778
913.318	15869
913.431	15994
913.545	15899
913.659	15991
913.772	15869
913.886	15557
914	15637
914.113	15728
914.226	15736
914.34	15675
914.453	15515
914.566	15724
914.68	15568
914.793	15538
914.906	15298
915.019	15283
915.132	15123
915.245	15264
915.358	15222
915.47	15249
915.583	15237
915.696	15256
915.809	15393
915.921	15382
916.034	15192
916.146	15230
916.259	15131
916.371	15237
916.483	15184
916.595	15051
916.708	15055
916.82	14963
916.932	14986
917.044	15085
917.156	15043
917.268	14914
917.38	14937
917.491	14868
917.603	14849
917.715	14914
917.826	15047
917.938	14853
918.049	14765
918.161	14842
918.272	14956
918.384	14876
918.495	14902
918.606	14739
918.717	14610
918.828	14648
918.939	14773
919.05	14587
919.161	14636
919.272	14412
919.383	14549
919.494	14674
919.604	14910
919.715	14602
919.826	14564
919.936	14610
920.047	14686
920.157	14621
920.267	14785
920.378	14606
920.488	14552
920.598	14746
920.708	14887
920.818	14765
920.928	14731
921.038	14880
921.148	14849
921.258	14564
921.368	14450
921.477	14396
921.587	14301
921.697	14263
921.806	14415
921.916	14214
922.025	14031
922.134	13967
922.244	13970
922.353	14043
922.462	13871
922.571	13864
922.68	13655
922.789	13685
922.898	13685
923.007	13597
923.116	13639
923.224	13609
923.333	13525
923.442	13552
923.55	13487
923.659	13331
923.767	13525
923.876	13422
923.984	13521
924.092	13362
924.201	13331
924.309	13415
924.417	13358
924.525	13316
924.633	13354
924.741	14191
924.849	13099
924.956	13240
925.064	13179
925.172	12973
925.279	12916
925.387	13004
925.494	13084
925.602	13084
925.709	13053
925.816	12947
925.924	12943
926.031	12958
926.138	13000
926.245	13076
926.352	12916
926.459	13034
926.566	13000
926.673	12901
926.779	12703
926.886	12871
926.993	12658
927.099	12658
927.206	12646
927.312	12506
927.419	12665
927.525	12513
927.631	12616
927.737	12475
927.843	12429
927.95	12422
928.056	12380
928.162	12437
928.267	12490
928.373	13053
928.479	12490
928.585	12258
928.69	12365
928.796	12452
928.901	12365
929.007	12182
929.112	12311
929.218	12247
929.323	12197
929.428	12087
929.533	12266
929.638	12038
929.743	12034
929.848	12152
929.953	12098
930.058	11954
930.163	11863
930.267	11805
930.372	11999
930.477	11802
930.581	11958
930.685	11859
930.79	11722
930.894	11748
930.998	11695
931.103	11798
931.207	11535
931.311	11330
931.415	11284
931.519	11189
931.623	11094
