Data from test_V78500241_651.txt Node
Date: Fri Mar 25 15:14:23 CST 2022
User: usil
Spectrometer: V785-0024
Trigger mode: 0
Integration Time (sec): 4.000000E-1
Scans to average: 1
Nonlinearity correction enabled: false
Boxcar width: 0
Storing dark spectrum: false
XAxis mode: Wavelengths
Number of Pixels in Spectrum: 1024
>>>>>Begin Spectral Data<<<<<
801.071	27523
801.214	27363
801.356	27176
801.499	27138
801.641	27051
801.783	27024
801.926	27146
802.068	27039
802.211	26971
802.353	26944
802.496	26712
802.638	26712
802.78	26530
802.923	26598
803.065	26602
803.208	26617
803.35	26777
803.492	26697
803.635	26815
803.777	26564
803.919	26853
804.061	27005
804.204	26777
804.346	26785
804.488	26682
804.63	26815
804.773	26701
804.915	26838
805.057	26765
805.199	26720
805.341	26914
805.483	26899
805.626	26804
805.768	26769
805.91	26948
806.052	26853
806.194	26777
806.336	27138
806.478	27096
806.62	26937
806.762	27039
806.904	27348
807.046	27412
807.188	27431
807.33	27329
807.472	27481
807.614	27363
807.756	27283
807.898	27104
808.04	27154
808.182	27230
808.324	27176
808.465	27226
808.607	27359
808.749	27450
808.891	27553
809.033	27610
809.174	27652
809.316	27606
809.458	27648
809.6	27534
809.741	27656
809.883	27641
810.025	27895
810.166	27717
810.308	27914
810.45	27892
810.591	27717
810.733	27568
810.875	27553
811.016	27564
811.158	27439
811.299	27724
811.441	27724
811.582	27660
811.724	27519
811.865	27504
812.007	27507
812.148	27504
812.29	27629
812.431	27622
812.573	27819
812.714	28036
812.855	28112
812.997	28150
813.138	28405
813.279	28242
813.421	28188
813.562	28055
813.703	27949
813.845	27831
813.986	27606
814.127	27264
814.268	27264
814.41	27298
814.551	27252
814.692	27359
814.833	27199
814.974	27245
815.115	27176
815.256	27161
815.397	27161
815.539	27123
815.68	27146
815.821	26914
815.962	26899
816.103	27157
816.244	26895
816.385	26697
816.526	26864
816.666	26655
816.807	26560
816.948	26651
817.089	26731
817.23	26495
817.371	26571
817.512	26606
817.653	26568
817.793	26511
817.934	26571
818.075	26564
818.216	26522
818.356	26427
818.497	26495
818.638	26240
818.778	26161
818.919	26263
819.06	26358
819.2	26507
819.341	26362
819.481	26552
819.622	26655
819.762	26746
819.903	26746
820.043	26724
820.184	26609
820.324	26613
820.465	26621
820.605	26644
820.746	26602
820.886	26594
821.026	26552
821.167	26663
821.307	26655
821.447	26522
821.588	26423
821.728	26275
821.868	26176
822.008	26043
822.149	26005
822.289	25883
822.429	25765
822.569	25696
822.709	25666
822.849	25510
822.99	25514
823.13	25567
823.27	25460
823.41	25377
823.55	25225
823.69	25369
823.83	25339
823.97	25259
824.11	25179
824.25	25099
824.389	25034
824.529	25278
824.669	25236
824.809	25263
824.949	25194
825.089	25168
825.228	25301
825.368	24977
825.508	25004
825.648	25027
825.787	25019
825.927	25061
826.067	25046
826.206	25069
826.346	24943
826.485	25095
826.625	24882
826.765	25012
826.904	25076
827.044	24890
827.183	24844
827.323	24661
827.462	24764
827.601	24753
827.741	24707
827.88	24894
828.02	24551
828.159	24684
828.298	24673
828.437	24916
828.577	24703
828.716	24719
828.855	24684
828.994	24464
829.134	24445
829.273	24635
829.412	24414
829.551	24232
829.69	24528
829.829	24414
829.968	24452
830.107	24563
830.246	24437
830.385	24258
830.524	24163
830.663	24228
830.802	24087
830.941	23992
831.08	24015
831.219	24060
831.357	24083
831.496	24262
831.635	24041
831.774	23954
831.913	23908
832.051	23851
832.19	23908
832.329	23866
832.467	23665
832.606	23855
832.744	23638
832.883	23668
833.022	23790
833.16	23699
833.299	23863
833.437	23707
833.576	23809
833.714	23718
833.852	23790
833.991	23874
834.129	23847
834.267	23840
834.406	23805
834.544	23779
834.682	23752
834.821	23790
834.959	23843
835.097	23741
835.235	23893
835.373	23843
835.511	23608
835.65	23596
835.788	23672
835.926	23478
836.064	23349
836.202	23459
836.34	23680
836.478	23687
836.615	23611
836.753	23672
836.891	23665
837.029	23672
837.167	23414
837.305	23600
837.443	23512
837.58	23581
837.718	23581
837.856	23436
837.993	23376
838.131	23505
838.269	23235
838.406	23376
838.544	23208
838.681	23079
838.819	23044
838.956	22927
839.094	22862
839.231	23003
839.369	23098
839.506	23330
839.643	23117
839.781	22938
839.918	22885
840.055	22900
840.193	22869
840.33	22767
840.467	22923
840.604	22949
840.742	23124
840.879	22679
841.016	22850
841.153	22748
841.29	22843
841.427	22820
841.564	22896
841.701	22869
841.838	22885
841.975	22755
842.112	22702
842.249	22580
842.385	22584
842.522	22831
842.659	22634
842.796	22615
842.933	22596
843.069	22451
843.206	22634
843.343	22767
843.479	22725
843.616	22740
843.752	22421
843.889	22432
844.025	22478
844.162	22303
844.298	22413
844.435	22348
844.571	22466
844.708	22451
844.844	22493
844.98	22672
845.117	22485
845.253	22375
845.389	22109
845.525	22249
845.661	22261
845.798	22112
845.934	22242
846.07	22025
846.206	22086
846.342	22082
846.478	22101
846.614	21819
846.75	21842
846.886	21842
847.022	21857
847.158	21918
847.294	21915
847.429	21880
847.565	21873
847.701	22150
847.837	21587
847.972	21614
848.108	21717
848.244	21835
848.379	21583
848.515	21344
848.65	21504
848.786	21507
848.921	21572
849.057	21637
849.192	21622
849.328	21488
849.463	21462
849.598	21363
849.734	21401
849.869	21336
850.004	21165
850.14	21268
850.275	21211
850.41	21180
850.545	21218
850.68	21169
850.815	21264
850.95	21161
851.085	21302
851.22	21203
851.355	21157
851.49	21184
851.625	21218
851.76	21173
851.895	21138
852.03	21119
852.165	21192
852.299	21325
852.434	21317
852.569	21302
852.703	21188
852.838	21283
852.973	21294
853.107	21264
853.242	21036
853.376	20994
853.511	20944
853.645	21005
853.78	21192
853.914	20982
854.048	21062
854.183	20963
854.317	21081
854.451	21108
854.585	20887
854.72	21108
854.854	21055
854.988	20979
855.122	21047
855.256	20994
855.39	20952
855.524	21020
855.658	21100
855.792	20921
855.926	21024
856.06	21066
856.194	21157
856.327	21001
856.461	21013
856.595	20998
856.729	21138
856.862	21066
856.996	21070
857.13	21146
857.263	21150
857.397	21142
857.53	21017
857.664	21093
857.797	21112
857.931	21218
858.064	21077
858.197	21135
858.331	20960
858.464	20933
858.597	21001
858.731	21032
858.864	20941
858.997	20937
859.13	20963
859.263	20994
859.396	21051
859.529	21055
859.662	20975
859.795	21093
859.928	20982
860.061	21123
860.194	21142
860.327	21180
860.46	21062
860.592	21123
860.725	21199
860.858	21093
860.99	20960
861.123	20952
861.256	21001
861.388	21096
861.521	21717
861.653	20891
861.786	20823
861.918	21005
862.05	20804
862.183	20876
862.315	20960
862.447	21047
862.58	20948
862.712	20765
862.844	20667
862.976	20937
863.108	20861
863.24	21146
863.372	20659
863.504	20571
863.636	20769
863.768	20815
863.9	20773
864.032	20686
864.164	20606
864.296	20773
864.428	20804
864.559	20788
864.691	20925
864.823	20792
864.954	20785
865.086	20762
865.217	20727
865.349	20682
865.48	20651
865.612	20655
865.743	20739
865.875	20785
866.006	20545
866.137	20644
866.269	20606
866.4	20575
866.531	20613
866.662	20613
866.793	20667
866.924	20507
867.055	20526
867.186	20583
867.317	20480
867.448	20438
867.579	20537
867.71	20518
867.841	20556
867.972	20640
868.103	20598
868.233	20663
868.364	20503
868.495	20708
868.625	20804
868.756	20921
868.886	20807
869.017	20944
869.147	20963
869.278	21028
869.408	20925
869.539	20868
869.669	20876
869.799	20792
869.929	20960
870.06	20960
870.19	21066
870.32	21131
870.45	21203
870.58	21237
870.71	21199
870.84	21367
870.97	21230
871.1	21245
871.23	21549
871.36	21435
871.489	21374
871.619	21329
871.749	21428
871.879	21587
872.008	21488
872.138	21439
872.267	21412
872.397	21283
872.526	21245
872.656	21294
872.785	21214
872.915	21507
873.044	21435
873.173	21443
873.303	21542
873.432	21553
873.561	21622
873.69	21359
873.819	21382
873.948	21644
874.077	21393
874.206	21447
874.335	21500
874.464	21557
874.593	21759
874.722	21633
874.851	21743
874.979	21762
875.108	21679
875.237	21660
875.365	21492
875.494	21675
875.623	21759
875.751	21679
875.88	21545
876.008	21945
876.136	21861
876.265	22173
876.393	22173
876.521	22150
876.65	22204
876.778	22116
876.906	22063
877.034	21987
877.162	21994
877.29	22017
877.418	22143
877.546	22090
877.674	22055
877.802	21975
877.93	22105
878.058	21968
878.185	21937
878.313	22124
878.441	22093
878.568	21854
878.696	21861
878.824	22112
878.951	22055
879.079	22238
879.206	22158
879.333	22139
879.461	22006
879.588	22150
879.715	22204
879.842	22185
879.97	22036
880.097	21994
880.224	21732
880.351	21930
880.478	21915
880.605	21857
880.732	21812
880.859	21987
880.986	21819
881.112	21880
881.239	21583
881.366	21671
881.493	21454
881.619	21454
881.746	21439
881.872	21416
881.999	21329
882.125	21405
882.252	21542
882.378	21408
882.505	21534
882.631	21287
882.757	21116
882.883	21241
883.01	21264
883.136	21062
883.262	21036
883.388	20948
883.514	21173
883.64	21268
883.766	21039
883.892	20921
884.018	20838
884.143	21020
884.269	21184
884.395	20937
884.52	20872
884.646	20826
884.772	20720
884.897	20640
885.023	20830
885.148	20910
885.274	20883
885.399	20868
885.524	20716
885.65	20826
885.775	20819
885.9	20663
886.025	20948
886.15	20731
886.275	20701
886.4	20758
886.525	20663
886.65	20720
886.775	20720
886.9	20899
887.025	20960
887.149	20754
887.274	20648
887.399	20549
887.523	20434
887.648	20560
887.773	20450
887.897	20670
888.021	20541
888.146	20530
888.27	20594
888.395	20644
888.519	20526
888.643	20609
888.767	20609
888.891	20549
889.015	20423
889.139	20377
889.263	20237
889.387	20533
889.511	20518
889.635	20419
889.759	20332
889.883	20252
890.006	20324
890.13	20442
890.254	20286
890.377	20317
890.501	20092
890.624	20024
890.748	20115
890.871	19955
890.995	19936
891.118	19913
891.241	19997
891.364	19955
891.488	19993
891.611	19921
891.734	19868
891.857	20100
891.98	19841
892.103	19997
892.226	20035
892.349	19906
892.471	19780
892.594	19970
892.717	19837
892.839	19852
892.962	19833
893.085	19856
893.207	19780
893.33	19708
893.452	19753
893.575	19830
893.697	19772
893.819	20039
893.941	19928
894.064	20035
894.186	19731
894.308	19658
894.43	19909
894.552	19887
894.674	19894
894.796	19761
894.918	19845
895.04	19784
895.161	19868
895.283	19856
895.405	19616
895.526	19833
895.648	19822
895.769	19875
895.891	19902
896.012	19917
896.134	19833
896.255	19887
896.376	19753
896.498	19765
896.619	19811
896.74	19894
896.861	19955
896.982	20153
897.103	20320
897.224	20084
897.345	20100
897.466	19993
897.587	20027
897.708	20134
897.828	20100
897.949	20058
898.07	19909
898.19	20050
898.311	20031
898.431	19871
898.552	19989
898.672	20092
898.792	20119
898.913	20153
899.033	19970
899.153	19898
899.273	19666
899.393	19818
899.513	19803
899.633	19856
899.753	19738
899.873	19719
899.993	19849
900.113	19727
900.232	19845
900.352	19655
900.472	19635
900.591	19518
900.711	19586
900.83	19567
900.95	19693
901.069	19780
901.189	19453
901.308	19327
901.427	19221
901.546	19251
901.665	19324
901.784	19206
901.904	19141
902.023	19053
902.141	18871
902.26	18665
902.379	18707
902.498	18749
902.617	18707
902.735	18665
902.854	18627
902.973	18673
903.091	18528
903.21	18407
903.328	18445
903.446	18239
903.565	18258
903.683	18235
903.801	18030
903.919	18186
904.038	18159
904.156	17946
904.274	18057
904.392	17912
904.51	17935
904.627	17958
904.745	17961
904.863	17942
904.981	17771
905.098	17528
905.216	17608
905.334	17691
905.451	17653
905.569	17657
905.686	17752
905.803	17672
905.921	17463
906.038	17474
906.155	17402
906.272	17261
906.389	17421
906.506	17086
906.623	17121
906.74	17204
906.857	17147
906.974	17067
907.091	17208
907.208	17231
907.324	17273
907.441	17018
907.557	16889
907.674	16877
907.79	16767
907.907	16885
908.023	16873
908.139	16866
908.256	16824
908.372	16801
908.488	16637
908.604	16637
908.72	16573
908.836	16561
908.952	16527
909.068	16577
909.184	16622
909.3	16519
909.415	16592
909.531	16584
909.647	16352
909.762	16443
909.878	16310
909.993	16322
910.108	16261
910.224	16188
910.339	16295
910.454	16139
910.57	16128
910.685	16040
910.8	16417
910.915	16325
911.03	16090
911.145	15899
911.259	15926
911.374	15865
911.489	15785
911.604	15736
911.718	15701
911.833	15701
911.947	15557
912.062	15458
912.176	15625
912.291	15698
912.405	15542
912.519	15850
912.633	15759
912.748	15800
912.862	15587
912.976	15473
913.09	15336
913.204	15386
913.318	15458
913.431	15485
913.545	15473
913.659	15663
913.772	15367
913.886	15249
914	15325
914.113	15336
914.226	15496
914.34	15279
914.453	15188
914.566	15378
914.68	15146
914.793	15226
914.906	15009
915.019	14830
915.132	14902
915.245	14876
915.358	14895
915.47	14960
915.583	14788
915.696	14899
915.809	14975
915.921	15047
916.034	14788
916.146	14785
916.259	14739
916.371	14853
916.483	14834
916.595	14796
916.708	14716
916.82	14781
916.932	14686
917.044	14625
917.156	14636
917.268	14571
917.38	14560
917.491	14533
917.603	14556
917.715	14610
917.826	14606
917.938	14393
918.049	14442
918.161	14514
918.272	14659
918.384	14613
918.495	14434
918.606	14290
918.717	14294
918.828	14282
918.939	14336
919.05	14172
919.161	14347
919.272	14111
919.383	14233
919.494	14427
919.604	14568
919.715	14134
919.826	14210
919.936	14176
920.047	14343
920.157	14309
920.267	14541
920.378	14290
920.488	14202
920.598	14404
920.708	14518
920.818	14370
920.928	14419
921.038	14602
921.148	14495
921.258	14218
921.368	14123
921.477	14081
921.587	13932
921.697	13784
921.806	13967
921.916	13845
922.025	13822
922.134	13670
922.244	13556
922.353	13670
922.462	13594
922.571	13556
922.68	13285
922.789	13255
922.898	13209
923.007	13293
923.116	13392
923.224	13217
923.333	13247
923.442	13187
923.55	13198
923.659	13259
923.767	13194
923.876	13065
923.984	13206
924.092	12970
924.201	13091
924.309	13145
924.417	13031
924.525	13015
924.633	13118
924.741	13662
924.849	12821
924.956	13012
925.064	12795
925.172	12764
925.279	12734
925.387	12772
925.494	12688
925.602	12833
925.709	12783
925.816	12658
925.924	12753
926.031	12700
926.138	12620
926.245	12776
926.352	12604
926.459	12741
926.566	12791
926.673	12631
926.779	12604
926.886	12486
926.993	12429
927.099	12399
927.206	12258
927.312	12220
927.419	12292
927.525	12372
927.631	12376
927.737	12232
927.843	12136
927.95	12064
928.056	12133
928.162	12163
928.267	12186
928.373	12878
928.479	12201
928.585	11954
928.69	12098
928.796	12106
928.901	12106
929.007	11897
929.112	12072
929.218	12003
929.323	11855
929.428	11901
929.533	11992
929.638	11840
929.743	11824
929.848	11855
929.953	11897
930.058	11714
930.163	11562
930.267	11585
930.372	11661
930.477	11512
930.581	11790
930.685	11619
930.79	11433
930.894	11490
930.998	11425
931.103	11573
931.207	11220
931.311	11143
931.415	10991
931.519	10835
931.623	10816
