Data from test_V78500241_2581.txt Node
Date: Fri Mar 25 15:27:49 CST 2022
User: usil
Spectrometer: V785-0024
Trigger mode: 0
Integration Time (sec): 4.000000E-1
Scans to average: 1
Nonlinearity correction enabled: false
Boxcar width: 0
Storing dark spectrum: false
XAxis mode: Wavelengths
Number of Pixels in Spectrum: 1024
>>>>>Begin Spectral Data<<<<<
801.071	27287
801.214	27226
801.356	27036
801.499	26906
801.641	26762
801.783	26670
801.926	26708
802.068	26876
802.211	26811
802.353	26526
802.496	26438
802.638	26438
802.78	26317
802.923	26282
803.065	26210
803.208	26252
803.35	26400
803.492	26545
803.635	26552
803.777	26495
803.919	26537
804.061	26739
804.204	26511
804.346	26609
804.488	26412
804.63	26408
804.773	26450
804.915	26579
805.057	26473
805.199	26423
805.341	26549
805.483	26545
805.626	26651
805.768	26613
805.91	26560
806.052	26537
806.194	26518
806.336	26785
806.478	26579
806.62	26621
806.762	26693
806.904	26880
807.046	27108
807.188	27089
807.33	27043
807.472	27150
807.614	26963
807.756	26937
807.898	26910
808.04	26800
808.182	26804
808.324	26880
808.465	26906
808.607	27104
808.749	27165
808.891	27279
809.033	27298
809.174	27287
809.316	27192
809.458	27176
809.6	27241
809.741	27329
809.883	27359
810.025	27549
810.166	27439
810.308	27477
810.45	27477
810.591	27367
810.733	27260
810.875	27157
811.016	27093
811.158	27077
811.299	27370
811.441	27443
811.582	27401
811.724	27279
811.865	27142
812.007	27119
812.148	27142
812.29	27291
812.431	27230
812.573	27485
812.714	27648
812.855	27606
812.997	27945
813.138	27823
813.279	27739
813.421	27724
813.562	27656
813.703	27511
813.845	27340
813.986	27192
814.127	27032
814.268	26876
814.41	27108
814.551	26937
814.692	26857
814.833	26826
814.974	26883
815.115	26792
815.256	26701
815.397	26773
815.539	26667
815.68	26644
815.821	26663
815.962	26705
816.103	26537
816.244	26568
816.385	26503
816.526	26533
816.666	26278
816.807	26024
816.948	26206
817.089	26142
817.23	26157
817.371	26149
817.512	26088
817.653	26126
817.793	26050
817.934	26107
818.075	26035
818.216	26096
818.356	26138
818.497	26050
818.638	25849
818.778	25860
818.919	25826
819.06	25803
819.2	25959
819.341	26176
819.481	26130
819.622	26225
819.762	26362
819.903	26450
820.043	26313
820.184	26271
820.324	26214
820.465	26298
820.605	26286
820.746	26195
820.886	26065
821.026	26176
821.167	26195
821.307	26237
821.447	26229
821.588	26035
821.728	25951
821.868	25868
822.008	25616
822.149	25499
822.289	25704
822.429	25396
822.569	25365
822.709	25324
822.849	25110
822.99	25088
823.13	25072
823.27	25156
823.41	24989
823.55	24913
823.69	24848
823.83	24897
823.97	24913
824.11	24791
824.25	24696
824.389	24669
824.529	24829
824.669	24726
824.809	24890
824.949	24753
825.089	24760
825.228	24787
825.368	24521
825.508	24601
825.648	24661
825.787	24589
825.927	24646
826.067	24593
826.206	24566
826.346	24570
826.485	24806
826.625	24665
826.765	24757
826.904	24642
827.044	24353
827.183	24338
827.323	24304
827.462	24414
827.601	24323
827.741	24311
827.88	24369
828.02	24186
828.159	24262
828.298	24330
828.437	24437
828.577	24247
828.716	24239
828.855	24197
828.994	24011
829.134	24194
829.273	23897
829.412	23965
829.551	23843
829.69	24060
829.829	24121
829.968	24007
830.107	24003
830.246	24030
830.385	24095
830.524	23889
830.663	23741
830.802	23904
830.941	23748
831.08	23627
831.219	23642
831.357	23707
831.496	23783
831.635	23726
831.774	23630
831.913	23425
832.051	23482
832.19	23459
832.329	23459
832.467	23318
832.606	23250
832.744	23292
832.883	23368
833.022	23345
833.16	23322
833.299	23364
833.437	23501
833.576	23402
833.714	23414
833.852	23372
833.991	23467
834.129	23459
834.267	23433
834.406	23307
834.544	23379
834.682	23395
834.821	23417
834.959	23623
835.097	23311
835.235	23436
835.373	23429
835.511	23307
835.65	23318
835.788	23322
835.926	23159
836.064	22965
836.202	23064
836.34	23284
836.478	23296
836.615	23280
836.753	23147
836.891	23292
837.029	23372
837.167	23166
837.305	23136
837.443	23254
837.58	23086
837.718	23181
837.856	23128
837.993	23109
838.131	23132
838.269	22927
838.406	22953
838.544	22816
838.681	22782
838.819	22706
838.956	22694
839.094	22550
839.231	22626
839.369	22790
839.506	22911
839.643	22877
839.781	22596
839.918	22573
840.055	22596
840.193	22596
840.33	22542
840.467	22531
840.604	22607
840.742	22839
840.879	22466
841.016	22440
841.153	22405
841.29	22649
841.427	22485
841.564	22557
841.701	22512
841.838	22329
841.975	22440
842.112	22470
842.249	22504
842.385	22344
842.522	22390
842.659	22352
842.796	22291
842.933	22295
843.069	22211
843.206	22173
843.343	22188
843.479	22310
843.616	22295
843.752	22032
843.889	22010
844.025	22158
844.162	22006
844.298	22257
844.435	21972
844.571	21903
844.708	21983
844.844	22219
844.98	22082
845.117	22097
845.253	21842
845.389	21930
845.525	21960
845.661	21880
845.798	21778
845.934	21918
846.07	21564
846.206	21766
846.342	21949
846.478	21850
846.614	21618
846.75	21420
846.886	21591
847.022	21625
847.158	21614
847.294	21439
847.429	21644
847.565	21416
847.701	21675
847.837	21256
847.972	21123
848.108	21336
848.244	21355
848.379	21245
848.515	21135
848.65	21055
848.786	21214
848.921	21123
849.057	21272
849.192	21214
849.328	21241
849.463	21161
849.598	21077
849.734	20937
849.869	20967
850.004	20838
850.14	20925
850.275	20998
850.41	20765
850.545	20887
850.68	20872
850.815	20929
850.95	20876
851.085	21108
851.22	20883
851.355	20960
851.49	20819
851.625	20834
851.76	20693
851.895	20834
852.03	20830
852.165	20880
852.299	20876
852.434	20948
852.569	20902
852.703	20811
852.838	20982
852.973	21074
853.107	20998
853.242	20838
853.376	20644
853.511	20617
853.645	20670
853.78	20762
853.914	20663
854.048	20781
854.183	20686
854.317	20594
854.451	20929
854.585	20670
854.72	20632
854.854	20754
854.988	20552
855.122	20724
855.256	20507
855.39	20758
855.524	20857
855.658	20800
855.792	20785
855.926	20750
856.06	20750
856.194	20868
856.327	20678
856.461	20625
856.595	20594
856.729	20712
856.862	20765
856.996	20754
857.13	20693
857.263	20910
857.397	20815
857.53	20781
857.664	20834
857.797	20720
857.931	20910
858.064	20819
858.197	20769
858.331	20724
858.464	20686
858.597	20564
858.731	20735
858.864	20678
858.997	20629
859.13	20697
859.263	20750
859.396	20720
859.529	20674
859.662	20716
859.795	20632
859.928	20682
860.061	20906
860.194	20826
860.327	20746
860.46	20678
860.592	20823
860.725	20773
860.858	20773
860.99	20781
861.123	20602
861.256	20678
861.388	20689
861.521	21317
861.653	20648
861.786	20579
861.918	20564
862.05	20636
862.183	20705
862.315	20697
862.447	20674
862.58	20640
862.712	20377
862.844	20450
862.976	20507
863.108	20492
863.24	20933
863.372	20450
863.504	20473
863.636	20381
863.768	20499
863.9	20511
864.032	20275
864.164	20370
864.296	20530
864.428	20480
864.559	20632
864.691	20564
864.823	20419
864.954	20355
865.086	20511
865.217	20252
865.349	20366
865.48	20393
865.612	20385
865.743	20400
865.875	20400
866.006	20328
866.137	20332
866.269	20370
866.4	20286
866.531	20278
866.662	20339
866.793	20389
866.924	20377
867.055	20339
867.186	20286
867.317	20301
867.448	20233
867.579	20157
867.71	20275
867.841	20290
867.972	20347
868.103	20286
868.233	20332
868.364	20199
868.495	20480
868.625	20332
868.756	20644
868.886	20549
869.017	20511
869.147	20579
869.278	20705
869.408	20575
869.539	20495
869.669	20678
869.799	20556
869.929	20655
870.06	20629
870.19	20819
870.32	20750
870.45	20933
870.58	20921
870.71	21024
870.84	21001
870.97	20895
871.1	20887
871.23	21077
871.36	21089
871.489	21047
871.619	21150
871.749	21157
871.879	21230
872.008	21283
872.138	21154
872.267	21222
872.397	20979
872.526	20925
872.656	21058
872.785	20986
872.915	21116
873.044	21195
873.173	21249
873.303	21116
873.432	21169
873.561	21241
873.69	21104
873.819	21131
873.948	21180
874.077	21150
874.206	21222
874.335	21165
874.464	21252
874.593	21321
874.722	21386
874.851	21431
874.979	21469
875.108	21431
875.237	21355
875.365	21378
875.494	21420
875.623	21492
875.751	21405
875.88	21469
876.008	21496
876.136	21561
876.265	21873
876.393	21892
876.521	21941
876.65	21835
876.778	21701
876.906	21823
877.034	21823
877.162	21755
877.29	21732
877.418	21762
877.546	21793
877.674	21808
877.802	21705
877.93	21732
878.058	21812
878.185	21572
878.313	21580
878.441	21724
878.568	21439
878.696	21709
878.824	21797
878.951	21819
879.079	21960
879.206	22044
879.333	21903
879.461	21903
879.588	21827
879.715	21854
879.842	21975
879.97	21797
880.097	21580
880.224	21561
880.351	21629
880.478	21603
880.605	21447
880.732	21633
880.859	21880
880.986	21618
881.112	21519
881.239	21439
881.366	21363
881.493	21218
881.619	21131
881.746	21116
881.872	21127
881.999	21032
882.125	21119
882.252	21180
882.378	21264
882.505	21192
882.631	21055
882.757	20796
882.883	20933
883.01	20887
883.136	20876
883.262	20743
883.388	20708
883.514	20883
883.64	20925
883.766	20876
883.892	20632
884.018	20617
884.143	20769
884.269	20868
884.395	20663
884.52	20518
884.646	20530
884.772	20495
884.897	20484
885.023	20450
885.148	20617
885.274	20648
885.399	20594
885.524	20522
885.65	20434
885.775	20522
885.9	20552
886.025	20659
886.15	20568
886.275	20366
886.4	20469
886.525	20526
886.65	20351
886.775	20419
886.9	20587
887.025	20727
887.149	20427
887.274	20294
887.399	20290
887.523	20240
887.648	20214
887.773	20294
887.897	20347
888.021	20248
888.146	20214
888.27	20355
888.395	20282
888.519	20370
888.643	20275
888.767	20298
888.891	20244
889.015	20058
889.139	20161
889.263	20122
889.387	20187
889.511	20309
889.635	20263
889.759	20008
889.883	20142
890.006	20100
890.13	20088
890.254	20008
890.377	20016
890.501	19890
890.624	19826
890.748	19997
890.871	19677
890.995	19723
891.118	19696
891.241	19719
891.364	19765
891.488	19723
891.611	19628
891.734	19609
891.857	19753
891.98	19670
892.103	19723
892.226	19635
892.349	19556
892.471	19533
892.594	19514
892.717	19567
892.839	19620
892.962	19586
893.085	19639
893.207	19658
893.33	19529
893.452	19495
893.575	19582
893.697	19438
893.819	19788
893.941	19791
894.064	19635
894.186	19594
894.308	19381
894.43	19575
894.552	19788
894.674	19738
894.796	19400
894.918	19521
895.04	19529
895.161	19616
895.283	19601
895.405	19521
895.526	19578
895.648	19495
895.769	19753
895.891	19582
896.012	19727
896.134	19651
896.255	19533
896.376	19605
896.498	19628
896.619	19616
896.74	19590
896.861	19651
896.982	19765
897.103	19986
897.224	19921
897.345	19765
897.466	19712
897.587	19708
897.708	19906
897.828	19742
897.949	19765
898.07	19689
898.19	19791
898.311	19890
898.431	19776
898.552	19750
898.672	19944
898.792	19928
898.913	19928
899.033	19613
899.153	19499
899.273	19449
899.393	19601
899.513	19677
899.633	19601
899.753	19647
899.873	19597
899.993	19552
900.113	19552
900.232	19594
900.352	19514
900.472	19548
900.591	19259
900.711	19453
900.83	19327
900.95	19384
901.069	19434
901.189	19263
901.308	18947
901.427	18882
901.546	18882
901.665	18973
901.784	18996
901.904	18696
902.023	18749
902.141	18486
902.26	18452
902.379	18551
902.498	18334
902.617	18509
902.735	18494
902.854	18525
902.973	18456
903.091	18190
903.21	18201
903.328	18125
903.446	18114
903.565	17935
903.683	17946
903.801	17950
903.919	17912
904.038	17863
904.156	17836
904.274	17828
904.392	17646
904.51	17680
904.627	17657
904.745	17733
904.863	17855
904.981	17528
905.098	17436
905.216	17372
905.334	17512
905.451	17349
905.569	17455
905.686	17463
905.803	17433
905.921	17056
906.038	17326
906.155	17162
906.272	17117
906.389	17105
906.506	16934
906.623	16961
906.74	16885
906.857	16801
906.974	16820
907.091	16957
907.208	17132
907.324	16987
907.441	16877
907.557	16713
907.674	16656
907.79	16554
907.907	16622
908.023	16660
908.139	16615
908.256	16535
908.372	16474
908.488	16474
908.604	16428
908.72	16333
908.836	16523
908.952	16284
909.068	16405
909.184	16402
909.3	16363
909.415	16360
909.531	16394
909.647	16188
909.762	16116
909.878	15915
909.993	16067
910.108	16006
910.224	16093
910.339	16051
910.454	15915
910.57	15850
910.685	15857
910.8	16090
910.915	16010
911.03	15880
911.145	15759
911.259	15671
911.374	15701
911.489	15553
911.604	15603
911.718	15511
911.833	15500
911.947	15447
912.062	15389
912.176	15477
912.291	15561
912.405	15378
912.519	15614
912.633	15675
912.748	15500
912.862	15397
912.976	15302
913.09	15173
913.204	15112
913.318	15264
913.431	15363
913.545	15325
913.659	15401
913.772	15230
913.886	15097
914	15112
914.113	15180
914.226	15249
914.34	15116
914.453	15028
914.566	15176
914.68	14979
914.793	14990
914.906	14739
915.019	14678
915.132	14689
915.245	14583
915.358	14625
915.47	14724
915.583	14754
915.696	14796
915.809	14765
915.921	14872
916.034	14674
916.146	14560
916.259	14613
916.371	14693
916.483	14571
916.595	14537
916.708	14552
916.82	14587
916.932	14552
917.044	14465
917.156	14514
917.268	14351
917.38	14339
917.491	14366
917.603	14370
917.715	14381
917.826	14484
917.938	14336
918.049	14214
918.161	14298
918.272	14457
918.384	14514
918.495	14301
918.606	14119
918.717	14046
918.828	14073
918.939	14172
919.05	14016
919.161	14043
919.272	13898
919.383	13909
919.494	14065
919.604	14282
919.715	14092
919.826	14005
919.936	14062
920.047	14050
920.157	14172
920.267	14263
920.378	14107
920.488	14012
920.598	14221
920.708	14362
920.818	14286
920.928	14225
921.038	14351
921.148	14286
921.258	13894
921.368	13925
921.477	13830
921.587	13772
921.697	13651
921.806	13871
921.916	13715
922.025	13620
922.134	13502
922.244	13472
922.353	13525
922.462	13396
922.571	13312
922.68	13225
922.789	13137
922.898	13152
923.007	13019
923.116	13141
923.224	13110
923.333	13107
923.442	13088
923.55	12913
923.659	13057
923.767	12985
923.876	12924
923.984	12981
924.092	12867
924.201	12878
924.309	12947
924.417	12897
924.525	12795
924.633	12806
924.741	13780
924.849	12551
924.956	12768
925.064	12601
925.172	12570
925.279	12627
925.387	12593
925.494	12593
925.602	12627
925.709	12593
925.816	12517
925.924	12604
926.031	12540
926.138	12536
926.245	12525
926.352	12494
926.459	12509
926.566	12627
926.673	12448
926.779	12304
926.886	12319
926.993	12178
927.099	12197
927.206	12201
927.312	12133
927.419	12182
927.525	12083
927.631	12228
927.737	12087
927.843	12064
927.95	11939
928.056	11954
928.162	11969
928.267	11999
928.373	12464
928.479	12060
928.585	11878
928.69	11969
928.796	12072
928.901	11805
929.007	11699
929.112	11840
929.218	11817
929.323	11767
929.428	11684
929.533	11843
929.638	11596
929.743	11661
929.848	11741
929.953	11634
930.058	11562
930.163	11417
930.267	11444
930.372	11547
930.477	11364
930.581	11642
930.685	11497
930.79	11341
930.894	11360
930.998	11277
931.103	11433
931.207	11121
931.311	10930
931.415	10911
931.519	10755
931.623	10653
