Data from test_V78500241_1128.txt Node
Date: Fri Mar 25 15:17:42 CST 2022
User: usil
Spectrometer: V785-0024
Trigger mode: 0
Integration Time (sec): 4.000000E-1
Scans to average: 1
Nonlinearity correction enabled: false
Boxcar width: 0
Storing dark spectrum: false
XAxis mode: Wavelengths
Number of Pixels in Spectrum: 1024
>>>>>Begin Spectral Data<<<<<
801.071	28333
801.214	28314
801.356	27987
801.499	27922
801.641	27774
801.783	27800
801.926	27831
802.068	27850
802.211	27724
802.353	27644
802.496	27534
802.638	27439
802.78	27450
802.923	27363
803.065	27580
803.208	27386
803.35	27496
803.492	27538
803.635	27625
803.777	27625
803.919	27728
804.061	27998
804.204	27793
804.346	27701
804.488	27553
804.63	27785
804.773	27641
804.915	27831
805.057	27857
805.199	27747
805.341	27762
805.483	27762
805.626	27812
805.768	27717
805.91	27903
806.052	27774
806.194	27797
806.336	27949
806.478	27945
806.62	27888
806.762	28055
806.904	28109
807.046	28489
807.188	28219
807.33	28325
807.472	28341
807.614	28219
807.756	28207
807.898	28223
808.04	27975
808.182	28154
808.324	28074
808.465	28139
808.607	28466
808.749	28459
808.891	28470
809.033	28565
809.174	28523
809.316	28455
809.458	28565
809.6	28386
809.741	28611
809.883	28672
810.025	28816
810.166	28767
810.308	28656
810.45	28721
810.591	28607
810.733	28672
810.875	28588
811.016	28455
811.158	28318
811.299	28516
811.441	28622
811.582	28599
811.724	28542
811.865	28535
812.007	28573
812.148	28443
812.29	28645
812.431	28797
812.573	28900
812.714	28972
812.855	29071
812.997	29064
813.138	29315
813.279	29109
813.421	29140
813.562	29132
813.703	28782
813.845	28717
813.986	28512
814.127	28379
814.268	28337
814.41	28265
814.551	28219
814.692	28371
814.833	28196
814.974	28215
815.115	28215
815.256	28078
815.397	28051
815.539	28078
815.68	28105
815.821	28074
815.962	28181
816.103	28090
816.244	28021
816.385	27819
816.526	27926
816.666	27667
816.807	27526
816.948	27679
817.089	27641
817.23	27530
817.371	27466
817.512	27625
817.653	27462
817.793	27583
817.934	27488
818.075	27705
818.216	27599
818.356	27473
818.497	27420
818.638	27252
818.778	27351
818.919	27389
819.06	27268
819.2	27564
819.341	27580
819.481	27526
819.622	27682
819.762	27998
819.903	27831
820.043	27850
820.184	27694
820.324	27701
820.465	27732
820.605	27629
820.746	27652
820.886	27644
821.026	27671
821.167	27701
821.307	27762
821.447	27606
821.588	27504
821.728	27313
821.868	27249
822.008	27017
822.149	26998
822.289	27055
822.429	26754
822.569	26769
822.709	26746
822.849	26575
822.99	26499
823.13	26488
823.27	26541
823.41	26480
823.55	26286
823.69	26374
823.83	26278
823.97	26328
824.11	26172
824.25	26115
824.389	26275
824.529	26233
824.669	26221
824.809	26351
824.949	26362
825.089	26278
825.228	26107
825.368	26142
825.508	26054
825.648	26107
825.787	26088
825.927	26240
826.067	26027
826.206	26035
826.346	26301
826.485	26176
826.625	26191
826.765	26202
826.904	26111
827.044	25830
827.183	25811
827.323	25852
827.462	25761
827.601	25750
827.741	25841
827.88	25803
828.02	25689
828.159	25879
828.298	25807
828.437	25868
828.577	25807
828.716	25944
828.855	25883
828.994	25582
829.134	25556
829.273	25472
829.412	25510
829.551	25381
829.69	25567
829.829	25639
829.968	25575
830.107	25594
830.246	25525
830.385	25499
830.524	25362
830.663	25388
830.802	25187
830.941	25152
831.08	25042
831.219	25377
831.357	25263
831.496	25312
831.635	25114
831.774	24821
831.913	24951
832.051	24859
832.19	24920
832.329	25000
832.467	24848
832.606	24913
832.744	24711
832.883	24863
833.022	24817
833.16	24810
833.299	24844
833.437	24905
833.576	24954
833.714	24913
833.852	24935
833.991	24901
834.129	25057
834.267	24909
834.406	25038
834.544	25000
834.682	24962
834.821	24897
834.959	25148
835.097	24795
835.235	24863
835.373	25053
835.511	24863
835.65	24768
835.788	24719
835.926	24563
836.064	24433
836.202	24570
836.34	24711
836.478	24779
836.615	24681
836.753	24844
836.891	24886
837.029	24673
837.167	24650
837.305	24612
837.443	24582
837.58	24578
837.718	24589
837.856	24544
837.993	24429
838.131	24684
838.269	24502
838.406	24536
838.544	24365
838.681	24251
838.819	24220
838.956	24087
839.094	23939
839.231	24030
839.369	24095
839.506	24426
839.643	24342
839.781	24106
839.918	24011
840.055	24197
840.193	24098
840.33	24026
840.467	24045
840.604	24076
840.742	24178
840.879	23794
841.016	24007
841.153	23878
841.29	24053
841.427	23920
841.564	23958
841.701	24003
841.838	23874
841.975	23695
842.112	23745
842.249	23737
842.385	23771
842.522	23946
842.659	23634
842.796	23760
842.933	23691
843.069	23661
843.206	23687
843.343	23737
843.479	23790
843.616	23794
843.752	23543
843.889	23448
844.025	23657
844.162	23471
844.298	23554
844.435	23497
844.571	23471
844.708	23497
844.844	23596
844.98	23623
845.117	23543
845.253	23425
845.389	23337
845.525	23417
845.661	23307
845.798	23159
845.934	23315
846.07	23155
846.206	23159
846.342	23292
846.478	23151
846.614	23113
846.75	22915
846.886	23014
847.022	22976
847.158	22892
847.294	22919
847.429	23128
847.565	22862
847.701	23303
847.837	22664
847.972	22683
848.108	22694
848.244	22824
848.379	22618
848.515	22577
848.65	22436
848.786	22542
848.921	22512
849.057	22607
849.192	22493
849.328	22546
849.463	22523
849.598	22402
849.734	22409
849.869	22504
850.004	22325
850.14	22409
850.275	22257
850.41	22215
850.545	22196
850.68	22265
850.815	22223
850.95	22284
851.085	22451
851.22	22375
851.355	22375
851.49	22432
851.625	22360
851.76	22310
851.895	22158
852.03	22272
852.165	22272
852.299	22379
852.434	22424
852.569	22436
852.703	22246
852.838	22246
852.973	22394
853.107	22580
853.242	22097
853.376	22143
853.511	22067
853.645	22093
853.78	22158
853.914	22181
854.048	22192
854.183	22063
854.317	22154
854.451	22356
854.585	22169
854.72	22109
854.854	22078
854.988	22070
855.122	21979
855.256	21945
855.39	21968
855.524	22162
855.658	22226
855.792	22135
855.926	22158
856.06	22173
856.194	22223
856.327	22234
856.461	22025
856.595	21983
856.729	21994
856.862	22234
856.996	22150
857.13	22196
857.263	22249
857.397	22162
857.53	22078
857.664	22135
857.797	22177
857.931	22268
858.064	22124
858.197	22265
858.331	22063
858.464	22017
858.597	21934
858.731	22029
858.864	22093
858.997	22040
859.13	22166
859.263	22109
859.396	22207
859.529	22158
859.662	22078
859.795	21994
859.928	22067
860.061	22188
860.194	22257
860.327	22154
860.46	22169
860.592	22196
860.725	22219
860.858	22158
860.99	22143
861.123	22105
861.256	22029
861.388	22226
861.521	22923
861.653	21945
861.786	21785
861.918	21816
862.05	22044
862.183	22055
862.315	22055
862.447	22173
862.58	22124
862.712	21850
862.844	21747
862.976	21827
863.108	21975
863.24	22379
863.372	21781
863.504	21762
863.636	21789
863.768	21846
863.9	21789
864.032	21717
864.164	21854
864.296	21850
864.428	21842
864.559	21823
864.691	21816
864.823	21793
864.954	21857
865.086	21781
865.217	21720
865.349	21698
865.48	21755
865.612	21705
865.743	21857
865.875	21789
866.006	21580
866.137	21705
866.269	21747
866.4	21583
866.531	21633
866.662	21641
866.793	21599
866.924	21622
867.055	21641
867.186	21717
867.317	21561
867.448	21549
867.579	21667
867.71	21439
867.841	21488
867.972	21606
868.103	21420
868.233	21580
868.364	21595
868.495	21591
868.625	21895
868.756	21876
868.886	21720
869.017	21774
869.147	22036
869.278	22010
869.408	21850
869.539	21838
869.669	21915
869.799	21998
869.929	21960
870.06	22169
870.19	22173
870.32	22139
870.45	22169
870.58	22284
870.71	22432
870.84	22287
870.97	22215
871.1	22299
871.23	22360
871.36	22504
871.489	22394
871.619	22348
871.749	22379
871.879	22386
872.008	22561
872.138	22443
872.267	22360
872.397	22257
872.526	22181
872.656	22154
872.785	22139
872.915	22474
873.044	22493
873.173	22443
873.303	22557
873.432	22523
873.561	22569
873.69	22603
873.819	22519
873.948	22546
874.077	22451
874.206	22462
874.335	22523
874.464	22603
874.593	22706
874.722	22725
874.851	22793
874.979	22706
875.108	22675
875.237	22694
875.365	22645
875.494	22622
875.623	22801
875.751	22653
875.88	22755
876.008	22763
876.136	22869
876.265	23117
876.393	23181
876.521	23132
876.65	23212
876.778	23159
876.906	23025
877.034	22999
877.162	22980
877.29	22869
877.418	22987
877.546	22957
877.674	23044
877.802	23109
877.93	23022
878.058	22873
878.185	22885
878.313	23060
878.441	23052
878.568	22934
878.696	22881
878.824	23124
878.951	23094
879.079	23170
879.206	23311
879.333	23299
879.461	23159
879.588	23166
879.715	23193
879.842	23318
879.97	23124
880.097	22869
880.224	22816
880.351	23048
880.478	22885
880.605	22828
880.732	22919
880.859	23067
880.986	23018
881.112	22923
881.239	22691
881.366	22592
881.493	22497
881.619	22493
881.746	22481
881.872	22455
881.999	22436
882.125	22497
882.252	22455
882.378	22459
882.505	22611
882.631	22386
882.757	22131
882.883	22188
883.01	22268
883.136	22032
883.262	21991
883.388	22097
883.514	22070
883.64	22192
883.766	22116
883.892	21835
884.018	21975
884.143	22200
884.269	22169
884.395	21899
884.52	21770
884.646	21793
884.772	21667
884.897	21739
885.023	21838
885.148	21816
885.274	21842
885.399	21850
885.524	21907
885.65	21888
885.775	21690
885.9	21724
886.025	21918
886.15	21728
886.275	21618
886.4	21549
886.525	21800
886.65	21667
886.775	21686
886.9	21743
887.025	21930
887.149	21713
887.274	21625
887.399	21561
887.523	21534
887.648	21477
887.773	21302
887.897	21557
888.021	21412
888.146	21439
888.27	21603
888.395	21599
888.519	21606
888.643	21504
888.767	21591
888.891	21466
889.015	21291
889.139	21450
889.263	21192
889.387	21473
889.511	21603
889.635	21332
889.759	21291
889.883	21310
890.006	21233
890.13	21317
890.254	21218
890.377	21287
890.501	21142
890.624	21074
890.748	21074
890.871	20941
890.995	20834
891.118	20796
891.241	20807
891.364	20891
891.488	20868
891.611	20914
891.734	20902
891.857	20899
891.98	20853
892.103	20906
892.226	20861
892.349	20838
892.471	20682
892.594	20655
892.717	20792
892.839	20857
892.962	20895
893.085	20796
893.207	20796
893.33	20587
893.452	20651
893.575	20765
893.697	20815
893.819	20944
893.941	20963
894.064	20826
894.186	20625
894.308	20670
894.43	20712
894.552	20994
894.674	20800
894.796	20708
894.918	20758
895.04	20727
895.161	20849
895.283	20697
895.405	20720
895.526	20864
895.648	20655
895.769	20754
895.891	20777
896.012	20906
896.134	20830
896.255	20708
896.376	20674
896.498	20674
896.619	20727
896.74	20705
896.861	20845
896.982	21062
897.103	21070
897.224	20921
897.345	20956
897.466	20944
897.587	20887
897.708	21131
897.828	20830
897.949	20971
898.07	20842
898.19	20861
898.311	20998
898.431	20944
898.552	20906
898.672	20933
898.792	20979
898.913	20899
899.033	20800
899.153	20788
899.273	20701
899.393	20743
899.513	20724
899.633	20659
899.753	20606
899.873	20587
899.993	20644
900.113	20678
900.232	20659
900.352	20629
900.472	20522
900.591	20400
900.711	20336
900.83	20412
900.95	20587
901.069	20408
901.189	20294
901.308	20115
901.427	20043
901.546	19902
901.665	20073
901.784	20062
901.904	19864
902.023	19769
902.141	19510
902.26	19533
902.379	19544
902.498	19476
902.617	19525
902.735	19597
902.854	19422
902.973	19449
903.091	19160
903.21	19171
903.328	19179
903.446	19057
903.565	18989
903.683	19122
903.801	19031
903.919	18981
904.038	18928
904.156	18779
904.274	18825
904.392	18787
904.51	18703
904.627	18776
904.745	18734
904.863	18901
904.981	18688
905.098	18483
905.216	18441
905.334	18475
905.451	18410
905.569	18304
905.686	18399
905.803	18376
905.921	18163
906.038	18357
906.155	18239
906.272	18098
906.389	18174
906.506	18030
906.623	18041
906.74	18026
906.857	17908
906.974	17939
907.091	18030
907.208	18178
907.324	18007
907.441	17817
907.557	17748
907.674	17748
907.79	17562
907.907	17608
908.023	17653
908.139	17699
908.256	17562
908.372	17554
908.488	17596
908.604	17341
908.72	17398
908.836	17436
908.952	17421
909.068	17444
909.184	17478
909.3	17364
909.415	17448
909.531	17341
909.647	17193
909.762	17132
909.878	17136
909.993	17025
910.108	16942
910.224	17010
910.339	16999
910.454	16911
910.57	16930
910.685	16828
910.8	17094
910.915	17014
911.03	16908
911.145	16805
911.259	16694
911.374	16668
911.489	16615
911.604	16550
911.718	16424
911.833	16440
911.947	16394
912.062	16147
912.176	16318
912.291	16436
912.405	16329
912.519	16497
912.633	16607
912.748	16440
912.862	16424
912.976	16215
913.09	16112
913.204	16116
913.318	16265
913.431	16291
913.545	16295
913.659	16325
913.772	16128
913.886	16029
914	16086
914.113	16143
914.226	16162
914.34	16196
914.453	15850
914.566	16071
914.68	15892
914.793	15956
914.906	15774
915.019	15595
915.132	15595
915.245	15637
915.358	15534
915.47	15675
915.583	15629
915.696	15553
915.809	15720
915.921	15614
916.034	15515
916.146	15519
916.259	15523
916.371	15648
916.483	15466
916.595	15382
916.708	15401
916.82	15420
916.932	15310
917.044	15382
917.156	15298
917.268	15348
917.38	15252
917.491	15252
917.603	15264
917.715	15313
917.826	15302
917.938	15176
918.049	15169
918.161	15283
918.272	15298
918.384	15329
918.495	15173
918.606	15097
918.717	14849
918.828	14960
918.939	14994
919.05	14895
919.161	15074
919.272	14743
919.383	14906
919.494	14937
919.604	15097
919.715	14883
919.826	14891
919.936	14994
920.047	14914
920.157	14948
920.267	15150
920.378	14937
920.488	14956
920.598	15058
920.708	15180
920.818	15081
920.928	15039
921.038	15214
921.148	15146
921.258	14819
921.368	14765
921.477	14724
921.587	14720
921.697	14533
921.806	14655
921.916	14613
922.025	14298
922.134	14320
922.244	14305
922.353	14351
922.462	14157
922.571	14096
922.68	14092
922.789	13822
922.898	13947
923.007	13970
923.116	13932
923.224	13906
923.333	13864
923.442	13811
923.55	13750
923.659	13784
923.767	13807
923.876	13681
923.984	13826
924.092	13731
924.201	13780
924.309	13704
924.417	13700
924.525	13575
924.633	13670
924.741	14446
924.849	13422
924.956	13460
925.064	13430
925.172	13217
925.279	13381
925.387	13320
925.494	13392
925.602	13438
925.709	13327
925.816	13263
925.924	13327
926.031	13365
926.138	13308
926.245	13301
926.352	13168
926.459	13293
926.566	13312
926.673	13206
926.779	13080
926.886	13065
926.993	12920
927.099	12863
927.206	12821
927.312	12886
927.419	12894
927.525	12913
927.631	12859
927.737	12764
927.843	12677
927.95	12521
928.056	12719
928.162	12757
928.267	12753
928.373	13187
928.479	12757
928.585	12593
928.69	12639
928.796	12741
928.901	12559
929.007	12471
929.112	12544
929.218	12582
929.323	12414
929.428	12418
929.533	12490
929.638	12266
929.743	12410
929.848	12418
929.953	12369
930.058	12235
930.163	12049
930.267	12015
930.372	12232
930.477	12007
930.581	12243
930.685	12068
930.79	11973
930.894	11980
930.998	11980
931.103	12114
931.207	11688
931.311	11680
931.415	11577
931.519	11337
931.623	11337
