Data from test_V78500241_1067.txt Node
Date: Fri Mar 25 15:17:17 CST 2022
User: usil
Spectrometer: V785-0024
Trigger mode: 0
Integration Time (sec): 4.000000E-1
Scans to average: 1
Nonlinearity correction enabled: false
Boxcar width: 0
Storing dark spectrum: false
XAxis mode: Wavelengths
Number of Pixels in Spectrum: 1024
>>>>>Begin Spectral Data<<<<<
801.071	28204
801.214	28086
801.356	27850
801.499	27793
801.641	27614
801.783	27660
801.926	27827
802.068	27732
802.211	27701
802.353	27614
802.496	27447
802.638	27427
802.78	27401
802.923	27378
803.065	27393
803.208	27340
803.35	27431
803.492	27549
803.635	27629
803.777	27515
803.919	27694
804.061	27972
804.204	27557
804.346	27568
804.488	27473
804.63	27492
804.773	27427
804.915	27622
805.057	27789
805.199	27633
805.341	27603
805.483	27953
805.626	27819
805.768	27679
805.91	27743
806.052	27808
806.194	27545
806.336	27956
806.478	27800
806.62	27793
806.762	27945
806.904	28128
807.046	28219
807.188	28051
807.33	28188
807.472	28234
807.614	28139
807.756	28200
807.898	27979
808.04	27979
808.182	28105
808.324	27987
808.465	28147
808.607	28303
808.749	28519
808.891	28413
809.033	28523
809.174	28363
809.316	28382
809.458	28382
809.6	28440
809.741	28557
809.883	28626
810.025	28683
810.166	28580
810.308	28664
810.45	28641
810.591	28500
810.733	28481
810.875	28405
811.016	28337
811.158	28314
811.299	28394
811.441	28497
811.582	28474
811.724	28386
811.865	28352
812.007	28401
812.148	28303
812.29	28470
812.431	28550
812.573	28767
812.714	28786
812.855	29022
812.997	29014
813.138	29155
813.279	29079
813.421	28984
813.562	28965
813.703	28957
813.845	28641
813.986	28394
814.127	28226
814.268	28215
814.41	28162
814.551	28177
814.692	28105
814.833	28158
814.974	28082
815.115	28044
815.256	27865
815.397	28147
815.539	28051
815.68	27838
815.821	27857
815.962	28055
816.103	27968
816.244	27983
816.385	27652
816.526	27842
816.666	27595
816.807	27466
816.948	27477
817.089	27637
817.23	27622
817.371	27492
817.512	27408
817.653	27363
817.793	27435
817.934	27523
818.075	27507
818.216	27534
818.356	27344
818.497	27344
818.638	27169
818.778	27256
818.919	27222
819.06	27214
819.2	27386
819.341	27485
819.481	27348
819.622	27816
819.762	27789
819.903	27812
820.043	27580
820.184	27549
820.324	27545
820.465	27572
820.605	27542
820.746	27462
820.886	27363
821.026	27443
821.167	27549
821.307	27576
821.447	27382
821.588	27256
821.728	27321
821.868	27298
822.008	26994
822.149	27055
822.289	26838
822.429	26678
822.569	26667
822.709	26511
822.849	26518
822.99	26450
823.13	26377
823.27	26408
823.41	26244
823.55	26069
823.69	26298
823.83	26313
823.97	26237
824.11	26005
824.25	25955
824.389	25997
824.529	26168
824.669	26062
824.809	26263
824.949	26176
825.089	26301
825.228	26180
825.368	26024
825.508	26016
825.648	25970
825.787	25959
825.927	25959
826.067	25928
826.206	25879
826.346	25814
826.485	26077
826.625	25963
826.765	26119
826.904	26096
827.044	25791
827.183	25826
827.323	25731
827.462	25898
827.601	25708
827.741	25696
827.88	25727
828.02	25537
828.159	25734
828.298	25734
828.437	25875
828.577	25632
828.716	25742
828.855	25700
828.994	25403
829.134	25441
829.273	25525
829.412	25381
829.551	25343
829.69	25396
829.829	25438
829.968	25453
830.107	25510
830.246	25411
830.385	25339
830.524	25274
830.663	25206
830.802	25240
830.941	25050
831.08	24928
831.219	25023
831.357	25080
831.496	25217
831.635	25027
831.774	24867
831.913	25012
832.051	24787
832.19	24863
832.329	24837
832.467	24642
832.606	24661
832.744	24779
832.883	24635
833.022	24582
833.16	24753
833.299	24730
833.437	24757
833.576	24814
833.714	24878
833.852	24722
833.991	24760
834.129	24928
834.267	24916
834.406	24875
834.544	24886
834.682	24779
834.821	24776
834.959	25038
835.097	24688
835.235	24779
835.373	24802
835.511	24768
835.65	24467
835.788	24612
835.926	24677
836.064	24513
836.202	24502
836.34	24623
836.478	24719
836.615	24658
836.753	24464
836.891	24669
837.029	24741
837.167	24574
837.305	24623
837.443	24498
837.58	24490
837.718	24437
837.856	24372
837.993	24251
838.131	24437
838.269	24327
838.406	24372
838.544	24171
838.681	24152
838.819	24136
838.956	24015
839.094	23965
839.231	24076
839.369	24117
839.506	24323
839.643	24235
839.781	23984
839.918	23931
840.055	23946
840.193	23904
840.33	23828
840.467	23961
840.604	23977
840.742	24049
840.879	23718
841.016	23699
841.153	23741
841.29	23992
841.427	23817
841.564	23786
841.701	23851
841.838	23805
841.975	23783
842.112	23691
842.249	23577
842.385	23581
842.522	23764
842.659	23691
842.796	23619
842.933	23531
843.069	23474
843.206	23634
843.343	23558
843.479	23627
843.616	23585
843.752	23326
843.889	23387
844.025	23558
844.162	23318
844.298	23406
844.435	23322
844.571	23398
844.708	23337
844.844	23642
844.98	23452
845.117	23592
845.253	23280
845.389	23223
845.525	23265
845.661	23231
845.798	23105
845.934	23147
846.07	23025
846.206	23181
846.342	23181
846.478	23006
846.614	22881
846.75	22797
846.886	22854
847.022	23018
847.158	22927
847.294	22854
847.429	22847
847.565	22725
847.701	22957
847.837	22554
847.972	22538
848.108	22706
848.244	22698
848.379	22485
848.515	22500
848.65	22329
848.786	22409
848.921	22417
849.057	22554
849.192	22436
849.328	22618
849.463	22508
849.598	22367
849.734	22436
849.869	22204
850.004	22067
850.14	22280
850.275	22268
850.41	22188
850.545	22067
850.68	22219
850.815	22204
850.95	22173
851.085	22443
851.22	22284
851.355	22131
851.49	22192
851.625	22215
851.76	22097
851.895	22090
852.03	22105
852.165	22101
852.299	22318
852.434	22272
852.569	22173
852.703	22234
852.838	22280
852.973	22356
853.107	22310
853.242	22139
853.376	22029
853.511	21968
853.645	21937
853.78	22120
853.914	21975
854.048	21998
854.183	21960
854.317	21960
854.451	22177
854.585	21983
854.72	22112
854.854	21991
854.988	22013
855.122	22067
855.256	21915
855.39	21987
855.524	22036
855.658	22112
855.792	22055
855.926	22013
856.06	22029
856.194	22124
856.327	21899
856.461	21956
856.595	21953
856.729	22067
856.862	22124
856.996	22010
857.13	22048
857.263	22093
857.397	22093
857.53	22067
857.664	22006
857.797	22139
857.931	22116
858.064	22147
858.197	22120
858.331	22063
858.464	22067
858.597	21854
858.731	21899
858.864	22063
858.997	22021
859.13	21880
859.263	22059
859.396	22162
859.529	21975
859.662	21941
859.795	22044
859.928	22048
860.061	22101
860.194	22128
860.327	21994
860.46	22097
860.592	22143
860.725	22120
860.858	22097
860.99	21968
861.123	21937
861.256	21835
861.388	21968
861.521	22721
861.653	21941
861.786	21835
861.918	21827
862.05	21911
862.183	21884
862.315	22051
862.447	22029
862.58	21911
862.712	21728
862.844	21614
862.976	21869
863.108	21736
863.24	22188
863.372	21618
863.504	21709
863.636	21644
863.768	21739
863.9	21701
864.032	21618
864.164	21694
864.296	21766
864.428	21789
864.559	21808
864.691	21842
864.823	21774
864.954	21675
865.086	21751
865.217	21656
865.349	21622
865.48	21690
865.612	21534
865.743	21641
865.875	21606
866.006	21603
866.137	21538
866.269	21671
866.4	21568
866.531	21519
866.662	21450
866.793	21553
866.924	21466
867.055	21652
867.186	21507
867.317	21511
867.448	21393
867.579	21424
867.71	21545
867.841	21542
867.972	21416
868.103	21572
868.233	21557
868.364	21447
868.495	21694
868.625	21648
868.756	21838
868.886	21629
869.017	21766
869.147	21827
869.278	21922
869.408	21838
869.539	21808
869.669	21865
869.799	21732
869.929	21888
870.06	21766
870.19	22131
870.32	22025
870.45	22120
870.58	22135
870.71	22291
870.84	22200
870.97	22101
871.1	22029
871.23	22398
871.36	22322
871.489	22314
871.619	22280
871.749	22310
871.879	22363
872.008	22432
872.138	22344
872.267	22455
872.397	22169
872.526	22272
872.656	22196
872.785	22257
872.915	22402
873.044	22478
873.173	22348
873.303	22337
873.432	22417
873.561	22344
873.69	22352
873.819	22390
873.948	22481
874.077	22367
874.206	22268
874.335	22375
874.464	22512
874.593	22561
874.722	22584
874.851	22649
874.979	22535
875.108	22679
875.237	22561
875.365	22577
875.494	22569
875.623	22622
875.751	22599
875.88	22557
876.008	22607
876.136	22877
876.265	23006
876.393	23109
876.521	23086
876.65	23086
876.778	22847
876.906	22801
877.034	22968
877.162	22984
877.29	22987
877.418	22919
877.546	23006
877.674	22900
877.802	22961
877.93	22866
878.058	22889
878.185	22801
878.313	22858
878.441	22934
878.568	22618
878.696	22866
878.824	23010
878.951	23018
879.079	23136
879.206	23174
879.333	23067
879.461	22949
879.588	23041
879.715	22995
879.842	23181
879.97	22995
880.097	22748
880.224	22725
880.351	22687
880.478	22733
880.605	22793
880.732	22729
880.859	22877
880.986	22679
881.112	22790
881.239	22577
881.366	22424
881.493	22386
881.619	22226
881.746	22352
881.872	22238
881.999	22280
882.125	22242
882.252	22443
882.378	22348
882.505	22390
882.631	22204
882.757	22078
882.883	22013
883.01	22086
883.136	21972
883.262	21949
883.388	21785
883.514	22051
883.64	22017
883.766	21979
883.892	21682
884.018	21701
884.143	21903
884.269	22078
884.395	21797
884.52	21603
884.646	21663
884.772	21679
884.897	21515
885.023	21686
885.148	21819
885.274	21812
885.399	21789
885.524	21641
885.65	21675
885.775	21633
885.9	21648
886.025	21827
886.15	21709
886.275	21473
886.4	21682
886.525	21660
886.65	21595
886.775	21625
886.9	21911
887.025	21797
887.149	21656
887.274	21344
887.399	21454
887.523	21443
887.648	21401
887.773	21275
887.897	21477
888.021	21473
888.146	21389
888.27	21534
888.395	21420
888.519	21447
888.643	21450
888.767	21462
888.891	21336
889.015	21195
889.139	21283
889.263	21237
889.387	21222
889.511	21378
889.635	21329
889.759	21184
889.883	21135
890.006	21184
890.13	21184
890.254	21176
890.377	21233
890.501	20899
890.624	21001
890.748	20971
890.871	20777
890.995	20785
891.118	20701
891.241	20640
891.364	20746
891.488	20872
891.611	20686
891.734	20765
891.857	20777
891.98	20739
892.103	20746
892.226	20826
892.349	20663
892.471	20598
892.594	20686
892.717	20697
892.839	20621
892.962	20667
893.085	20868
893.207	20667
893.33	20663
893.452	20575
893.575	20552
893.697	20636
893.819	20800
893.941	20819
894.064	20758
894.186	20674
894.308	20514
894.43	20636
894.552	20868
894.674	20667
894.796	20594
894.918	20526
895.04	20499
895.161	20724
895.283	20602
895.405	20533
895.526	20727
895.648	20720
895.769	20689
895.891	20686
896.012	20754
896.134	20678
896.255	20613
896.376	20640
896.498	20655
896.619	20712
896.74	20511
896.861	20670
896.982	21058
897.103	21081
897.224	20899
897.345	20811
897.466	20830
897.587	20914
897.708	20918
897.828	20902
897.949	20826
898.07	20682
898.19	20693
898.311	20910
898.431	20754
898.552	20815
898.672	20883
898.792	20815
898.913	20845
899.033	20731
899.153	20655
899.273	20507
899.393	20621
899.513	20705
899.633	20488
899.753	20549
899.873	20537
899.993	20545
900.113	20396
900.232	20476
900.352	20423
900.472	20290
900.591	20278
900.711	20495
900.83	20244
900.95	20324
901.069	20442
901.189	20157
901.308	19913
901.427	19925
901.546	19944
901.665	19860
901.784	19921
901.904	19723
902.023	19738
902.141	19552
902.26	19476
902.379	19552
902.498	19373
902.617	19514
902.735	19449
902.854	19384
902.973	19350
903.091	18958
903.21	19175
903.328	19122
903.446	19042
903.565	18878
903.683	18890
903.801	18776
903.919	19019
904.038	18798
904.156	18700
904.274	18806
904.392	18669
904.51	18642
904.627	18692
904.745	18665
904.863	18669
904.981	18384
905.098	18327
905.216	18426
905.334	18388
905.451	18376
905.569	18304
905.686	18429
905.803	18201
905.921	18171
906.038	18209
906.155	18133
906.272	17984
906.389	18095
906.506	17939
906.623	17935
906.74	17790
906.857	17817
906.974	17764
907.091	17935
907.208	17935
907.324	17908
907.441	17790
907.557	17638
907.674	17581
907.79	17592
907.907	17505
908.023	17619
908.139	17417
908.256	17497
908.372	17391
908.488	17524
908.604	17299
908.72	17261
908.836	17322
908.952	17277
909.068	17273
909.184	17372
909.3	17383
909.415	17280
909.531	17166
909.647	17090
909.762	17029
909.878	17048
909.993	17090
910.108	16957
910.224	16896
910.339	16999
910.454	16892
910.57	16793
910.685	16797
910.8	16923
910.915	16850
911.03	16828
911.145	16588
911.259	16580
911.374	16660
911.489	16645
911.604	16493
911.718	16295
911.833	16428
911.947	16181
912.062	16109
912.176	16371
912.291	16398
912.405	16280
912.519	16527
912.633	16344
912.748	16344
912.862	16257
912.976	16105
913.09	16029
913.204	16128
913.318	16196
913.431	16074
913.545	16090
913.659	16238
913.772	16093
913.886	16006
914	15994
914.113	15991
914.226	16006
914.34	16017
914.453	15804
914.566	15987
914.68	15789
914.793	15739
914.906	15663
915.019	15481
915.132	15492
915.245	15450
915.358	15542
915.47	15507
915.583	15443
915.696	15599
915.809	15675
915.921	15671
916.034	15496
916.146	15511
916.259	15420
916.371	15496
916.483	15439
916.595	15279
916.708	15260
916.82	15306
916.932	15370
917.044	15329
917.156	15260
917.268	15123
917.38	15226
917.491	15138
917.603	15237
917.715	15283
917.826	15226
917.938	15135
918.049	15001
918.161	15112
918.272	15199
918.384	15291
918.495	15058
918.606	14918
918.717	14857
918.828	14895
918.939	14941
919.05	14876
919.161	14960
919.272	14727
919.383	14826
919.494	14933
919.604	15066
919.715	15024
919.826	14796
919.936	14887
920.047	14948
920.157	14944
920.267	15055
920.378	14895
920.488	14838
920.598	15070
920.708	15138
920.818	14948
920.928	14941
921.038	15112
921.148	15005
921.258	14731
921.368	14811
921.477	14571
921.587	14579
921.697	14549
921.806	14667
921.916	14461
922.025	14317
922.134	14305
922.244	14202
922.353	14157
922.462	14115
922.571	14035
922.68	13868
922.789	13890
922.898	13967
923.007	13826
923.116	13970
923.224	13830
923.333	13807
923.442	13788
923.55	13616
923.659	13723
923.767	13772
923.876	13685
923.984	13734
924.092	13518
924.201	13689
924.309	13639
924.417	13594
924.525	13563
924.633	13563
924.741	14465
924.849	13312
924.956	13476
925.064	13320
925.172	13187
925.279	13266
925.387	13316
925.494	13217
925.602	13392
925.709	13297
925.816	13164
925.924	13179
926.031	13270
926.138	13114
926.245	13289
926.352	13129
926.459	13282
926.566	13304
926.673	13076
926.779	13061
926.886	13019
926.993	12871
927.099	12840
927.206	12760
927.312	12795
927.419	12764
927.525	12692
927.631	12844
927.737	12684
927.843	12673
927.95	12593
928.056	12665
928.162	12585
928.267	12684
928.373	13209
928.479	12730
928.585	12456
928.69	12540
928.796	12563
928.901	12509
929.007	12315
929.112	12460
929.218	12418
929.323	12311
929.428	12270
929.533	12521
929.638	12258
929.743	12308
929.848	12365
929.953	12281
930.058	12182
930.163	12007
930.267	12007
930.372	12155
930.477	12022
930.581	12190
930.685	12034
930.79	11866
930.894	11942
930.998	11771
931.103	11996
931.207	11665
931.311	11592
931.415	11398
931.519	11258
931.623	11242
