Data from test_V78500241_1722.txt Node
Date: Fri Mar 25 15:21:50 CST 2022
User: usil
Spectrometer: V785-0024
Trigger mode: 0
Integration Time (sec): 4.000000E-1
Scans to average: 1
Nonlinearity correction enabled: false
Boxcar width: 0
Storing dark spectrum: false
XAxis mode: Wavelengths
Number of Pixels in Spectrum: 1024
>>>>>Begin Spectral Data<<<<<
801.071	27762
801.214	27831
801.356	27443
801.499	27355
801.641	27310
801.783	27329
801.926	27416
802.068	27374
802.211	27393
802.353	27195
802.496	27146
802.638	27066
802.78	27043
802.923	27028
803.065	26914
803.208	26834
803.35	27032
803.492	27165
803.635	27306
803.777	27135
803.919	27272
804.061	27515
804.204	27382
804.346	27173
804.488	27146
804.63	27192
804.773	27047
804.915	27207
805.057	27325
805.199	27096
805.341	27306
805.483	27359
805.626	27408
805.768	27264
805.91	27321
806.052	27378
806.194	27135
806.336	27401
806.478	27473
806.62	27237
806.762	27401
806.904	27606
807.046	27736
807.188	27686
807.33	27747
807.472	27797
807.614	27526
807.756	27713
807.898	27682
808.04	27648
808.182	27755
808.324	27545
808.465	27652
808.607	27873
808.749	27975
808.891	28036
809.033	28105
809.174	27991
809.316	27949
809.458	27975
809.6	27937
809.741	28124
809.883	28040
810.025	28192
810.166	28303
810.308	28143
810.45	28318
810.591	28070
810.733	28036
810.875	27937
811.016	27766
811.158	27823
811.299	28006
811.441	28238
811.582	28006
811.724	27991
811.865	27937
812.007	27747
812.148	27956
812.29	27922
812.431	28025
812.573	28295
812.714	28322
812.855	28535
812.997	28413
813.138	28649
813.279	28481
813.421	28542
813.562	28523
813.703	28246
813.845	28135
813.986	27785
814.127	27739
814.268	27519
814.41	27690
814.551	27504
814.692	27637
814.833	27679
814.974	27545
815.115	27667
815.256	27576
815.397	27538
815.539	27427
815.68	27397
815.821	27340
815.962	27462
816.103	27439
816.244	27310
816.385	27226
816.526	27218
816.666	27028
816.807	26925
816.948	26998
817.089	26963
817.23	26971
817.371	27028
817.512	26963
817.653	26872
817.793	26891
817.934	26929
818.075	26864
818.216	26933
818.356	26948
818.497	26670
818.638	26621
818.778	26667
818.919	26781
819.06	26731
819.2	26804
819.341	27055
819.481	26944
819.622	27036
819.762	27317
819.903	27020
820.043	27180
820.184	27032
820.324	27096
820.465	27184
820.605	27123
820.746	27081
820.886	26842
821.026	26967
821.167	26948
821.307	27020
821.447	26914
821.588	26739
821.728	26644
821.868	26625
822.008	26431
822.149	26298
822.289	26511
822.429	26191
822.569	26046
822.709	26077
822.849	25928
822.99	25993
823.13	25776
823.27	25841
823.41	25681
823.55	25590
823.69	25803
823.83	25715
823.97	25563
824.11	25655
824.25	25533
824.389	25464
824.529	25559
824.669	25445
824.809	25799
824.949	25559
825.089	25639
825.228	25635
825.368	25381
825.508	25377
825.648	25453
825.787	25373
825.927	25525
826.067	25381
826.206	25388
826.346	25464
826.485	25460
826.625	25411
826.765	25464
826.904	25403
827.044	25160
827.183	25114
827.323	25099
827.462	25289
827.601	25031
827.741	25103
827.88	25129
828.02	25008
828.159	25187
828.298	25152
828.437	25168
828.577	25145
828.716	25392
828.855	25065
828.994	24951
829.134	24848
829.273	24882
829.412	24954
829.551	24814
829.69	24844
829.829	24791
829.968	24852
830.107	24996
830.246	24859
830.385	24795
830.524	24726
830.663	24696
830.802	24551
830.941	24346
831.08	24346
831.219	24414
831.357	24521
831.496	24623
831.635	24429
831.774	24361
831.913	24258
832.051	24247
832.19	24213
832.329	24247
832.467	24152
832.606	24117
832.744	23939
832.883	24079
833.022	24072
833.16	24041
833.299	24178
833.437	24053
833.576	24330
833.714	24095
833.852	24266
833.991	24129
834.129	24224
834.267	24197
834.406	24144
834.544	24213
834.682	24178
834.821	24197
834.959	24338
835.097	24186
835.235	24251
835.373	24148
835.511	24167
835.65	24087
835.788	24011
835.926	23843
836.064	23901
836.202	23843
836.34	23996
836.478	24186
836.615	24049
836.753	24076
836.891	24140
837.029	23999
837.167	23965
837.305	23847
837.443	23916
837.58	23779
837.718	23935
837.856	23851
837.993	23866
838.131	23866
838.269	23726
838.406	23840
838.544	23665
838.681	23516
838.819	23383
838.956	23379
839.094	23303
839.231	23387
839.369	23482
839.506	23676
839.643	23463
839.781	23482
839.918	23292
840.055	23307
840.193	23269
840.33	23216
840.467	23235
840.604	23311
840.742	23585
840.879	23155
841.016	23105
841.153	23181
841.29	23299
841.427	23193
841.564	23258
841.701	23326
841.838	23269
841.975	23162
842.112	23132
842.249	22847
842.385	23178
842.522	23113
842.659	23098
842.796	23025
842.933	23159
843.069	23090
843.206	23056
843.343	22976
843.479	23090
843.616	22908
843.752	22725
843.889	22835
844.025	22889
844.162	22740
844.298	22919
844.435	22755
844.571	22759
844.708	22843
844.844	22915
844.98	22877
845.117	22923
845.253	22706
845.389	22717
845.525	22740
845.661	22523
845.798	22561
845.934	22580
846.07	22421
846.206	22569
846.342	22706
846.478	22489
846.614	22310
846.75	22215
846.886	22192
847.022	22280
847.158	22253
847.294	22207
847.429	22276
847.565	22242
847.701	22542
847.837	22135
847.972	21987
848.108	22097
848.244	22101
848.379	21876
848.515	21926
848.65	21804
848.786	21812
848.921	21865
849.057	21911
849.192	21983
849.328	21934
849.463	21983
849.598	21865
849.734	21759
849.869	21759
850.004	21629
850.14	21648
850.275	21705
850.41	21492
850.545	21610
850.68	21462
850.815	21538
850.95	21599
851.085	21728
851.22	21660
851.355	21610
851.49	21622
851.625	21644
851.76	21583
851.895	21450
852.03	21519
852.165	21561
852.299	21549
852.434	21603
852.569	21603
852.703	21637
852.838	21652
852.973	21698
853.107	21770
853.242	21572
853.376	21485
853.511	21325
853.645	21348
853.78	21504
853.914	21435
854.048	21382
854.183	21564
854.317	21447
854.451	21576
854.585	21389
854.72	21412
854.854	21644
854.988	21382
855.122	21405
855.256	21306
855.39	21359
855.524	21443
855.658	21416
855.792	21545
855.926	21355
856.06	21469
856.194	21511
856.327	21233
856.461	21496
856.595	21435
856.729	21420
856.862	21618
856.996	21416
857.13	21595
857.263	21553
857.397	21580
857.53	21374
857.664	21549
857.797	21526
857.931	21587
858.064	21477
858.197	21538
858.331	21477
858.464	21370
858.597	21321
858.731	21469
858.864	21458
858.997	21298
859.13	21355
859.263	21275
859.396	21549
859.529	21363
859.662	21538
859.795	21424
859.928	21481
860.061	21591
860.194	21637
860.327	21450
860.46	21488
860.592	21561
860.725	21633
860.858	21572
860.99	21458
861.123	21287
861.256	21222
861.388	21504
861.521	22150
861.653	21218
861.786	21218
861.918	21203
862.05	21325
862.183	21443
862.315	21458
862.447	21492
862.58	21351
862.712	21211
862.844	21089
862.976	21222
863.108	21188
863.24	21568
863.372	21043
863.504	21188
863.636	21142
863.768	21233
863.9	21119
864.032	21013
864.164	21142
864.296	21199
864.428	21150
864.559	21161
864.691	21214
864.823	21180
864.954	21268
865.086	21077
865.217	20975
865.349	20963
865.48	21032
865.612	21039
865.743	21135
865.875	21047
866.006	21043
866.137	21074
866.269	21039
866.4	21032
866.531	20956
866.662	20781
866.793	20887
866.924	21009
867.055	20937
867.186	21009
867.317	20887
867.448	20933
867.579	20944
867.71	20819
867.841	20956
867.972	20967
868.103	21058
868.233	20876
868.364	21051
868.495	21051
868.625	21142
868.756	21252
868.886	21096
869.017	21135
869.147	21302
869.278	21180
869.408	21184
869.539	21226
869.669	21313
869.799	21207
869.929	21291
870.06	21241
870.19	21504
870.32	21519
870.45	21561
870.58	21561
870.71	21629
870.84	21682
870.97	21656
871.1	21485
871.23	21682
871.36	21850
871.489	21739
871.619	21652
871.749	21876
871.879	21842
872.008	21770
872.138	21781
872.267	21781
872.397	21720
872.526	21564
872.656	21583
872.785	21648
872.915	21819
873.044	21934
873.173	21816
873.303	21759
873.432	21907
873.561	21857
873.69	21899
873.819	21994
873.948	22017
874.077	21857
874.206	21766
874.335	21835
874.464	21949
874.593	22048
874.722	21987
874.851	22116
874.979	22036
875.108	22067
875.237	22013
875.365	22070
875.494	22090
875.623	22032
875.751	21907
875.88	22048
876.008	22238
876.136	22200
876.265	22318
876.393	22607
876.521	22500
876.65	22428
876.778	22535
876.906	22272
877.034	22341
877.162	22447
877.29	22329
877.418	22223
877.546	22375
877.674	22516
877.802	22375
877.93	22341
878.058	22402
878.185	22192
878.313	22333
878.441	22276
878.568	22188
878.696	22333
878.824	22478
878.951	22557
879.079	22523
879.206	22656
879.333	22535
879.461	22436
879.588	22432
879.715	22478
879.842	22664
879.97	22348
880.097	22337
880.224	22211
880.351	22310
880.478	22261
880.605	22181
880.732	22128
880.859	22424
880.986	22150
881.112	22246
881.239	22154
881.366	21895
881.493	21930
881.619	21873
881.746	21762
881.872	21816
881.999	21831
882.125	21698
882.252	21774
882.378	21823
882.505	21827
882.631	21591
882.757	21595
882.883	21477
883.01	21401
883.136	21310
883.262	21329
883.388	21332
883.514	21458
883.64	21713
883.766	21481
883.892	21226
884.018	21256
884.143	21367
884.269	21492
884.395	21142
884.52	21036
884.646	21180
884.772	20967
884.897	21051
885.023	21222
885.148	21218
885.274	21275
885.399	21165
885.524	21123
885.65	21081
885.775	21184
885.9	21104
886.025	21203
886.15	21203
886.275	21096
886.4	20998
886.525	21081
886.65	21085
886.775	20967
886.9	21214
887.025	21306
887.149	21184
887.274	20914
887.399	20937
887.523	20838
887.648	20788
887.773	20777
887.897	20948
888.021	21051
888.146	20746
888.27	21062
888.395	20952
888.519	20834
888.643	20960
888.767	20880
888.891	20781
889.015	20667
889.139	20670
889.263	20727
889.387	20804
889.511	20967
889.635	20883
889.759	20625
889.883	20720
890.006	20621
890.13	20686
890.254	20549
890.377	20503
890.501	20461
890.624	20393
890.748	20465
890.871	20290
890.995	20324
891.118	20126
891.241	20218
891.364	20309
891.488	20530
891.611	20271
891.734	20290
891.857	20347
891.98	20267
892.103	20336
892.226	20225
892.349	20176
892.471	20035
892.594	20218
892.717	20142
892.839	20134
892.962	20199
893.085	20218
893.207	20122
893.33	20005
893.452	20039
893.575	20286
893.697	20214
893.819	20370
893.941	20381
894.064	20267
894.186	20062
894.308	20115
894.43	20244
894.552	20256
894.674	20259
894.796	20073
894.918	20084
895.04	20043
895.161	20252
895.283	20218
895.405	19974
895.526	20088
895.648	20172
895.769	20195
895.891	20259
896.012	20294
896.134	20248
896.255	20187
896.376	20096
896.498	20138
896.619	20199
896.74	20092
896.861	20122
896.982	20503
897.103	20651
897.224	20412
897.345	20362
897.466	20347
897.587	20381
897.708	20408
897.828	20256
897.949	20252
898.07	20176
898.19	20221
898.311	20461
898.431	20320
898.552	20290
898.672	20370
898.792	20469
898.913	20358
899.033	20267
899.153	20153
899.273	20088
899.393	20119
899.513	20077
899.633	20164
899.753	20119
899.873	20046
899.993	20103
900.113	20096
900.232	20050
900.352	20016
900.472	19986
900.591	19906
900.711	19776
900.83	19864
900.95	19978
901.069	19970
901.189	19715
901.308	19628
901.427	19403
901.546	19472
901.665	19518
901.784	19502
901.904	19327
902.023	19194
902.141	18981
902.26	18985
902.379	19061
902.498	19053
902.617	18939
902.735	18981
902.854	19004
902.973	18878
903.091	18700
903.21	18707
903.328	18582
903.446	18589
903.565	18521
903.683	18433
903.801	18289
903.919	18483
904.038	18357
904.156	18194
904.274	18350
904.392	18174
904.51	18201
904.627	18171
904.745	18281
904.863	18159
904.981	18064
905.098	17946
905.216	17836
905.334	18011
905.451	17901
905.569	17821
905.686	17950
905.803	17878
905.921	17634
906.038	17794
906.155	17733
906.272	17581
906.389	17687
906.506	17448
906.623	17337
906.74	17406
906.857	17280
906.974	17311
907.091	17482
907.208	17642
907.324	17425
907.441	17258
907.557	17185
907.674	17231
907.79	17136
907.907	17060
908.023	17159
908.139	17113
908.256	17075
908.372	17029
908.488	17045
908.604	16816
908.72	16869
908.836	16812
908.952	16831
909.068	16961
909.184	16953
909.3	16812
909.415	16828
909.531	16809
909.647	16569
909.762	16580
909.878	16580
909.993	16603
910.108	16550
910.224	16538
910.339	16607
910.454	16440
910.57	16443
910.685	16276
910.8	16599
910.915	16523
911.03	16382
911.145	16284
911.259	16101
911.374	16207
911.489	16105
911.604	16105
911.718	15918
911.833	15945
911.947	15991
912.062	15812
912.176	15873
912.291	15895
912.405	15797
912.519	16128
912.633	16116
912.748	15953
912.862	15968
912.976	15751
913.09	15675
913.204	15739
913.318	15755
913.431	15850
913.545	15861
913.659	15785
913.772	15728
913.886	15553
914	15488
914.113	15591
914.226	15629
914.34	15663
914.453	15443
914.566	15549
914.68	15526
914.793	15412
914.906	15252
915.019	15169
915.132	15138
915.245	15222
915.358	15275
915.47	15218
915.583	15081
915.696	15123
915.809	15214
915.921	15256
916.034	14979
916.146	14971
916.259	14918
916.371	15138
916.483	15066
916.595	15013
916.708	14891
916.82	15017
916.932	14944
917.044	14960
917.156	14891
917.268	14963
917.38	14826
917.491	14830
917.603	14826
917.715	14853
917.826	14807
917.938	14785
918.049	14610
918.161	14792
918.272	14899
918.384	14750
918.495	14705
918.606	14568
918.717	14533
918.828	14583
918.939	14556
919.05	14495
919.161	14514
919.272	14271
919.383	14423
919.494	14625
919.604	14651
919.715	14571
919.826	14480
919.936	14469
920.047	14575
920.157	14541
920.267	14708
920.378	14457
920.488	14522
920.598	14640
920.708	14845
920.818	14587
920.928	14674
921.038	14872
921.148	14636
921.258	14518
921.368	14343
921.477	14317
921.587	14309
921.697	14153
921.806	14180
921.916	14130
922.025	13947
922.134	13894
922.244	13841
922.353	13883
922.462	13715
922.571	13791
922.68	13559
922.789	13521
922.898	13552
923.007	13464
923.116	13605
923.224	13529
923.333	13499
923.442	13377
923.55	13373
923.659	13411
923.767	13441
923.876	13324
923.984	13369
924.092	13308
924.201	13263
924.309	13244
924.417	13304
924.525	13194
924.633	13152
924.741	13921
924.849	12962
924.956	13171
925.064	13008
925.172	12886
925.279	12985
925.387	12939
925.494	12897
925.602	12996
925.709	12977
925.816	12783
925.924	12863
926.031	13004
926.138	12916
926.245	12909
926.352	12749
926.459	12909
926.566	13015
926.673	12863
926.779	12616
926.886	12658
926.993	12540
927.099	12559
927.206	12490
927.312	12547
927.419	12551
927.525	12464
927.631	12467
927.737	12471
927.843	12380
927.95	12319
928.056	12308
928.162	12281
928.267	12376
928.373	12958
928.479	12433
928.585	12175
928.69	12266
928.796	12311
928.901	12190
929.007	11999
929.112	12205
929.218	12182
929.323	12038
929.428	12064
929.533	12186
929.638	12045
929.743	12053
929.848	12098
929.953	11954
930.058	12072
930.163	11745
930.267	11794
930.372	11874
930.477	11775
930.581	11939
930.685	11733
930.79	11596
930.894	11619
930.998	11604
931.103	11752
931.207	11429
931.311	11307
931.415	11227
931.519	10999
931.623	11090
