Data from test_V78500241_1154.txt Node
Date: Fri Mar 25 15:17:53 CST 2022
User: usil
Spectrometer: V785-0024
Trigger mode: 0
Integration Time (sec): 4.000000E-1
Scans to average: 1
Nonlinearity correction enabled: false
Boxcar width: 0
Storing dark spectrum: false
XAxis mode: Wavelengths
Number of Pixels in Spectrum: 1024
>>>>>Begin Spectral Data<<<<<
801.071	28394
801.214	28207
801.356	28055
801.499	28021
801.641	27842
801.783	27850
801.926	27994
802.068	27861
802.211	27808
802.353	27530
802.496	27660
802.638	27572
802.78	27652
802.923	27606
803.065	27462
803.208	27538
803.35	27466
803.492	27656
803.635	27660
803.777	27637
803.919	27770
804.061	28036
804.204	27888
804.346	27637
804.488	27694
804.63	27743
804.773	27599
804.915	27797
805.057	27808
805.199	27720
805.341	27926
805.483	27819
805.626	27880
805.768	27682
805.91	27854
806.052	27956
806.194	27717
806.336	28093
806.478	27972
806.62	28010
806.762	28044
806.904	28154
807.046	28542
807.188	28272
807.33	28394
807.472	28485
807.614	28390
807.756	28401
807.898	28268
808.04	28249
808.182	28242
808.324	28299
808.465	28246
808.607	28535
808.749	28577
808.891	28691
809.033	28664
809.174	28645
809.316	28656
809.458	28607
809.6	28565
809.741	28584
809.883	28740
810.025	28934
810.166	28801
810.308	28843
810.45	28930
810.591	28812
810.733	28744
810.875	28538
811.016	28394
811.158	28493
811.299	28793
811.441	28820
811.582	28641
811.724	28607
811.865	28641
812.007	28508
812.148	28546
812.29	28592
812.431	28850
812.573	28888
812.714	29064
812.855	29064
812.997	29216
813.138	29356
813.279	29208
813.421	29216
813.562	29124
813.703	28995
813.845	28839
813.986	28675
814.127	28443
814.268	28295
814.41	28265
814.551	28310
814.692	28421
814.833	28234
814.974	28287
815.115	28337
815.256	28150
815.397	28154
815.539	28329
815.68	28139
815.821	28063
815.962	28230
816.103	28169
816.244	28139
816.385	27945
816.526	27937
816.666	27781
816.807	27648
816.948	27785
817.089	27781
817.23	27705
817.371	27644
817.512	27572
817.653	27755
817.793	27614
817.934	27591
818.075	27671
818.216	27785
818.356	27652
818.497	27450
818.638	27473
818.778	27348
818.919	27458
819.06	27462
819.2	27637
819.341	27660
819.481	27732
819.622	27781
819.762	28017
819.903	28048
820.043	27907
820.184	27850
820.324	27545
820.465	27888
820.605	27850
820.746	27793
820.886	27572
821.026	27800
821.167	27857
821.307	27831
821.447	27667
821.588	27496
821.728	27504
821.868	27256
822.008	27173
822.149	27081
822.289	27039
822.429	26724
822.569	26842
822.709	26773
822.849	26522
822.99	26518
823.13	26621
823.27	26526
823.41	26465
823.55	26514
823.69	26526
823.83	26453
823.97	26453
824.11	26240
824.25	26119
824.389	26374
824.529	26343
824.669	26400
824.809	26545
824.949	26465
825.089	26252
825.228	26415
825.368	26161
825.508	25989
825.648	26168
825.787	26214
825.927	26202
826.067	26081
826.206	26168
826.346	26202
826.485	26142
826.625	26157
826.765	26336
826.904	26267
827.044	26001
827.183	25894
827.323	25974
827.462	25928
827.601	25974
827.741	25921
827.88	25970
828.02	25761
828.159	25902
828.298	25909
828.437	26043
828.577	25898
828.716	26024
828.855	25803
828.994	25727
829.134	25613
829.273	25723
829.412	25529
829.551	25578
829.69	25605
829.829	25685
829.968	25742
830.107	25632
830.246	25582
830.385	25506
830.524	25597
830.663	25358
830.802	25343
830.941	25221
831.08	25198
831.219	25350
831.357	25346
831.496	25346
831.635	25236
831.774	25129
831.913	25095
832.051	25122
832.19	25057
832.329	25129
832.467	24894
832.606	24802
832.744	24886
832.883	24779
833.022	24798
833.16	24951
833.299	25053
833.437	24852
833.576	25034
833.714	25042
833.852	25015
833.991	24947
834.129	25091
834.267	25114
834.406	25042
834.544	24977
834.682	24913
834.821	25008
834.959	25126
835.097	24935
835.235	25012
835.373	24981
835.511	25034
835.65	24814
835.788	24821
835.926	24722
836.064	24582
836.202	24604
836.34	24848
836.478	25004
836.615	24798
836.753	24768
836.891	24795
837.029	24894
837.167	24627
837.305	24730
837.443	24688
837.58	24475
837.718	24783
837.856	24677
837.993	24517
838.131	24669
838.269	24486
838.406	24433
838.544	24452
838.681	24334
838.819	24372
838.956	24106
839.094	23863
839.231	24228
839.369	24258
839.506	24464
839.643	24361
839.781	24095
839.918	24228
840.055	24205
840.193	23980
840.33	24125
840.467	24182
840.604	24136
840.742	24308
840.879	23885
841.016	23984
841.153	23992
841.29	24171
841.427	23992
841.564	24110
841.701	24064
841.838	23965
841.975	23859
842.112	23961
842.249	23885
842.385	23794
842.522	23999
842.659	23832
842.796	23828
842.933	23790
843.069	23729
843.206	23786
843.343	23752
843.479	23748
843.616	23707
843.752	23604
843.889	23558
844.025	23642
844.162	23497
844.298	23642
844.435	23551
844.571	23512
844.708	23619
844.844	23695
844.98	23741
845.117	23691
845.253	23467
845.389	23547
845.525	23608
845.661	23482
845.798	23292
845.934	23471
846.07	23212
846.206	23197
846.342	23414
846.478	23311
846.614	23083
846.75	22873
846.886	23117
847.022	23064
847.158	22961
847.294	23105
847.429	23174
847.565	23067
847.701	23124
847.837	22843
847.972	22691
848.108	22965
848.244	22839
848.379	22557
848.515	22596
848.65	22584
848.786	22611
848.921	22656
849.057	22694
849.192	22771
849.328	22687
849.463	22607
849.598	22615
849.734	22569
849.869	22485
850.004	22344
850.14	22390
850.275	22341
850.41	22284
850.545	22322
850.68	22265
850.815	22318
850.95	22379
851.085	22497
851.22	22523
851.355	22379
851.49	22268
851.625	22451
851.76	22249
851.895	22173
852.03	22299
852.165	22325
852.299	22303
852.434	22504
852.569	22344
852.703	22363
852.838	22462
852.973	22390
853.107	22443
853.242	22318
853.376	22211
853.511	22025
853.645	22105
853.78	22287
853.914	22329
854.048	22246
854.183	22253
854.317	22242
854.451	22341
854.585	22090
854.72	22051
854.854	22192
854.988	22112
855.122	22135
855.256	22032
855.39	22143
855.524	22223
855.658	22234
855.792	22112
855.926	22086
856.06	22166
856.194	22428
856.327	22188
856.461	22124
856.595	22143
856.729	22128
856.862	22299
856.996	22246
857.13	22394
857.263	22314
857.397	22207
857.53	22253
857.664	22166
857.797	22303
857.931	22299
858.064	22200
858.197	22196
858.331	22150
858.464	22059
858.597	22070
858.731	22109
858.864	22196
858.997	22246
859.13	22173
859.263	22238
859.396	22219
859.529	22135
859.662	22101
859.795	22086
859.928	22188
860.061	22352
860.194	22375
860.327	22276
860.46	22226
860.592	22242
860.725	22295
860.858	22299
860.99	22226
861.123	22139
861.256	22124
861.388	22223
861.521	22862
861.653	22093
861.786	21945
861.918	22029
862.05	21983
862.183	22059
862.315	22169
862.447	22131
862.58	22211
862.712	21960
862.844	21835
862.976	22044
863.108	21873
863.24	22150
863.372	21903
863.504	21892
863.636	21793
863.768	22032
863.9	21816
864.032	21739
864.164	21789
864.296	21915
864.428	21930
864.559	21930
864.691	22013
864.823	21903
864.954	21793
865.086	21819
865.217	21739
865.349	21743
865.48	21679
865.612	21774
865.743	21865
865.875	21682
866.006	21751
866.137	21705
866.269	21770
866.4	21724
866.531	21736
866.662	21648
866.793	21660
866.924	21599
867.055	21732
867.186	21736
867.317	21736
867.448	21614
867.579	21629
867.71	21625
867.841	21599
867.972	21743
868.103	21827
868.233	21633
868.364	21599
868.495	21804
868.625	22006
868.756	21907
868.886	21823
869.017	21968
869.147	22025
869.278	21979
869.408	21956
869.539	21907
869.669	21994
869.799	21964
869.929	22120
870.06	22025
870.19	22173
870.32	22204
870.45	22398
870.58	22261
870.71	22382
870.84	22440
870.97	22265
871.1	22390
871.23	22489
871.36	22569
871.489	22363
871.619	22455
871.749	22573
871.879	22599
872.008	22432
872.138	22489
872.267	22523
872.397	22413
872.526	22268
872.656	22371
872.785	22352
872.915	22466
873.044	22440
873.173	22531
873.303	22535
873.432	22527
873.561	22588
873.69	22573
873.819	22493
873.948	22668
874.077	22561
874.206	22485
874.335	22432
874.464	22702
874.593	22782
874.722	22729
874.851	22930
874.979	22805
875.108	22900
875.237	22763
875.365	22645
875.494	22748
875.623	22847
875.751	22691
875.88	22843
876.008	22793
876.136	22900
876.265	23212
876.393	23181
876.521	23132
876.65	23250
876.778	23189
876.906	23147
877.034	22976
877.162	23113
877.29	23079
877.418	23140
877.546	23117
877.674	23155
877.802	23071
877.93	23242
878.058	23003
878.185	22976
878.313	23140
878.441	23064
878.568	22694
878.696	23113
878.824	23166
878.951	23174
879.079	23334
879.206	23349
879.333	23170
879.461	23064
879.588	23204
879.715	23288
879.842	23337
879.97	23075
880.097	22812
880.224	22987
880.351	23033
880.478	22889
880.605	22820
880.732	22942
880.859	23193
880.986	22873
881.112	22976
881.239	22835
881.366	22577
881.493	22565
881.619	22500
881.746	22504
881.872	22516
881.999	22398
882.125	22363
882.252	22478
882.378	22417
882.505	22478
882.631	22440
882.757	22200
882.883	22177
883.01	22242
883.136	22147
883.262	22109
883.388	22006
883.514	22093
883.64	22276
883.766	22093
883.892	21972
884.018	21865
884.143	22116
884.269	22173
884.395	21964
884.52	21762
884.646	21778
884.772	21717
884.897	21694
885.023	21827
885.148	21895
885.274	21994
885.399	21873
885.524	21823
885.65	21819
885.775	21793
885.9	21774
886.025	21739
886.15	21827
886.275	21854
886.4	21770
886.525	21720
886.65	21667
886.775	21690
886.9	21823
887.025	21975
887.149	21819
887.274	21660
887.399	21526
887.523	21545
887.648	21576
887.773	21511
887.897	21789
888.021	21599
888.146	21526
888.27	21622
888.395	21698
888.519	21618
888.643	21698
888.767	21644
888.891	21523
889.015	21275
889.139	21435
889.263	21374
889.387	21378
889.511	21629
889.635	21496
889.759	21393
889.883	21329
890.006	21306
890.13	21469
890.254	21317
890.377	21370
890.501	21252
890.624	21154
890.748	21150
890.871	21108
890.995	20921
891.118	20849
891.241	20933
891.364	20960
891.488	21036
891.611	20948
891.734	20948
891.857	20937
891.98	20944
892.103	21001
892.226	20979
892.349	20838
892.471	20750
892.594	20899
892.717	20906
892.839	20849
892.962	20887
893.085	21009
893.207	20838
893.33	20724
893.452	20762
893.575	20823
893.697	20819
893.819	20918
893.941	20990
894.064	20960
894.186	20815
894.308	20872
894.43	20864
894.552	20944
894.674	20914
894.796	20720
894.918	20735
895.04	20792
895.161	20902
895.283	20807
895.405	20777
895.526	20887
895.648	20758
895.769	20788
895.891	20727
896.012	20906
896.134	20952
896.255	20830
896.376	20727
896.498	20807
896.619	20765
896.74	20811
896.861	20921
896.982	21077
897.103	21294
897.224	21165
897.345	21138
897.466	20944
897.587	20921
897.708	21070
897.828	21081
897.949	20849
898.07	20838
898.19	20792
898.311	21138
898.431	20937
898.552	20796
898.672	21051
898.792	21157
898.913	21039
899.033	20895
899.153	20739
899.273	20716
899.393	20644
899.513	20785
899.633	20720
899.753	20648
899.873	20701
899.993	20697
900.113	20731
900.232	20667
900.352	20727
900.472	20613
900.591	20351
900.711	20499
900.83	20461
900.95	20625
901.069	20488
901.189	20473
901.308	20259
901.427	20035
901.546	20183
901.665	19970
901.784	20122
901.904	19974
902.023	19864
902.141	19605
902.26	19594
902.379	19578
902.498	19514
902.617	19590
902.735	19586
902.854	19540
902.973	19460
903.091	19232
903.21	19320
903.328	19236
903.446	19217
903.565	19069
903.683	19072
903.801	18962
903.919	18894
904.038	18996
904.156	18867
904.274	18852
904.392	18913
904.51	18760
904.627	18837
904.745	18817
904.863	18886
904.981	18623
905.098	18452
905.216	18475
905.334	18532
905.451	18445
905.569	18407
905.686	18502
905.803	18559
905.921	18315
906.038	18395
906.155	18395
906.272	18266
906.389	18213
906.506	18129
906.623	18087
906.74	17939
906.857	17939
906.974	17916
907.091	17996
907.208	18136
907.324	18019
907.441	17950
907.557	17783
907.674	17741
907.79	17581
907.907	17729
908.023	17726
908.139	17756
908.256	17524
908.372	17596
908.488	17642
908.604	17600
908.72	17330
908.836	17505
908.952	17421
909.068	17516
909.184	17532
909.3	17486
909.415	17402
909.531	17402
909.647	17200
909.762	17181
909.878	17155
909.993	17102
910.108	17071
910.224	17048
910.339	17197
910.454	17006
910.57	17022
910.685	16873
910.8	17098
910.915	17143
911.03	16930
911.145	16793
911.259	16771
911.374	16778
911.489	16748
911.604	16656
911.718	16424
911.833	16466
911.947	16409
912.062	16280
912.176	16554
912.291	16447
912.405	16470
912.519	16584
912.633	16618
912.748	16569
912.862	16417
912.976	16287
913.09	16135
913.204	16249
913.318	16265
913.431	16443
913.545	16253
913.659	16417
913.772	16200
913.886	16105
914	16055
914.113	16158
914.226	16192
914.34	16185
914.453	15964
914.566	16150
914.68	15911
914.793	15934
914.906	15838
915.019	15679
915.132	15511
915.245	15652
915.358	15720
915.47	15682
915.583	15633
915.696	15682
915.809	15751
915.921	15789
916.034	15625
916.146	15614
916.259	15504
916.371	15557
916.483	15663
916.595	15519
916.708	15485
916.82	15447
916.932	15405
917.044	15416
917.156	15374
917.268	15348
917.38	15272
917.491	15336
917.603	15294
917.715	15359
917.826	15355
917.938	15165
918.049	15142
918.161	15199
918.272	15325
918.384	15355
918.495	15150
918.606	15131
918.717	15032
918.828	15146
918.939	14994
919.05	14990
919.161	14887
919.272	14902
919.383	14925
919.494	14971
919.604	15256
919.715	15013
919.826	14918
919.936	14994
920.047	15089
920.157	14990
920.267	15154
920.378	15066
920.488	14941
920.598	15051
920.708	15321
920.818	15161
920.928	15081
921.038	15279
921.148	15180
921.258	14967
921.368	14952
921.477	14754
921.587	14716
921.697	14610
921.806	14602
921.916	14617
922.025	14450
922.134	14362
922.244	14370
922.353	14328
922.462	14301
922.571	14180
922.68	14096
922.789	13936
922.898	14069
923.007	14005
923.116	14039
923.224	14050
923.333	13947
923.442	13784
923.55	13845
923.659	13807
923.767	13868
923.876	13734
923.984	13917
924.092	13674
924.201	13734
924.309	13708
924.417	13734
924.525	13670
924.633	13753
924.741	14549
924.849	13354
924.956	13540
925.064	13365
925.172	13358
925.279	13350
925.387	13407
925.494	13354
925.602	13476
925.709	13377
925.816	13228
925.924	13316
926.031	13438
926.138	13244
926.245	13358
926.352	13179
926.459	13381
926.566	13365
926.673	13183
926.779	13141
926.886	13107
926.993	12913
927.099	12954
927.206	12798
927.312	12821
927.419	12901
927.525	12829
927.631	12878
927.737	12825
927.843	12859
927.95	12681
928.056	12768
928.162	12764
928.267	12741
928.373	13358
928.479	12825
928.585	12639
928.69	12711
928.796	12703
928.901	12528
929.007	12448
929.112	12635
929.218	12566
929.323	12521
929.428	12460
929.533	12574
929.638	12395
929.743	12399
929.848	12414
929.953	12323
930.058	12323
930.163	12064
930.267	12140
930.372	12338
930.477	12041
930.581	12270
930.685	12209
930.79	12053
930.894	12140
930.998	11977
931.103	12129
931.207	11771
931.311	11684
931.415	11608
931.519	11436
931.623	11436
