Data from test_V78500241_226.txt Node
Date: Fri Mar 25 15:11:26 CST 2022
User: usil
Spectrometer: V785-0024
Trigger mode: 0
Integration Time (sec): 4.000000E-1
Scans to average: 1
Nonlinearity correction enabled: false
Boxcar width: 0
Storing dark spectrum: false
XAxis mode: Wavelengths
Number of Pixels in Spectrum: 1024
>>>>>Begin Spectral Data<<<<<
801.071	28002
801.214	27964
801.356	27625
801.499	27507
801.641	27386
801.783	27321
801.926	27393
802.068	27393
802.211	27237
802.353	27275
802.496	27119
802.638	27180
802.78	26948
802.923	26986
803.065	26887
803.208	27009
803.35	27074
803.492	27116
803.635	27218
803.777	26979
803.919	27131
804.061	27523
804.204	27298
804.346	27036
804.488	26971
804.63	27112
804.773	27081
804.915	27005
805.057	27298
805.199	26998
805.341	27199
805.483	27218
805.626	27237
805.768	27123
805.91	27199
806.052	27340
806.194	27180
806.336	27477
806.478	27237
806.62	27363
806.762	27237
806.904	27420
807.046	27682
807.188	27629
807.33	27603
807.472	27663
807.614	27542
807.756	27564
807.898	27424
808.04	27378
808.182	27340
808.324	27412
808.465	27355
808.607	27694
808.749	27720
808.891	27770
809.033	27914
809.174	27850
809.316	27652
809.458	27842
809.6	27838
809.741	27949
809.883	27937
810.025	28032
810.166	27953
810.308	28093
810.45	28070
810.591	27979
810.733	27732
810.875	27762
811.016	27686
811.158	27561
811.299	27823
811.441	27846
811.582	27850
811.724	27755
811.865	27698
812.007	27686
812.148	27739
812.29	27793
812.431	27861
812.573	27903
812.714	28173
812.855	28139
812.997	28318
813.138	28394
813.279	28428
813.421	28386
813.562	28169
813.703	28204
813.845	27987
813.986	27515
814.127	27648
814.268	27492
814.41	27370
814.551	27336
814.692	27397
814.833	27306
814.974	27287
815.115	27336
815.256	27283
815.397	27104
815.539	27214
815.68	27264
815.821	27154
815.962	27237
816.103	27249
816.244	26994
816.385	26921
816.526	26910
816.666	26655
816.807	26537
816.948	26769
817.089	26697
817.23	26609
817.371	26617
817.512	26549
817.653	26499
817.793	26568
817.934	26606
818.075	26492
818.216	26583
818.356	26545
818.497	26469
818.638	26275
818.778	26267
818.919	26309
819.06	26324
819.2	26415
819.341	26480
819.481	26461
819.622	26537
819.762	26762
819.903	26724
820.043	26640
820.184	26518
820.324	26648
820.465	26667
820.605	26746
820.746	26617
820.886	26511
821.026	26644
821.167	26583
821.307	26587
821.447	26469
821.588	26476
821.728	26415
821.868	26210
822.008	25909
822.149	25868
822.289	25963
822.429	25655
822.569	25628
822.709	25639
822.849	25556
822.99	25487
823.13	25362
823.27	25384
823.41	25259
823.55	25187
823.69	25270
823.83	25255
823.97	25301
824.11	24981
824.25	25069
824.389	25019
824.529	25122
824.669	25057
824.809	25221
824.949	25027
825.089	24992
825.228	25175
825.368	24821
825.508	24844
825.648	24890
825.787	24977
825.927	24886
826.067	24848
826.206	24821
826.346	24947
826.485	25019
826.625	24916
826.765	24939
826.904	24981
827.044	24509
827.183	24642
827.323	24551
827.462	24722
827.601	24574
827.741	24566
827.88	24563
828.02	24532
828.159	24627
828.298	24513
828.437	24532
828.577	24323
828.716	24525
828.855	24486
828.994	24194
829.134	24262
829.273	24365
829.412	24270
829.551	24068
829.69	24270
829.829	24209
829.968	24262
830.107	24308
830.246	24251
830.385	24186
830.524	24038
830.663	23973
830.802	23984
830.941	23859
831.08	23828
831.219	23874
831.357	23916
831.496	24083
831.635	23927
831.774	23733
831.913	23718
832.051	23676
832.19	23623
832.329	23710
832.467	23520
832.606	23490
832.744	23493
832.883	23547
833.022	23448
833.16	23448
833.299	23531
833.437	23421
833.576	23512
833.714	23653
833.852	23592
833.991	23512
834.129	23596
834.267	23471
834.406	23528
834.544	23535
834.682	23718
834.821	23478
834.959	23627
835.097	23383
835.235	23573
835.373	23452
835.511	23471
835.65	23429
835.788	23459
835.926	23254
836.064	23239
836.202	23155
836.34	23376
836.478	23402
836.615	23280
836.753	23349
836.891	23474
837.029	23433
837.167	23315
837.305	23292
837.443	23231
837.58	23334
837.718	23193
837.856	23292
837.993	23235
838.131	23105
838.269	23102
838.406	23014
838.544	22991
838.681	22858
838.819	22858
838.956	22729
839.094	22603
839.231	22763
839.369	22679
839.506	23079
839.643	22774
839.781	22489
839.918	22599
840.055	22516
840.193	22565
840.33	22569
840.467	22542
840.604	22485
840.742	22824
840.879	22394
841.016	22466
841.153	22333
841.29	22649
841.427	22523
841.564	22538
841.701	22569
841.838	22478
841.975	22436
842.112	22436
842.249	22451
842.385	22318
842.522	22512
842.659	22344
842.796	22295
842.933	22204
843.069	22287
843.206	22268
843.343	22322
843.479	22291
843.616	22234
843.752	22048
843.889	22090
844.025	22173
844.162	21991
844.298	22147
844.435	22109
844.571	21987
844.708	22128
844.844	22226
844.98	22188
845.117	22120
845.253	21922
845.389	21922
845.525	21915
845.661	21934
845.798	21793
845.934	21819
846.07	21747
846.206	21846
846.342	21876
846.478	21736
846.614	21538
846.75	21496
846.886	21428
847.022	21504
847.158	21545
847.294	21481
847.429	21485
847.565	21568
847.701	21694
847.837	21195
847.972	21211
848.108	21287
848.244	21279
848.379	21154
848.515	21108
848.65	21055
848.786	21154
848.921	21123
849.057	21173
849.192	21142
849.328	21207
849.463	20982
849.598	21077
849.734	21036
849.869	21024
850.004	20796
850.14	20842
850.275	20811
850.41	20826
850.545	20785
850.68	20796
850.815	20899
850.95	20792
851.085	20902
851.22	20906
851.355	20842
851.49	20807
851.625	20750
851.76	20880
851.895	20640
852.03	20750
852.165	20830
852.299	20933
852.434	20872
852.569	20861
852.703	20914
852.838	20918
852.973	20895
853.107	20910
853.242	20720
853.376	20712
853.511	20495
853.645	20629
853.78	20838
853.914	20674
854.048	20552
854.183	20575
854.317	20648
854.451	20762
854.585	20583
854.72	20465
854.854	20663
854.988	20492
855.122	20579
855.256	20476
855.39	20621
855.524	20731
855.658	20651
855.792	20648
855.926	20587
856.06	20629
856.194	20686
856.327	20678
856.461	20568
856.595	20480
856.729	20663
856.862	20739
856.996	20674
857.13	20686
857.263	20632
857.397	20613
857.53	20727
857.664	20507
857.797	20689
857.931	20746
858.064	20636
858.197	20705
858.331	20533
858.464	20609
858.597	20469
858.731	20670
858.864	20537
858.997	20636
859.13	20629
859.263	20632
859.396	20727
859.529	20609
859.662	20598
859.795	20587
859.928	20621
860.061	20750
860.194	20815
860.327	20507
860.46	20716
860.592	20727
860.725	20739
860.858	20701
860.99	20556
861.123	20590
861.256	20374
861.388	20667
861.521	21211
861.653	20446
861.786	20442
861.918	20358
862.05	20598
862.183	20663
862.315	20560
862.447	20686
862.58	20609
862.712	20336
862.844	20252
862.976	20480
863.108	20415
863.24	20853
863.372	20130
863.504	20294
863.636	20301
863.768	20248
863.9	20218
864.032	20240
864.164	20210
864.296	20214
864.428	20412
864.559	20301
864.691	20366
864.823	20187
864.954	20275
865.086	20267
865.217	20077
865.349	20142
865.48	20225
865.612	20149
865.743	20301
865.875	20385
866.006	20107
866.137	20115
866.269	20218
866.4	20256
866.531	20221
866.662	20244
866.793	20035
866.924	20043
867.055	20134
867.186	20206
867.317	20149
867.448	20024
867.579	20065
867.71	20062
867.841	20058
867.972	20088
868.103	20183
868.233	20065
868.364	20134
868.495	20271
868.625	20415
868.756	20465
868.886	20229
869.017	20237
869.147	20286
869.278	20522
869.408	20381
869.539	20294
869.669	20488
869.799	20362
869.929	20415
870.06	20366
870.19	20697
870.32	20632
870.45	20781
870.58	20716
870.71	20906
870.84	20948
870.97	20720
871.1	20823
871.23	20853
871.36	21028
871.489	20792
871.619	20868
871.749	21013
871.879	21020
872.008	21077
872.138	21024
872.267	20967
872.397	20823
872.526	20743
872.656	20796
872.785	20731
872.915	21070
873.044	21017
873.173	21070
873.303	21070
873.432	21009
873.561	21005
873.69	21039
873.819	20941
873.948	21116
874.077	20941
874.206	21077
874.335	21028
874.464	20990
874.593	21135
874.722	21192
874.851	21192
874.979	21336
875.108	21367
875.237	21104
875.365	21009
875.494	21180
875.623	21268
875.751	21252
875.88	21264
876.008	21408
876.136	21405
876.265	21591
876.393	21755
876.521	21690
876.65	21789
876.778	21637
876.906	21580
877.034	21447
877.162	21622
877.29	21595
877.418	21549
877.546	21622
877.674	21519
877.802	21648
877.93	21523
878.058	21477
878.185	21530
878.313	21542
878.441	21618
878.568	21378
878.696	21583
878.824	21492
878.951	21587
879.079	21671
879.206	21895
879.333	21797
879.461	21614
879.588	21679
879.715	21660
879.842	21979
879.97	21671
880.097	21412
880.224	21477
880.351	21374
880.478	21382
880.605	21458
880.732	21340
880.859	21561
880.986	21340
881.112	21466
881.239	21344
881.366	21104
881.493	21104
881.619	20971
881.746	20971
881.872	20956
881.999	20975
882.125	20914
882.252	21131
882.378	21009
882.505	21085
882.631	20895
882.757	20754
882.883	20872
883.01	20765
883.136	20655
883.262	20629
883.388	20556
883.514	20727
883.64	20689
883.766	20549
883.892	20465
884.018	20530
884.143	20735
884.269	20705
884.395	20400
884.52	20408
884.646	20370
884.772	20286
884.897	20358
885.023	20336
885.148	20400
885.274	20541
885.399	20431
885.524	20362
885.65	20431
885.775	20320
885.9	20343
886.025	20419
886.15	20476
886.275	20358
886.4	20202
886.525	20396
886.65	20385
886.775	20271
886.9	20461
887.025	20560
887.149	20332
887.274	20195
887.399	20202
887.523	20225
887.648	20096
887.773	19932
887.897	20142
888.021	20161
888.146	20240
888.27	20210
888.395	20164
888.519	20206
888.643	20187
888.767	20119
888.891	20111
889.015	19970
889.139	19989
889.263	19928
889.387	20008
889.511	20161
889.635	19917
889.759	19890
889.883	19887
890.006	19887
890.13	19970
890.254	19864
890.377	19959
890.501	19693
890.624	19643
890.748	19723
890.871	19537
890.995	19556
891.118	19533
891.241	19544
891.364	19480
891.488	19563
891.611	19464
891.734	19514
891.857	19559
891.98	19548
892.103	19556
892.226	19495
892.349	19556
892.471	19358
892.594	19270
892.717	19400
892.839	19381
892.962	19343
893.085	19438
893.207	19533
893.33	19278
893.452	19206
893.575	19419
893.697	19358
893.819	19514
893.941	19575
894.064	19556
894.186	19354
894.308	19358
894.43	19430
894.552	19609
894.674	19449
894.796	19312
894.918	19403
895.04	19381
895.161	19483
895.283	19480
895.405	19407
895.526	19460
895.648	19434
895.769	19411
895.891	19559
896.012	19643
896.134	19510
896.255	19468
896.376	19365
896.498	19460
896.619	19582
896.74	19537
896.861	19480
896.982	19753
897.103	19883
897.224	19734
897.345	19639
897.466	19559
897.587	19655
897.708	19841
897.828	19765
897.949	19601
898.07	19563
898.19	19601
898.311	19708
898.431	19616
898.552	19734
898.672	19681
898.792	19852
898.913	19666
899.033	19521
899.153	19426
899.273	19232
899.393	19369
899.513	19445
899.633	19384
899.753	19430
899.873	19350
899.993	19358
900.113	19285
900.232	19346
900.352	19289
900.472	19278
900.591	19057
900.711	19240
900.83	19118
900.95	19350
901.069	19308
901.189	19133
901.308	18882
901.427	18741
901.546	18791
901.665	18814
901.784	18837
901.904	18791
902.023	18620
902.141	18418
902.26	18285
902.379	18407
902.498	18228
902.617	18247
902.735	18247
902.854	18243
902.973	18281
903.091	17901
903.21	17950
903.328	17893
903.446	17851
903.565	17771
903.683	17817
903.801	17680
903.919	17653
904.038	17642
904.156	17596
904.274	17627
904.392	17611
904.51	17547
904.627	17429
904.745	17615
904.863	17581
904.981	17368
905.098	17231
905.216	17235
905.334	17261
905.451	17307
905.569	17189
905.686	17231
905.803	17174
905.921	17060
906.038	17159
906.155	16915
906.272	16923
906.389	16904
906.506	16733
906.623	16793
906.74	16824
906.857	16607
906.974	16653
907.091	16691
907.208	16866
907.324	16710
907.441	16599
907.557	16478
907.674	16516
907.79	16318
907.907	16542
908.023	16466
908.139	16466
908.256	16322
908.372	16394
908.488	16291
908.604	16238
908.72	16291
908.836	16143
908.952	16291
909.068	16112
909.184	16291
909.3	16116
909.415	16173
909.531	16181
909.647	16002
909.762	15846
909.878	15884
909.993	15816
910.108	15831
910.224	15804
910.339	15835
910.454	15751
910.57	15671
910.685	15671
910.8	15865
910.915	15846
911.03	15766
911.145	15488
911.259	15496
911.374	15428
911.489	15378
911.604	15397
911.718	15100
911.833	15245
911.947	15047
912.062	15036
912.176	15165
912.291	15192
912.405	15241
912.519	15355
912.633	15336
912.748	15207
912.862	15218
912.976	15058
913.09	14857
913.204	15097
913.318	14998
913.431	15199
913.545	15123
913.659	15108
913.772	14883
913.886	14853
914	14853
914.113	14899
914.226	14963
914.34	14967
914.453	14716
914.566	14979
914.68	14682
914.793	14735
914.906	14526
915.019	14385
915.132	14412
915.245	14499
915.358	14571
915.47	14442
915.583	14446
915.696	14461
915.809	14632
915.921	14552
916.034	14423
916.146	14309
916.259	14400
916.371	14457
916.483	14396
916.595	14366
916.708	14339
916.82	14259
916.932	14267
917.044	14301
917.156	14221
917.268	14130
917.38	14096
917.491	14096
917.603	14092
917.715	14176
917.826	14275
917.938	14100
918.049	13997
918.161	14180
918.272	14259
918.384	14294
918.495	14096
918.606	14016
918.717	13936
918.828	13974
918.939	14020
919.05	13868
919.161	13868
919.272	13712
919.383	13791
919.494	13978
919.604	14161
919.715	13967
919.826	13852
919.936	13868
920.047	13967
920.157	13902
920.267	14024
920.378	14008
920.488	13890
920.598	14039
920.708	14183
920.818	14050
920.928	13989
921.038	14130
921.148	14096
921.258	13932
921.368	13700
921.477	13750
921.587	13681
921.697	13540
921.806	13780
921.916	13537
922.025	13403
922.134	13381
922.244	13282
922.353	13343
922.462	13259
922.571	13129
922.68	13042
922.789	13038
922.898	13027
923.007	12913
923.116	13076
923.224	12878
923.333	12897
923.442	12852
923.55	12840
923.659	12798
923.767	12871
923.876	12772
923.984	12875
924.092	12692
924.201	12711
924.309	12692
924.417	12734
924.525	12578
924.633	12688
924.741	13377
924.849	12464
924.956	12563
925.064	12506
925.172	12273
925.279	12395
925.387	12429
925.494	12441
925.602	12528
925.709	12563
925.816	12365
925.924	12429
926.031	12475
926.138	12357
926.245	12350
926.352	12334
926.459	12388
926.566	12372
926.673	12334
926.779	12232
926.886	12121
926.993	12053
927.099	12030
927.206	11931
927.312	11954
927.419	12007
927.525	12011
927.631	12011
927.737	11904
927.843	11870
927.95	11707
928.056	11817
928.162	11874
928.267	11904
928.373	12376
928.479	11920
928.585	11653
928.69	11691
928.796	11855
928.901	11722
929.007	11634
929.112	11726
929.218	11615
929.323	11589
929.428	11566
929.533	11619
929.638	11493
929.743	11570
929.848	11539
929.953	11539
930.058	11452
930.163	11208
930.267	11296
930.372	11444
930.477	11181
930.581	11398
930.685	11349
930.79	11181
930.894	11208
930.998	11071
931.103	11296
931.207	10908
931.311	10793
931.415	10702
931.519	10550
931.623	10516
