Data from test_V78500241_2086.txt Node
Date: Fri Mar 25 15:24:23 CST 2022
User: usil
Spectrometer: V785-0024
Trigger mode: 0
Integration Time (sec): 4.000000E-1
Scans to average: 1
Nonlinearity correction enabled: false
Boxcar width: 0
Storing dark spectrum: false
XAxis mode: Wavelengths
Number of Pixels in Spectrum: 1024
>>>>>Begin Spectral Data<<<<<
801.071	27865
801.214	27739
801.356	27511
801.499	27538
801.641	27272
801.783	27466
801.926	27374
802.068	27458
802.211	27378
802.353	27256
802.496	27138
802.638	26910
802.78	26986
802.923	26937
803.065	26902
803.208	26899
803.35	27062
803.492	27032
803.635	27245
803.777	27077
803.919	27108
804.061	27397
804.204	27393
804.346	27165
804.488	26956
804.63	27142
804.773	27180
804.915	27161
805.057	27378
805.199	27123
805.341	27249
805.483	27515
805.626	27370
805.768	27233
805.91	27427
806.052	27336
806.194	27405
806.336	27507
806.478	27374
806.62	27427
806.762	27405
806.904	27759
807.046	27937
807.188	27812
807.33	27888
807.472	27770
807.614	27667
807.756	27789
807.898	27583
808.04	27538
808.182	27587
808.324	27694
808.465	27724
808.607	27835
808.749	27964
808.891	28173
809.033	28154
809.174	28006
809.316	28055
809.458	28036
809.6	27869
809.741	28162
809.883	28166
810.025	28310
810.166	28177
810.308	28196
810.45	28219
810.591	28135
810.733	27983
810.875	27800
811.016	27743
811.158	27736
811.299	28048
811.441	28139
811.582	28086
811.724	27945
811.865	27949
812.007	27994
812.148	27884
812.29	27914
812.431	28284
812.573	28253
812.714	28318
812.855	28573
812.997	28440
813.138	28634
813.279	28588
813.421	28459
813.562	28584
813.703	28436
813.845	28131
813.986	27907
814.127	27724
814.268	27709
814.41	27747
814.551	27679
814.692	27838
814.833	27492
814.974	27633
815.115	27690
815.256	27682
815.397	27587
815.539	27519
815.68	27435
815.821	27340
815.962	27454
816.103	27287
816.244	27374
816.385	27230
816.526	27085
816.666	26998
816.807	26956
816.948	26914
817.089	26990
817.23	26944
817.371	26887
817.512	26971
817.653	26975
817.793	26902
817.934	26868
818.075	26883
818.216	26902
818.356	26906
818.497	26830
818.638	26663
818.778	26716
818.919	26750
819.06	26720
819.2	26819
819.341	26880
819.481	26956
819.622	27127
819.762	27348
819.903	27173
820.043	27310
820.184	26998
820.324	26967
820.465	27074
820.605	27058
820.746	27070
820.886	26857
821.026	26940
821.167	26925
821.307	27062
821.447	26971
821.588	26788
821.728	26762
821.868	26613
822.008	26511
822.149	26442
822.289	26374
822.429	26107
822.569	26115
822.709	26153
822.849	26031
822.99	25906
823.13	25906
823.27	25776
823.41	25734
823.55	25510
823.69	25772
823.83	25814
823.97	25685
824.11	25624
824.25	25445
824.389	25624
824.529	25567
824.669	25578
824.809	25658
824.949	25582
825.089	25639
825.228	25628
825.368	25343
825.508	25426
825.648	25392
825.787	25453
825.927	25487
826.067	25506
826.206	25346
826.346	25472
826.485	25521
826.625	25392
826.765	25548
826.904	25499
827.044	25365
827.183	25274
827.323	25164
827.462	25183
827.601	25301
827.741	25190
827.88	25148
828.02	25091
828.159	25065
828.298	25190
828.437	25274
828.577	25061
828.716	25213
828.855	25057
828.994	24745
829.134	24928
829.273	24947
829.412	24806
829.551	24795
829.69	24787
829.829	24726
829.968	24970
830.107	24985
830.246	24859
830.385	24791
830.524	24760
830.663	24878
830.802	24692
830.941	24585
831.08	24433
831.219	24589
831.357	24601
831.496	24650
831.635	24479
831.774	24365
831.913	24270
832.051	24273
832.19	24239
832.329	24281
832.467	24129
832.606	24216
832.744	24213
832.883	24136
833.022	24060
833.16	24163
833.299	24194
833.437	24182
833.576	24190
833.714	24239
833.852	24270
833.991	24266
834.129	24277
834.267	24213
834.406	24197
834.544	24239
834.682	24057
834.821	24140
834.959	24266
835.097	24060
835.235	24121
835.373	24201
835.511	24182
835.65	24087
835.788	24136
835.926	23946
836.064	23680
836.202	23969
836.34	24030
836.478	24095
836.615	24038
836.753	23999
836.891	24117
837.029	23984
837.167	23954
837.305	23870
837.443	23767
837.58	23870
837.718	23916
837.856	23916
837.993	23798
838.131	23904
838.269	23577
838.406	23589
838.544	23695
838.681	23589
838.819	23497
838.956	23391
839.094	23334
839.231	23425
839.369	23493
839.506	23691
839.643	23672
839.781	23315
839.918	23277
840.055	23387
840.193	23254
840.33	23155
840.467	23303
840.604	23303
840.742	23539
840.879	23132
841.016	23181
841.153	23033
841.29	23356
841.427	23117
841.564	23242
841.701	23170
841.838	23147
841.975	23037
842.112	23117
842.249	23056
842.385	22938
842.522	23212
842.659	22949
842.796	23025
842.933	23003
843.069	22885
843.206	22972
843.343	23105
843.479	22927
843.616	23052
843.752	22736
843.889	22782
844.025	22972
844.162	22683
844.298	22900
844.435	22759
844.571	22740
844.708	22850
844.844	22946
844.98	22881
845.117	22862
845.253	22839
845.389	22710
845.525	22584
845.661	22656
845.798	22546
845.934	22516
846.07	22451
846.206	22485
846.342	22569
846.478	22459
846.614	22257
846.75	22211
846.886	22131
847.022	22257
847.158	22280
847.294	22234
847.429	22284
847.565	22097
847.701	22485
847.837	22067
847.972	21873
848.108	22036
848.244	22059
848.379	21922
848.515	21804
848.65	21895
848.786	21918
848.921	21899
849.057	21975
849.192	21911
849.328	21876
849.463	21785
849.598	21823
849.734	21778
849.869	21637
850.004	21568
850.14	21530
850.275	21580
850.41	21519
850.545	21564
850.68	21557
850.815	21580
850.95	21656
851.085	21800
851.22	21705
851.355	21523
851.49	21618
851.625	21511
851.76	21614
851.895	21431
852.03	21603
852.165	21568
852.299	21557
852.434	21648
852.569	21663
852.703	21534
852.838	21595
852.973	21751
853.107	21641
853.242	21534
853.376	21447
853.511	21336
853.645	21462
853.78	21576
853.914	21348
854.048	21302
854.183	21397
854.317	21412
854.451	21663
854.585	21450
854.72	21439
854.854	21545
854.988	21279
855.122	21534
855.256	21336
855.39	21401
855.524	21443
855.658	21458
855.792	21420
855.926	21481
856.06	21477
856.194	21435
856.327	21386
856.461	21389
856.595	21268
856.729	21393
856.862	21553
856.996	21370
857.13	21519
857.263	21519
857.397	21553
857.53	21275
857.664	21439
857.797	21466
857.931	21568
858.064	21363
858.197	21439
858.331	21507
858.464	21317
858.597	21241
858.731	21466
858.864	21294
858.997	21348
859.13	21416
859.263	21481
859.396	21519
859.529	21287
859.662	21344
859.795	21351
859.928	21386
860.061	21603
860.194	21557
860.327	21450
860.46	21488
860.592	21454
860.725	21610
860.858	21481
860.99	21496
861.123	21351
861.256	21450
861.388	21363
861.521	22067
861.653	21302
861.786	21184
861.918	21249
862.05	21386
862.183	21359
862.315	21367
862.447	21424
862.58	21321
862.712	21249
862.844	21009
862.976	21249
863.108	21150
863.24	21595
863.372	21077
863.504	21085
863.636	21066
863.768	21249
863.9	21173
864.032	21062
864.164	21127
864.296	21135
864.428	21138
864.559	21230
864.691	21146
864.823	21150
864.954	21112
865.086	21032
865.217	21058
865.349	20982
865.48	21017
865.612	21085
865.743	21199
865.875	20971
866.006	20990
866.137	21108
866.269	20971
866.4	20921
866.531	20895
866.662	20952
866.793	20971
866.924	20830
867.055	21024
867.186	20864
867.317	20838
867.448	20899
867.579	20872
867.71	20883
867.841	20880
867.972	20944
868.103	20861
868.233	21001
868.364	20910
868.495	21024
868.625	21180
868.756	21272
868.886	21173
869.017	21279
869.147	21298
869.278	21275
869.408	21237
869.539	21211
869.669	21252
869.799	21306
869.929	21272
870.06	21351
870.19	21378
870.32	21500
870.45	21644
870.58	21614
870.71	21724
870.84	21701
870.97	21599
871.1	21603
871.23	21663
871.36	21770
871.489	21633
871.619	21705
871.749	21823
871.879	21770
872.008	21861
872.138	21720
872.267	21876
872.397	21561
872.526	21641
872.656	21660
872.785	21568
872.915	21808
873.044	21808
873.173	21743
873.303	21816
873.432	21835
873.561	21979
873.69	21842
873.819	21835
873.948	21766
874.077	21652
874.206	21759
874.335	21823
874.464	21903
874.593	22021
874.722	21956
874.851	22063
874.979	22070
875.108	22143
875.237	22010
875.365	22002
875.494	22055
875.623	22044
875.751	21956
875.88	22017
876.008	22078
876.136	22238
876.265	22523
876.393	22546
876.521	22512
876.65	22508
876.778	22512
876.906	22261
877.034	22276
877.162	22318
877.29	22284
877.418	22337
877.546	22249
877.674	22344
877.802	22314
877.93	22432
878.058	22211
878.185	22158
878.313	22363
878.441	22352
878.568	22204
878.696	22261
878.824	22299
878.951	22421
879.079	22508
879.206	22573
879.333	22436
879.461	22402
879.588	22481
879.715	22481
879.842	22584
879.97	22417
880.097	22257
880.224	22196
880.351	22188
880.478	22230
880.605	22017
880.732	22276
880.859	22341
880.986	22162
881.112	22215
881.239	22185
881.366	21968
881.493	21869
881.619	21774
881.746	21755
881.872	21800
881.999	21648
882.125	21603
882.252	21705
882.378	21804
882.505	21865
882.631	21637
882.757	21561
882.883	21504
883.01	21454
883.136	21298
883.262	21237
883.388	21279
883.514	21420
883.64	21401
883.766	21466
883.892	21154
884.018	21313
884.143	21443
884.269	21515
884.395	21112
884.52	20963
884.646	21119
884.772	21112
884.897	20929
885.023	21154
885.148	21237
885.274	21230
885.399	21230
885.524	21032
885.65	21245
885.775	21070
885.9	21017
886.025	21180
886.15	21093
886.275	20971
886.4	20986
886.525	21047
886.65	21055
886.775	21123
886.9	21214
887.025	21256
887.149	21070
887.274	20826
887.399	20880
887.523	20792
887.648	20739
887.773	20727
887.897	20979
888.021	20887
888.146	20731
888.27	20838
888.395	20960
888.519	20838
888.643	20948
888.767	20952
888.891	20667
889.015	20587
889.139	20727
889.263	20682
889.387	20731
889.511	20815
889.635	20777
889.759	20587
889.883	20629
890.006	20724
890.13	20872
890.254	20575
890.377	20629
890.501	20511
890.624	20370
890.748	20434
890.871	20339
890.995	20221
891.118	20183
891.241	20393
891.364	20248
891.488	20229
891.611	20301
891.734	20271
891.857	20275
891.98	20305
892.103	20278
892.226	20313
892.349	20126
892.471	20054
892.594	20081
892.717	20142
892.839	20107
892.962	20237
893.085	20275
893.207	20180
893.33	20031
893.452	20058
893.575	20183
893.697	20012
893.819	20210
893.941	20396
894.064	20218
894.186	19993
894.308	20115
894.43	20157
894.552	20294
894.674	20164
894.796	19970
894.918	20050
895.04	19989
895.161	20168
895.283	20149
895.405	20039
895.526	20058
895.648	20103
895.769	20233
895.891	20187
896.012	20396
896.134	20210
896.255	20058
896.376	20069
896.498	20142
896.619	20142
896.74	20176
896.861	20237
896.982	20469
897.103	20552
897.224	20305
897.345	20362
897.466	20377
897.587	20339
897.708	20457
897.828	20408
897.949	20225
898.07	20210
898.19	20218
898.311	20370
898.431	20275
898.552	20343
898.672	20404
898.792	20495
898.913	20389
899.033	20206
899.153	20263
899.273	20111
899.393	20176
899.513	20145
899.633	20157
899.753	20149
899.873	20027
899.993	20081
900.113	19997
900.232	20130
900.352	19970
900.472	19997
900.591	19689
900.711	19974
900.83	19860
900.95	20024
901.069	19921
901.189	19742
901.308	19578
901.427	19407
901.546	19514
901.665	19495
901.784	19381
901.904	19373
902.023	19263
902.141	19129
902.26	18928
902.379	19225
902.498	18981
902.617	18867
902.735	19046
902.854	18867
902.973	18905
903.091	18650
903.21	18776
903.328	18639
903.446	18509
903.565	18475
903.683	18456
903.801	18273
903.919	18445
904.038	18330
904.156	18205
904.274	18220
904.392	18133
904.51	18216
904.627	18277
904.745	18148
904.863	18308
904.981	18076
905.098	17866
905.216	17904
905.334	17916
905.451	17798
905.569	17882
905.686	17870
905.803	17939
905.921	17707
906.038	17859
906.155	17809
906.272	17589
906.389	17661
906.506	17463
906.623	17436
906.74	17482
906.857	17360
906.974	17330
907.091	17452
907.208	17532
907.324	17444
907.441	17330
907.557	17159
907.674	17189
907.79	17064
907.907	17102
908.023	17136
908.139	17254
908.256	17037
908.372	16961
908.488	17014
908.604	16896
908.72	16812
908.836	16793
908.952	16759
909.068	16816
909.184	16877
909.3	16843
909.415	16847
909.531	16820
909.647	16645
909.762	16599
909.878	16569
909.993	16523
910.108	16497
910.224	16535
910.339	16611
910.454	16322
910.57	16352
910.685	16295
910.8	16615
910.915	16405
911.03	16329
911.145	16238
911.259	16154
911.374	16185
911.489	16082
911.604	15991
911.718	15895
911.833	15831
911.947	15732
912.062	15789
912.176	15918
912.291	15884
912.405	15915
912.519	16013
912.633	16078
912.748	15934
912.862	15880
912.976	15739
913.09	15591
913.204	15568
913.318	15622
913.431	15762
913.545	15766
913.659	15865
913.772	15648
913.886	15633
914	15576
914.113	15622
914.226	15530
914.34	15564
914.453	15363
914.566	15633
914.68	15458
914.793	15367
914.906	15237
915.019	15157
915.132	15055
915.245	15100
915.358	15104
915.47	15089
915.583	14994
915.696	15184
915.809	15161
915.921	15252
916.034	14990
916.146	14956
916.259	14925
916.371	15116
916.483	15138
916.595	14998
916.708	14895
916.82	14910
916.932	14918
917.044	14963
917.156	14819
917.268	14811
917.38	14739
917.491	14868
917.603	14735
917.715	14895
917.826	14906
917.938	14689
918.049	14552
918.161	14731
918.272	14891
918.384	14823
918.495	14743
918.606	14613
918.717	14488
918.828	14579
918.939	14495
919.05	14511
919.161	14537
919.272	14347
919.383	14427
919.494	14476
919.604	14739
919.715	14518
919.826	14476
919.936	14355
920.047	14583
920.157	14473
920.267	14636
920.378	14526
920.488	14385
920.598	14602
920.708	14746
920.818	14663
920.928	14575
921.038	14750
921.148	14826
921.258	14389
921.368	14317
921.477	14275
921.587	14275
921.697	14050
921.806	14187
921.916	14050
922.025	13883
922.134	13883
922.244	13841
922.353	13841
922.462	13757
922.571	13693
922.68	13632
922.789	13571
922.898	13578
923.007	13468
923.116	13510
923.224	13445
923.333	13464
923.442	13445
923.55	13373
923.659	13388
923.767	13381
923.876	13316
923.984	13327
924.092	13282
924.201	13335
924.309	13221
924.417	13259
924.525	13126
924.633	13198
924.741	13913
924.849	12966
924.956	13061
925.064	12928
925.172	12840
925.279	12928
925.387	12973
925.494	12924
925.602	12993
925.709	12954
925.816	12814
925.924	12932
926.031	12943
926.138	12802
926.245	12954
926.352	12795
926.459	12966
926.566	12977
926.673	12795
926.779	12662
926.886	12631
926.993	12566
927.099	12475
927.206	12418
927.312	12464
927.419	12589
927.525	12460
927.631	12551
927.737	12277
927.843	12391
927.95	12232
928.056	12327
928.162	12304
928.267	12490
928.373	12939
928.479	12369
928.585	12197
928.69	12346
928.796	12285
928.901	12315
929.007	12041
929.112	12205
929.218	12076
929.323	12022
929.428	12011
929.533	12110
929.638	12064
929.743	11984
929.848	12038
929.953	11969
930.058	11882
930.163	11790
930.267	11707
930.372	11897
930.477	11649
930.581	11893
930.685	11832
930.79	11547
930.894	11615
930.998	11608
931.103	11745
931.207	11402
931.311	11277
931.415	11223
931.519	10949
931.623	10965
