Data from test_V78500241_71.txt Node
Date: Fri Mar 25 15:10:21 CST 2022
User: usil
Spectrometer: V785-0024
Trigger mode: 0
Integration Time (sec): 4.000000E-1
Scans to average: 1
Nonlinearity correction enabled: false
Boxcar width: 0
Storing dark spectrum: false
XAxis mode: Wavelengths
Number of Pixels in Spectrum: 1024
>>>>>Begin Spectral Data<<<<<
801.071	28805
801.214	28706
801.356	28451
801.499	28580
801.641	28447
801.783	28207
801.926	28440
802.068	28169
802.211	28131
802.353	28116
802.496	27899
802.638	27892
802.78	27888
802.923	27880
803.065	27835
803.208	27842
803.35	27842
803.492	27964
803.635	27983
803.777	27835
803.919	28025
804.061	28322
804.204	28070
804.346	27949
804.488	27926
804.63	27884
804.773	27816
804.915	27827
805.057	28177
805.199	27846
805.341	27972
805.483	28078
805.626	28112
805.768	27857
805.91	28017
806.052	28013
806.194	27956
806.336	28162
806.478	28246
806.62	27934
806.762	28044
806.904	28314
807.046	28413
807.188	28401
807.33	28451
807.472	28436
807.614	28382
807.756	28257
807.898	28204
808.04	28204
808.182	28280
808.324	28211
808.465	28158
808.607	28379
808.749	28367
808.891	28630
809.033	28656
809.174	28664
809.316	28516
809.458	28500
809.6	28485
809.741	28527
809.883	28622
810.025	28653
810.166	28668
810.308	28736
810.45	28611
810.591	28656
810.733	28474
810.875	28481
811.016	28280
811.158	28363
811.299	28470
811.441	28573
811.582	28607
811.724	28394
811.865	28341
812.007	28603
812.148	28508
812.29	28611
812.431	28596
812.573	28786
812.714	28839
812.855	28980
812.997	29086
813.138	29155
813.279	29208
813.421	29010
813.562	28862
813.703	28854
813.845	28771
813.986	28356
814.127	28131
814.268	28105
814.41	28173
814.551	28013
814.692	28181
814.833	28169
814.974	28048
815.115	28090
815.256	27960
815.397	27911
815.539	27880
815.68	27804
815.821	27781
815.962	27846
816.103	27816
816.244	27622
816.385	27587
816.526	27583
816.666	27340
816.807	27241
816.948	27252
817.089	27447
817.23	27275
817.371	27135
817.512	27268
817.653	27108
817.793	27226
817.934	27161
818.075	27313
818.216	27085
818.356	27192
818.497	27199
818.638	26830
818.778	26914
818.919	26899
819.06	26902
819.2	26956
819.341	27024
819.481	27093
819.622	27294
819.762	27401
819.903	27351
820.043	27245
820.184	27176
820.324	27237
820.465	27241
820.605	27237
820.746	27207
820.886	27001
821.026	26998
821.167	27211
821.307	27188
821.447	26960
821.588	26963
821.728	26914
821.868	26735
822.008	26625
822.149	26552
822.289	26579
822.429	26240
822.569	26271
822.709	26244
822.849	26069
822.99	25974
823.13	25879
823.27	26020
823.41	25723
823.55	25750
823.69	25921
823.83	25898
823.97	25811
824.11	25666
824.25	25495
824.389	25765
824.529	25632
824.669	25468
824.809	25658
824.949	25552
825.089	25590
825.228	25548
825.368	25377
825.508	25422
825.648	25495
825.787	25320
825.927	25422
826.067	25343
826.206	25293
826.346	25350
826.485	25392
826.625	25293
826.765	25597
826.904	25316
827.044	25168
827.183	25069
827.323	25080
827.462	25004
827.601	24966
827.741	24871
827.88	25080
828.02	24958
828.159	25008
828.298	25080
828.437	25137
828.577	24920
828.716	25190
828.855	24992
828.994	24726
829.134	24639
829.273	24783
829.412	24795
829.551	24540
829.69	24726
829.829	24642
829.968	24764
830.107	24722
830.246	24707
830.385	24646
830.524	24525
830.663	24460
830.802	24437
830.941	24323
831.08	24342
831.219	24327
831.357	24311
831.496	24315
831.635	24258
831.774	24053
831.913	24224
832.051	24030
832.19	23980
832.329	23965
832.467	23775
832.606	23779
832.744	23783
832.883	23897
833.022	23843
833.16	23942
833.299	23889
833.437	23851
833.576	23927
833.714	23965
833.852	24045
833.991	24018
834.129	24007
834.267	23942
834.406	23897
834.544	24034
834.682	23885
834.821	23946
834.959	23923
835.097	23646
835.235	23920
835.373	23779
835.511	23805
835.65	23752
835.788	23726
835.926	23600
836.064	23539
836.202	23520
836.34	23779
836.478	23843
836.615	23615
836.753	23642
836.891	23821
837.029	23703
837.167	23710
837.305	23512
837.443	23589
837.58	23444
837.718	23592
837.856	23551
837.993	23490
838.131	23509
838.269	23326
838.406	23334
838.544	23349
838.681	23258
838.819	23025
838.956	23037
839.094	22831
839.231	23067
839.369	23136
839.506	23334
839.643	23265
839.781	22911
839.918	23041
840.055	22980
840.193	22949
840.33	22820
840.467	22801
840.604	22824
840.742	23006
840.879	22820
841.016	22755
841.153	22721
841.29	22885
841.427	22767
841.564	22820
841.701	22706
841.838	22675
841.975	22805
842.112	22675
842.249	22706
842.385	22565
842.522	22675
842.659	22580
842.796	22440
842.933	22622
843.069	22421
843.206	22371
843.343	22596
843.479	22569
843.616	22371
843.752	22280
843.889	22333
844.025	22379
844.162	22295
844.298	22242
844.435	22169
844.571	22234
844.708	22261
844.844	22367
844.98	22318
845.117	22303
845.253	22196
845.389	22112
845.525	22143
845.661	22029
845.798	21979
845.934	22017
846.07	21884
846.206	22006
846.342	22048
846.478	21987
846.614	21766
846.75	21629
846.886	21663
847.022	21755
847.158	21717
847.294	21682
847.429	21679
847.565	21595
847.701	21922
847.837	21500
847.972	21264
848.108	21428
848.244	21466
848.379	21264
848.515	21260
848.65	21192
848.786	21154
848.921	21275
849.057	21424
849.192	21321
849.328	21188
849.463	21252
849.598	21237
849.734	21085
849.869	21043
850.004	21062
850.14	20960
850.275	21135
850.41	20918
850.545	20902
850.68	20891
850.815	20906
850.95	20918
851.085	21131
851.22	21051
851.355	20880
851.49	20948
851.625	20971
851.76	20956
851.895	20891
852.03	20956
852.165	20933
852.299	20921
852.434	20971
852.569	20861
852.703	20902
852.838	21074
852.973	21154
853.107	21112
853.242	20918
853.376	20769
853.511	20655
853.645	20910
853.78	20845
853.914	20765
854.048	20830
854.183	20632
854.317	20785
854.451	20902
854.585	20872
854.72	20678
854.854	20758
854.988	20705
855.122	20705
855.256	20659
855.39	20693
855.524	20872
855.658	20914
855.792	20785
855.926	20693
856.06	20842
856.194	20792
856.327	20800
856.461	20682
856.595	20705
856.729	20720
856.862	20876
856.996	20773
857.13	20845
857.263	20826
857.397	20785
857.53	20735
857.664	20887
857.797	20720
857.931	20807
858.064	20773
858.197	20804
858.331	20617
858.464	20724
858.597	20552
858.731	20636
858.864	20556
858.997	20670
859.13	20560
859.263	20549
859.396	20731
859.529	20625
859.662	20651
859.795	20598
859.928	20697
860.061	20838
860.194	20796
860.327	20640
860.46	20674
860.592	20735
860.725	20823
860.858	20765
860.99	20659
861.123	20724
861.256	20499
861.388	20674
861.521	21211
861.653	20476
861.786	20484
861.918	20503
862.05	20697
862.183	20655
862.315	20632
862.447	20815
862.58	20644
862.712	20545
862.844	20457
862.976	20461
863.108	20415
863.24	20834
863.372	20336
863.504	20305
863.636	20423
863.768	20480
863.9	20450
864.032	20301
864.164	20313
864.296	20404
864.428	20339
864.559	20305
864.691	20461
864.823	20336
864.954	20263
865.086	20286
865.217	20298
865.349	20218
865.48	20225
865.612	20317
865.743	20396
865.875	20252
866.006	20218
866.137	20347
866.269	20320
866.4	20290
866.531	20240
866.662	20187
866.793	20199
866.924	20191
867.055	20210
867.186	20180
867.317	20077
867.448	20115
867.579	20149
867.71	20119
867.841	20031
867.972	20202
868.103	20096
868.233	20088
868.364	20092
868.495	20248
868.625	20385
868.756	20549
868.886	20343
869.017	20381
869.147	20537
869.278	20473
869.408	20362
869.539	20404
869.669	20617
869.799	20492
869.929	20492
870.06	20484
870.19	20621
870.32	20583
870.45	20819
870.58	20750
870.71	20887
870.84	20826
870.97	20876
871.1	20868
871.23	20880
871.36	21051
871.489	20864
871.619	21055
871.749	20952
871.879	21119
872.008	21043
872.138	20963
872.267	20887
872.397	20796
872.526	20735
872.656	20872
872.785	20743
872.915	21081
873.044	21161
873.173	20979
873.303	21089
873.432	21116
873.561	21180
873.69	21017
873.819	21123
873.948	21138
874.077	21013
874.206	20986
874.335	21013
874.464	21070
874.593	21249
874.722	21127
874.851	21313
874.979	21386
875.108	21370
875.237	21294
875.365	21043
875.494	21203
875.623	21317
875.751	21275
875.88	21272
876.008	21374
876.136	21534
876.265	21599
876.393	21724
876.521	21743
876.65	21831
876.778	21603
876.906	21519
877.034	21610
877.162	21652
877.29	21583
877.418	21622
877.546	21675
877.674	21568
877.802	21622
877.93	21549
878.058	21526
878.185	21694
878.313	21701
878.441	21625
878.568	21428
878.696	21580
878.824	21686
878.951	21675
879.079	21835
879.206	21945
879.333	21804
879.461	21713
879.588	21743
879.715	21873
879.842	21846
879.97	21682
880.097	21431
880.224	21466
880.351	21583
880.478	21424
880.605	21386
880.732	21511
880.859	21705
880.986	21351
881.112	21561
881.239	21287
881.366	21161
881.493	21203
881.619	21157
881.746	21135
881.872	21043
881.999	20952
882.125	20982
882.252	21165
882.378	20944
882.505	21127
882.631	21032
882.757	20720
882.883	20815
883.01	20872
883.136	20777
883.262	20644
883.388	20693
883.514	20785
883.64	20785
883.766	20659
883.892	20549
884.018	20522
884.143	20762
884.269	20796
884.395	20545
884.52	20511
884.646	20511
884.772	20389
884.897	20324
885.023	20370
885.148	20552
885.274	20575
885.399	20495
885.524	20495
885.65	20385
885.775	20480
885.9	20419
886.025	20526
886.15	20499
886.275	20419
886.4	20191
886.525	20343
886.65	20305
886.775	20351
886.9	20423
887.025	20476
887.149	20374
887.274	20172
887.399	20172
887.523	20001
887.648	20020
887.773	20069
887.897	20328
888.021	20240
888.146	20012
888.27	20214
888.395	20267
888.519	20107
888.643	20233
888.767	20187
888.891	19978
889.015	20039
889.139	20065
889.263	19978
889.387	20084
889.511	20115
889.635	20050
889.759	19811
889.883	19963
890.006	19989
890.13	20180
890.254	19955
890.377	19883
890.501	19677
890.624	19632
890.748	19693
890.871	19632
890.995	19483
891.118	19487
891.241	19609
891.364	19537
891.488	19571
891.611	19552
891.734	19605
891.857	19620
891.98	19499
892.103	19635
892.226	19506
892.349	19396
892.471	19255
892.594	19430
892.717	19331
892.839	19377
892.962	19426
893.085	19559
893.207	19369
893.33	19350
893.452	19480
893.575	19506
893.697	19419
893.819	19575
893.941	19605
894.064	19514
894.186	19304
894.308	19301
894.43	19578
894.552	19510
894.674	19415
894.796	19365
894.918	19297
895.04	19392
895.161	19556
895.283	19441
895.405	19384
895.526	19495
895.648	19460
895.769	19468
895.891	19518
896.012	19411
896.134	19430
896.255	19552
896.376	19369
896.498	19453
896.619	19635
896.74	19544
896.861	19537
896.982	19791
897.103	20016
897.224	19822
897.345	19776
897.466	19674
897.587	19677
897.708	19856
897.828	19791
897.949	19689
898.07	19544
898.19	19696
898.311	19830
898.431	19658
898.552	19746
898.672	19757
898.792	19723
898.913	19674
899.033	19518
899.153	19563
899.273	19438
899.393	19369
899.513	19365
899.633	19506
899.753	19472
899.873	19476
899.993	19293
900.113	19251
900.232	19384
900.352	19396
900.472	19301
900.591	19232
900.711	19091
900.83	19194
900.95	19244
901.069	19381
901.189	19118
901.308	18779
901.427	18837
901.546	18837
901.665	18840
901.784	18779
901.904	18688
902.023	18513
902.141	18311
902.26	18486
902.379	18433
902.498	18304
902.617	18262
902.735	18296
902.854	18292
902.973	18243
903.091	17950
903.21	17999
903.328	17901
903.446	17901
903.565	17832
903.683	17714
903.801	17748
903.919	17771
904.038	17577
904.156	17623
904.274	17657
904.392	17490
904.51	17608
904.627	17532
904.745	17490
904.863	17471
904.981	17299
905.098	17288
905.216	17288
905.334	17345
905.451	17204
905.569	17174
905.686	17197
905.803	17185
905.921	17033
906.038	17037
906.155	17052
906.272	16847
906.389	16919
906.506	16805
906.623	16710
906.74	16755
906.857	16660
906.974	16710
907.091	16763
907.208	16797
907.324	16786
907.441	16584
907.557	16500
907.674	16516
907.79	16352
907.907	16398
908.023	16527
908.139	16402
908.256	16310
908.372	16295
908.488	16306
908.604	16150
908.72	16131
908.836	16105
908.952	16071
909.068	16150
909.184	16204
909.3	16051
909.415	16162
909.531	16116
909.647	15835
909.762	15808
909.878	15876
909.993	15819
910.108	15884
910.224	15739
910.339	15812
910.454	15698
910.57	15629
910.685	15625
910.8	15838
910.915	15789
911.03	15591
911.145	15564
911.259	15382
911.374	15424
911.489	15344
911.604	15348
911.718	15138
911.833	15169
911.947	15058
912.062	14948
912.176	15039
912.291	15062
912.405	15150
912.519	15256
912.633	15317
912.748	15184
912.862	15157
912.976	14914
913.09	14910
913.204	14986
913.318	14967
913.431	15081
913.545	15081
913.659	15081
913.772	14937
913.886	14830
914	14731
914.113	14883
914.226	14826
914.34	14857
914.453	14727
914.566	14765
914.68	14655
914.793	14663
914.906	14484
915.019	14461
915.132	14309
915.245	14370
915.358	14412
915.47	14473
915.583	14457
915.696	14442
915.809	14545
915.921	14594
916.034	14328
916.146	14248
916.259	14301
916.371	14358
916.483	14324
916.595	14256
916.708	14195
916.82	14267
916.932	14252
917.044	14202
917.156	14164
917.268	14115
917.38	14138
917.491	14054
917.603	14092
917.715	14191
917.826	14199
917.938	14069
918.049	13978
918.161	14012
918.272	14115
918.384	14199
918.495	14062
918.606	13871
918.717	13799
918.828	14012
918.939	13852
919.05	13738
919.161	13799
919.272	13734
919.383	13624
919.494	13814
919.604	13997
919.715	13788
919.826	13723
919.936	13788
920.047	13788
920.157	13822
920.267	13989
920.378	13753
920.488	13807
920.598	13951
920.708	14100
920.818	13879
920.928	13951
921.038	14126
921.148	14031
921.258	13769
921.368	13620
921.477	13647
921.587	13559
921.697	13419
921.806	13567
921.916	13449
922.025	13377
922.134	13255
922.244	13103
922.353	13293
922.462	13046
922.571	13015
922.68	12852
922.789	12859
922.898	12878
923.007	12688
923.116	12779
923.224	12681
923.333	12806
923.442	12730
923.55	12612
923.659	12669
923.767	12741
923.876	12665
923.984	12726
924.092	12559
924.201	12631
924.309	12642
924.417	12513
924.525	12521
924.633	12486
924.741	13285
924.849	12388
924.956	12540
925.064	12365
925.172	12213
925.279	12327
925.387	12342
925.494	12277
925.602	12426
925.709	12289
925.816	12163
925.924	12262
926.031	12353
926.138	12201
926.245	12159
926.352	12125
926.459	12209
926.566	12338
926.673	12178
926.779	12076
926.886	12053
926.993	11965
927.099	11927
927.206	11794
927.312	11866
927.419	11942
927.525	11961
927.631	11859
927.737	11726
927.843	11752
927.95	11676
928.056	11653
928.162	11642
928.267	11783
928.373	12292
928.479	11699
928.585	11558
928.69	11592
928.796	11657
928.901	11520
929.007	11471
929.112	11566
929.218	11474
929.323	11474
929.428	11452
929.533	11611
929.638	11360
929.743	11364
929.848	11402
929.953	11429
930.058	11341
930.163	11090
930.267	11185
930.372	11159
930.477	11071
930.581	11284
930.685	11136
930.79	10999
930.894	11056
930.998	11018
931.103	11124
931.207	10805
931.311	10675
931.415	10611
931.519	10398
931.623	10421
