Data from test_V78500241_32.txt Node
Date: Fri Mar 25 15:10:05 CST 2022
User: usil
Spectrometer: V785-0024
Trigger mode: 0
Integration Time (sec): 4.000000E-1
Scans to average: 1
Nonlinearity correction enabled: false
Boxcar width: 0
Storing dark spectrum: false
XAxis mode: Wavelengths
Number of Pixels in Spectrum: 1024
>>>>>Begin Spectral Data<<<<<
801.071	28611
801.214	28569
801.356	28470
801.499	28322
801.641	28253
801.783	28253
801.926	28325
802.068	28093
802.211	28181
802.353	27876
802.496	27835
802.638	27819
802.78	27785
802.923	27694
803.065	27701
803.208	27739
803.35	27800
803.492	27903
803.635	27964
803.777	27789
803.919	27968
804.061	28032
804.204	27991
804.346	27895
804.488	27724
804.63	27884
804.773	27713
804.915	27907
805.057	27838
805.199	27797
805.341	27888
805.483	27960
805.626	27869
805.768	27770
805.91	27899
806.052	27991
806.194	27838
806.336	28116
806.478	27781
806.62	27865
806.762	28120
806.904	28101
807.046	28261
807.188	28196
807.33	28215
807.472	28310
807.614	28097
807.756	28181
807.898	28040
808.04	27865
808.182	27983
808.324	28067
808.465	28097
808.607	28284
808.749	28280
808.891	28432
809.033	28466
809.174	28226
809.316	28367
809.458	28322
809.6	28310
809.741	28371
809.883	28485
810.025	28462
810.166	28691
810.308	28664
810.45	28512
810.591	28382
810.733	28375
810.875	28230
811.016	28257
811.158	28135
811.299	28356
811.441	28341
811.582	28440
811.724	28318
811.865	28352
812.007	28177
812.148	28086
812.29	28333
812.431	28489
812.573	28531
812.714	28618
812.855	28710
812.997	28881
813.138	28911
813.279	28938
813.421	28786
813.562	28504
813.703	28455
813.845	28485
813.986	28169
814.127	27998
814.268	27808
814.41	27953
814.551	27869
814.692	27975
814.833	27717
814.974	27789
815.115	27816
815.256	27698
815.397	27717
815.539	27644
815.68	27682
815.821	27481
815.962	27557
816.103	27473
816.244	27408
816.385	27260
816.526	27260
816.666	27146
816.807	27085
816.948	27116
817.089	27077
817.23	27081
817.371	26960
817.512	26933
817.653	26880
817.793	26933
817.934	27119
818.075	26895
818.216	26990
818.356	26800
818.497	26750
818.638	26625
818.778	26727
818.919	26632
819.06	26804
819.2	26830
819.341	26777
819.481	26773
819.622	27009
819.762	27233
819.903	27154
820.043	27127
820.184	26948
820.324	26826
820.465	27036
820.605	26906
820.746	26883
820.886	26735
821.026	26971
821.167	26937
821.307	27020
821.447	26883
821.588	26678
821.728	26602
821.868	26427
822.008	26206
822.149	26343
822.289	26336
822.429	25951
822.569	25997
822.709	26005
822.849	25757
822.99	25655
823.13	25731
823.27	25624
823.41	25620
823.55	25601
823.69	25556
823.83	25582
823.97	25453
824.11	25327
824.25	25339
824.389	25339
824.529	25400
824.669	25255
824.809	25430
824.949	25225
825.089	25571
825.228	25304
825.368	25156
825.508	25084
825.648	25110
825.787	25091
825.927	25179
826.067	25160
826.206	25076
826.346	25076
826.485	25141
826.625	25179
826.765	25160
826.904	25190
827.044	24905
827.183	24894
827.323	24741
827.462	24825
827.601	24810
827.741	24795
827.88	24829
828.02	24707
828.159	24798
828.298	24802
828.437	24783
828.577	24684
828.716	24722
828.855	24642
828.994	24528
829.134	24509
829.273	24528
829.412	24429
829.551	24399
829.69	24498
829.829	24494
829.968	24399
830.107	24479
830.246	24460
830.385	24243
830.524	24144
830.663	24220
830.802	24026
830.941	23912
831.08	23969
831.219	23901
831.357	23946
831.496	24235
831.635	23851
831.774	23904
831.913	23737
832.051	23790
832.19	23646
832.329	23687
832.467	23657
832.606	23573
832.744	23520
832.883	23501
833.022	23531
833.16	23539
833.299	23707
833.437	23531
833.576	23642
833.714	23665
833.852	23729
833.991	23703
834.129	23573
834.267	23760
834.406	23585
834.544	23615
834.682	23619
834.821	23566
834.959	23718
835.097	23490
835.235	23592
835.373	23672
835.511	23551
835.65	23337
835.788	23410
835.926	23345
836.064	23189
836.202	23288
836.34	23493
836.478	23585
836.615	23471
836.753	23242
836.891	23452
837.029	23459
837.167	23353
837.305	23280
837.443	23322
837.58	23280
837.718	23345
837.856	23307
837.993	23147
838.131	23246
838.269	23102
838.406	23098
838.544	23056
838.681	22831
838.819	22908
838.956	22702
839.094	22767
839.231	22706
839.369	22797
839.506	23056
839.643	22862
839.781	22713
839.918	22504
840.055	22622
840.193	22615
840.33	22554
840.467	22592
840.604	22630
840.742	22774
840.879	22249
841.016	22451
841.153	22527
841.29	22649
841.427	22500
841.564	22577
841.701	22569
841.838	22497
841.975	22356
842.112	22424
842.249	22215
842.385	22192
842.522	22455
842.659	22150
842.796	22158
842.933	22131
843.069	22188
843.206	22265
843.343	22280
843.479	22166
843.616	22280
843.752	22002
843.889	22021
844.025	22207
844.162	21934
844.298	22032
844.435	21998
844.571	21915
844.708	21983
844.844	22010
844.98	22192
845.117	22048
845.253	21960
845.389	21892
845.525	21857
845.661	21819
845.798	21698
845.934	21629
846.07	21739
846.206	21743
846.342	21857
846.478	21591
846.614	21511
846.75	21370
846.886	21382
847.022	21435
847.158	21416
847.294	21386
847.429	21450
847.565	21306
847.701	21682
847.837	21131
847.972	21066
848.108	21135
848.244	21036
848.379	21032
848.515	20921
848.65	20872
848.786	20948
848.921	20910
849.057	21066
849.192	21062
849.328	20975
849.463	21020
849.598	20906
849.734	20864
849.869	20800
850.004	20663
850.14	20720
850.275	20651
850.41	20587
850.545	20629
850.68	20537
850.815	20682
850.95	20609
851.085	20754
851.22	20602
851.355	20636
851.49	20598
851.625	20499
851.76	20727
851.895	20518
852.03	20613
852.165	20594
852.299	20663
852.434	20712
852.569	20708
852.703	20667
852.838	20640
852.973	20716
853.107	20697
853.242	20739
853.376	20545
853.511	20305
853.645	20396
853.78	20640
853.914	20434
854.048	20465
854.183	20343
854.317	20488
854.451	20621
854.585	20469
854.72	20507
854.854	20545
854.988	20400
855.122	20461
855.256	20294
855.39	20480
855.524	20556
855.658	20480
855.792	20404
855.926	20488
856.06	20533
856.194	20518
856.327	20355
856.461	20313
856.595	20400
856.729	20256
856.862	20579
856.996	20514
857.13	20457
857.263	20530
857.397	20564
857.53	20469
857.664	20530
857.797	20556
857.931	20560
858.064	20446
858.197	20617
858.331	20457
858.464	20298
858.597	20320
858.731	20412
858.864	20301
858.997	20377
859.13	20434
859.263	20526
859.396	20560
859.529	20339
859.662	20366
859.795	20229
859.928	20404
860.061	20533
860.194	20492
860.327	20419
860.46	20328
860.592	20415
860.725	20514
860.858	20423
860.99	20324
861.123	20317
861.256	20240
861.388	20305
861.521	20971
861.653	20317
861.786	20275
861.918	20290
862.05	20267
862.183	20400
862.315	20415
862.447	20507
862.58	20309
862.712	20168
862.844	20096
862.976	20138
863.108	20062
863.24	20503
863.372	20031
863.504	19932
863.636	20050
863.768	20081
863.9	20145
864.032	19997
864.164	20077
864.296	20001
864.428	20164
864.559	20142
864.691	20039
864.823	20145
864.954	20107
865.086	19997
865.217	19940
865.349	19826
865.48	19947
865.612	19982
865.743	20039
865.875	19955
866.006	19906
866.137	19959
866.269	19917
866.4	19883
866.531	19852
866.662	19913
866.793	19944
866.924	19875
867.055	19856
867.186	19902
867.317	19799
867.448	19830
867.579	19894
867.71	19723
867.841	19731
867.972	19913
868.103	19890
868.233	19875
868.364	19909
868.495	19871
868.625	19940
868.756	20096
868.886	20054
869.017	20039
869.147	20176
869.278	20168
869.408	20149
869.539	20069
869.669	20298
869.799	20107
869.929	20218
870.06	20149
870.19	20377
870.32	20286
870.45	20427
870.58	20514
870.71	20579
870.84	20590
870.97	20552
871.1	20613
871.23	20697
871.36	20762
871.489	20465
871.619	20560
871.749	20701
871.879	20796
872.008	20811
872.138	20594
872.267	20712
872.397	20507
872.526	20473
872.656	20514
872.785	20480
872.915	20594
873.044	20781
873.173	20670
873.303	20781
873.432	20861
873.561	20765
873.69	20686
873.819	20754
873.948	20880
874.077	20754
874.206	20659
874.335	20777
874.464	20826
874.593	20929
874.722	21013
874.851	21043
874.979	21047
875.108	20979
875.237	21001
875.365	20792
875.494	20921
875.623	20982
875.751	20952
875.88	20990
876.008	21135
876.136	21146
876.265	21428
876.393	21500
876.521	21462
876.65	21408
876.778	21344
876.906	21359
877.034	21241
877.162	21336
877.29	21310
877.418	21348
877.546	21260
877.674	21348
877.802	21412
877.93	21325
878.058	21287
878.185	21192
878.313	21245
878.441	21363
878.568	21150
878.696	21195
878.824	21260
878.951	21374
879.079	21454
879.206	21629
879.333	21412
879.461	21405
879.588	21386
879.715	21374
879.842	21648
879.97	21363
880.097	21203
880.224	21173
880.351	21211
880.478	21100
880.605	21249
880.732	21127
880.859	21424
880.986	21100
881.112	21268
881.239	21013
881.366	20861
881.493	20887
881.619	20705
881.746	20819
881.872	20735
881.999	20735
882.125	20613
882.252	20811
882.378	20758
882.505	20864
882.631	20644
882.757	20571
882.883	20701
883.01	20465
883.136	20476
883.262	20461
883.388	20339
883.514	20514
883.64	20389
883.766	20404
883.892	20328
884.018	20290
884.143	20480
884.269	20571
884.395	20256
884.52	20199
884.646	20206
884.772	19917
884.897	20103
885.023	20176
885.148	20187
885.274	20275
885.399	20157
885.524	20115
885.65	20153
885.775	20100
885.9	20183
886.025	20305
886.15	20153
886.275	20050
886.4	20046
886.525	20050
886.65	19959
886.775	19963
886.9	20214
887.025	20339
887.149	20005
887.274	20073
887.399	19978
887.523	19967
887.648	19830
887.773	19746
887.897	19959
888.021	19955
888.146	19795
888.27	19928
888.395	20062
888.519	19970
888.643	19928
888.767	19997
888.891	19795
889.015	19643
889.139	19822
889.263	19757
889.387	19742
889.511	19795
889.635	19822
889.759	19620
889.883	19723
890.006	19460
890.13	19727
890.254	19601
890.377	19586
890.501	19491
890.624	19354
890.748	19369
890.871	19422
890.995	19156
891.118	19175
891.241	19232
891.364	19232
891.488	19453
891.611	19206
891.734	19221
891.857	19202
891.98	19304
892.103	19327
892.226	19327
892.349	19145
892.471	19038
892.594	19152
892.717	19209
892.839	19145
892.962	19107
893.085	19343
893.207	19107
893.33	19012
893.452	19069
893.575	19225
893.697	19069
893.819	19358
893.941	19373
894.064	19331
894.186	19194
894.308	19168
894.43	19240
894.552	19198
894.674	19331
894.796	19118
894.918	19187
895.04	19168
895.161	19190
895.283	19198
895.405	19190
895.526	19244
895.648	19206
895.769	19091
895.891	19266
896.012	19316
896.134	19232
896.255	19312
896.376	19152
896.498	19213
896.619	19335
896.74	19285
896.861	19263
896.982	19613
897.103	19677
897.224	19544
897.345	19506
897.466	19335
897.587	19426
897.708	19613
897.828	19518
897.949	19362
898.07	19289
898.19	19499
898.311	19525
898.431	19388
898.552	19510
898.672	19419
898.792	19396
898.913	19460
899.033	19190
899.153	19206
899.273	19099
899.393	19103
899.513	19145
899.633	19171
899.753	19129
899.873	19179
899.993	19053
900.113	19091
900.232	19156
900.352	19023
900.472	18981
900.591	18882
900.711	18939
900.83	18973
900.95	19004
901.069	19095
901.189	18837
901.308	18639
901.427	18471
901.546	18559
901.665	18601
901.784	18540
901.904	18437
902.023	18296
902.141	18129
902.26	18049
902.379	18091
902.498	17935
902.617	17935
902.735	18007
902.854	18011
902.973	18007
903.091	17710
903.21	17775
903.328	17790
903.446	17672
903.565	17516
903.683	17524
903.801	17372
903.919	17551
904.038	17444
904.156	17383
904.274	17364
904.392	17379
904.51	17242
904.627	17368
904.745	17311
904.863	17284
904.981	17128
905.098	16953
905.216	17060
905.334	16927
905.451	16987
905.569	16995
905.686	16995
905.803	16923
905.921	16748
906.038	16866
906.155	16729
906.272	16641
906.389	16706
906.506	16432
906.623	16565
906.74	16565
906.857	16329
906.974	16447
907.091	16573
907.208	16668
907.324	16485
907.441	16318
907.557	16234
907.674	16154
907.79	16105
907.907	16196
908.023	16181
908.139	16185
908.256	16074
908.372	16063
908.488	16078
908.604	15972
908.72	15865
908.836	15823
908.952	15861
909.068	15819
909.184	15941
909.3	15922
909.415	15884
909.531	15827
909.647	15564
909.762	15622
909.878	15568
909.993	15557
910.108	15481
910.224	15481
910.339	15561
910.454	15447
910.57	15397
910.685	15310
910.8	15523
910.915	15545
911.03	15382
911.145	15119
911.259	15135
911.374	15211
911.489	15123
911.604	15013
911.718	15051
911.833	14921
911.947	14823
912.062	14693
912.176	14838
912.291	14929
912.405	14834
912.519	15020
912.633	15036
912.748	14948
912.862	14933
912.976	14727
913.09	14583
913.204	14632
913.318	14705
913.431	14887
913.545	14724
913.659	14823
913.772	14655
913.886	14606
914	14545
914.113	14621
914.226	14743
914.34	14663
914.453	14526
914.566	14689
914.68	14549
914.793	14480
914.906	14339
915.019	14263
915.132	14183
915.245	14069
915.358	14313
915.47	14252
915.583	14229
915.696	14271
915.809	14343
915.921	14351
916.034	14176
916.146	14130
916.259	14077
916.371	14183
916.483	14221
916.595	14206
916.708	14043
916.82	14081
916.932	14084
917.044	14100
917.156	13978
917.268	13951
917.38	13940
917.491	13860
917.603	13955
917.715	13982
917.826	14100
917.938	13833
918.049	13753
918.161	13959
918.272	14119
918.384	14058
918.495	13841
918.606	13780
918.717	13723
918.828	13715
918.939	13814
919.05	13643
919.161	13670
919.272	13567
919.383	13495
919.494	13715
919.604	13879
919.715	13670
919.826	13521
919.936	13632
920.047	13765
920.157	13712
920.267	13795
920.378	13590
920.488	13525
920.598	13879
920.708	13936
920.818	13887
920.928	13715
921.038	13845
921.148	13944
921.258	13658
921.368	13529
921.477	13411
921.587	13320
921.697	13187
921.806	13384
921.916	13244
922.025	13027
922.134	13076
922.244	12935
922.353	13050
922.462	12867
922.571	12783
922.68	12646
922.789	12616
922.898	12700
923.007	12639
923.116	12734
923.224	12631
923.333	12616
923.442	12498
923.55	12494
923.659	12410
923.767	12551
923.876	12384
923.984	12486
924.092	12323
924.201	12445
924.309	12475
924.417	12422
924.525	12323
924.633	12380
924.741	13095
924.849	12186
924.956	12346
925.064	12114
925.172	11984
925.279	12045
925.387	12190
925.494	12068
925.602	12254
925.709	12159
925.816	12064
925.924	12125
926.031	12190
926.138	12083
926.245	12213
926.352	12003
926.459	12205
926.566	12133
926.673	12064
926.779	11904
926.886	11866
926.993	11760
927.099	11699
927.206	11729
927.312	11691
927.419	11779
927.525	11623
927.631	11828
927.737	11562
927.843	11611
927.95	11478
928.056	11516
928.162	11604
928.267	11589
928.373	12258
928.479	11646
928.585	11360
928.69	11509
928.796	11608
928.901	11455
929.007	11258
929.112	11372
929.218	11334
929.323	11364
929.428	11330
929.533	11448
929.638	11197
929.743	11292
929.848	11318
929.953	11216
930.058	11132
930.163	10946
930.267	11045
930.372	11143
930.477	11010
930.581	11117
930.685	10968
930.79	10911
930.894	10843
930.998	10877
931.103	11018
931.207	10599
931.311	10569
931.415	10462
931.519	10287
931.623	10261
