Data from test_V78500241_2228.txt Node
Date: Fri Mar 25 15:25:22 CST 2022
User: usil
Spectrometer: V785-0024
Trigger mode: 0
Integration Time (sec): 4.000000E-1
Scans to average: 1
Nonlinearity correction enabled: false
Boxcar width: 0
Storing dark spectrum: false
XAxis mode: Wavelengths
Number of Pixels in Spectrum: 1024
>>>>>Begin Spectral Data<<<<<
801.071	27770
801.214	27618
801.356	27469
801.499	27317
801.641	27203
801.783	27218
801.926	27336
802.068	27036
802.211	27165
802.353	26994
802.496	26864
802.638	26990
802.78	26838
802.923	26785
803.065	26705
803.208	26708
803.35	26849
803.492	26952
803.635	26982
803.777	26765
803.919	27089
804.061	27454
804.204	27135
804.346	26902
804.488	26963
804.63	26975
804.773	26933
804.915	27142
805.057	27100
805.199	26925
805.341	27089
805.483	27169
805.626	27180
805.768	26971
805.91	27218
806.052	27032
806.194	27024
806.336	27222
806.478	27138
806.62	27142
806.762	27138
806.904	27439
807.046	27675
807.188	27557
807.33	27549
807.472	27641
807.614	27583
807.756	27431
807.898	27534
808.04	27370
808.182	27481
808.324	27545
808.465	27553
808.607	27633
808.749	27819
808.891	27873
809.033	27895
809.174	27759
809.316	27728
809.458	27835
809.6	27580
809.741	27766
809.883	27880
810.025	27975
810.166	28059
810.308	28196
810.45	27983
810.591	27899
810.733	27831
810.875	27804
811.016	27561
811.158	27564
811.299	27800
811.441	27930
811.582	27865
811.724	27679
811.865	27743
812.007	27652
812.148	27755
812.29	27819
812.431	27884
812.573	28044
812.714	28219
812.855	28325
812.997	28367
813.138	28535
813.279	28409
813.421	28265
813.562	28284
813.703	27945
813.845	28051
813.986	27648
814.127	27568
814.268	27382
814.41	27500
814.551	27355
814.692	27549
814.833	27530
814.974	27401
815.115	27492
815.256	27488
815.397	27329
815.539	27310
815.68	27298
815.821	27203
815.962	27283
816.103	27112
816.244	27096
816.385	27081
816.526	26960
816.666	26823
816.807	26678
816.948	26937
817.089	26925
817.23	26735
817.371	26670
817.512	26689
817.653	26746
817.793	26511
817.934	26598
818.075	26594
818.216	26746
818.356	26765
818.497	26473
818.638	26602
818.778	26434
818.919	26362
819.06	26476
819.2	26613
819.341	26670
819.481	26697
819.622	26861
819.762	26960
819.903	26956
820.043	26864
820.184	26777
820.324	26762
820.465	26906
820.605	26705
820.746	26807
820.886	26762
821.026	26655
821.167	26777
821.307	26891
821.447	26762
821.588	26712
821.728	26632
821.868	26282
822.008	26332
822.149	26210
822.289	26126
822.429	25978
822.569	25909
822.709	25791
822.849	25772
822.99	25757
823.13	25723
823.27	25658
823.41	25479
823.55	25457
823.69	25518
823.83	25518
823.97	25479
824.11	25244
824.25	25270
824.389	25285
824.529	25419
824.669	25293
824.809	25479
824.949	25312
825.089	25426
825.228	25362
825.368	25114
825.508	25304
825.648	25183
825.787	25190
825.927	25152
826.067	25145
826.206	25209
826.346	25107
826.485	25183
826.625	25297
826.765	25270
826.904	25282
827.044	25061
827.183	25004
827.323	24882
827.462	25000
827.601	24935
827.741	24951
827.88	24951
828.02	24734
828.159	24817
828.298	24928
828.437	24951
828.577	24787
828.716	25042
828.855	24840
828.994	24608
829.134	24703
829.273	24661
829.412	24585
829.551	24544
829.69	24608
829.829	24631
829.968	24669
830.107	24669
830.246	24582
830.385	24574
830.524	24448
830.663	24418
830.802	24304
830.941	24243
831.08	24277
831.219	24388
831.357	24281
831.496	24391
831.635	24102
831.774	24186
831.913	24057
832.051	24034
832.19	23980
832.329	24015
832.467	23923
832.606	23889
832.744	23805
832.883	23775
833.022	23767
833.16	23927
833.299	23866
833.437	23946
833.576	23939
833.714	23920
833.852	24114
833.991	23920
834.129	24053
834.267	24095
834.406	23904
834.544	23950
834.682	23954
834.821	23817
834.959	24041
835.097	23908
835.235	23942
835.373	23809
835.511	23958
835.65	23794
835.788	23859
835.926	23657
836.064	23592
836.202	23611
836.34	23805
836.478	23828
836.615	23764
836.753	23707
836.891	23866
837.029	23866
837.167	23630
837.305	23687
837.443	23687
837.58	23566
837.718	23718
837.856	23733
837.993	23425
838.131	23604
838.269	23547
838.406	23535
838.544	23410
838.681	23315
838.819	23178
838.956	23014
839.094	23124
839.231	23098
839.369	23143
839.506	23356
839.643	23391
839.781	23128
839.918	23075
840.055	23109
840.193	23102
840.33	23010
840.467	23010
840.604	23048
840.742	23315
840.879	22843
841.016	22957
841.153	22812
841.29	23109
841.427	22839
841.564	22968
841.701	22892
841.838	23014
841.975	22923
842.112	22949
842.249	22721
842.385	22672
842.522	22915
842.659	22812
842.796	22733
842.933	22668
843.069	22615
843.206	22725
843.343	22782
843.479	22630
843.616	22835
843.752	22607
843.889	22519
844.025	22672
844.162	22440
844.298	22637
844.435	22485
844.571	22504
844.708	22382
844.844	22641
844.98	22702
845.117	22641
845.253	22413
845.389	22455
845.525	22443
845.661	22348
845.798	22249
845.934	22211
846.07	22249
846.206	22329
846.342	22432
846.478	22295
846.614	22021
846.75	22021
846.886	22029
847.022	22002
847.158	22109
847.294	22017
847.429	22025
847.565	21926
847.701	22295
847.837	21728
847.972	21682
848.108	21838
848.244	21899
848.379	21648
848.515	21580
848.65	21595
848.786	21485
848.921	21652
849.057	21667
849.192	21705
849.328	21629
849.463	21591
849.598	21401
849.734	21435
849.869	21420
850.004	21321
850.14	21359
850.275	21428
850.41	21302
850.545	21291
850.68	21245
850.815	21351
850.95	21332
851.085	21545
851.22	21408
851.355	21393
851.49	21329
851.625	21241
851.76	21374
851.895	21367
852.03	21207
852.165	21321
852.299	21431
852.434	21397
852.569	21374
852.703	21222
852.838	21310
852.973	21542
853.107	21374
853.242	21294
853.376	21195
853.511	20944
853.645	21081
853.78	21321
853.914	21138
854.048	21058
854.183	21157
854.317	21123
854.451	21291
854.585	21241
854.72	21165
854.854	21222
854.988	21039
855.122	21150
855.256	21089
855.39	21074
855.524	21279
855.658	21241
855.792	21058
855.926	21230
856.06	21233
856.194	21291
856.327	21119
856.461	21028
856.595	21161
856.729	21226
856.862	21279
856.996	21252
857.13	21180
857.263	21169
857.397	21268
857.53	21081
857.664	21161
857.797	21165
857.931	21252
858.064	21116
858.197	21195
858.331	21173
858.464	20990
858.597	21039
858.731	21176
858.864	21169
858.997	21104
859.13	21207
859.263	21195
859.396	21222
859.529	21135
859.662	21146
859.795	21161
859.928	21321
860.061	21294
860.194	21393
860.327	21203
860.46	21203
860.592	21184
860.725	21249
860.858	21237
860.99	21199
861.123	21093
861.256	21195
861.388	21218
861.521	21876
861.653	20975
861.786	20967
861.918	21001
862.05	21081
862.183	21127
862.315	21127
862.447	21119
862.58	21028
862.712	20906
862.844	20906
862.976	20963
863.108	20979
863.24	21272
863.372	20735
863.504	20792
863.636	20914
863.768	20895
863.9	20952
864.032	20883
864.164	20807
864.296	20891
864.428	21001
864.559	21047
864.691	20937
864.823	20842
864.954	20826
865.086	20864
865.217	20792
865.349	20594
865.48	20826
865.612	20735
865.743	20876
865.875	20902
866.006	20701
866.137	20811
866.269	20773
866.4	20804
866.531	20640
866.662	20587
866.793	20720
866.924	20705
867.055	20716
867.186	20735
867.317	20621
867.448	20594
867.579	20708
867.71	20594
867.841	20682
867.972	20826
868.103	20743
868.233	20724
868.364	20708
868.495	20689
868.625	21005
868.756	20960
868.886	20857
869.017	20941
869.147	21058
869.278	20967
869.408	20929
869.539	20975
869.669	20986
869.799	21009
869.929	21100
870.06	21142
870.19	21275
870.32	21203
870.45	21386
870.58	21275
870.71	21386
870.84	21393
870.97	21230
871.1	21355
871.23	21496
871.36	21492
871.489	21367
871.619	21519
871.749	21553
871.879	21663
872.008	21583
872.138	21458
872.267	21485
872.397	21401
872.526	21268
872.656	21355
872.785	21294
872.915	21553
873.044	21587
873.173	21488
873.303	21663
873.432	21450
873.561	21603
873.69	21549
873.819	21644
873.948	21580
874.077	21599
874.206	21450
874.335	21709
874.464	21595
874.593	21728
874.722	21660
874.851	21857
874.979	21857
875.108	21804
875.237	21728
875.365	21633
875.494	21709
875.623	21915
875.751	21774
875.88	21743
876.008	21930
876.136	21823
876.265	22166
876.393	22314
876.521	22253
876.65	22211
876.778	22204
876.906	22196
877.034	22299
877.162	22253
877.29	22082
877.418	22173
877.546	22128
877.674	22063
877.802	22181
877.93	22272
878.058	22177
878.185	22036
878.313	22090
878.441	22086
878.568	21975
878.696	22048
878.824	22299
878.951	22124
879.079	22268
879.206	22443
879.333	22238
879.461	22154
879.588	22181
879.715	22344
879.842	22223
879.97	22230
880.097	22032
880.224	21911
880.351	21930
880.478	21979
880.605	21854
880.732	21915
880.859	22181
880.986	21922
881.112	21949
881.239	21873
881.366	21713
881.493	21542
881.619	21614
881.746	21622
881.872	21534
881.999	21485
882.125	21549
882.252	21656
882.378	21485
882.505	21622
882.631	21393
882.757	21325
882.883	21298
883.01	21207
883.136	21298
883.262	21039
883.388	20971
883.514	21157
883.64	21260
883.766	21188
883.892	20998
884.018	21009
884.143	21154
884.269	21226
884.395	20990
884.52	20823
884.646	20952
884.772	20910
884.897	20838
885.023	20842
885.148	21020
885.274	21039
885.399	20960
885.524	20887
885.65	20914
885.775	20941
885.9	20979
886.025	21055
886.15	20861
886.275	20811
886.4	20735
886.525	20800
886.65	20705
886.775	20895
886.9	21074
887.025	21142
887.149	20838
887.274	20739
887.399	20724
887.523	20697
887.648	20632
887.773	20484
887.897	20648
888.021	20773
888.146	20526
888.27	20663
888.395	20823
888.519	20777
888.643	20629
888.767	20659
888.891	20499
889.015	20476
889.139	20469
889.263	20484
889.387	20568
889.511	20640
889.635	20514
889.759	20503
889.883	20396
890.006	20465
890.13	20579
890.254	20294
890.377	20400
890.501	20191
890.624	20081
890.748	20278
890.871	20218
890.995	19997
891.118	20001
891.241	19993
891.364	20062
891.488	20206
891.611	20046
891.734	19951
891.857	20126
891.98	20062
892.103	19902
892.226	20100
892.349	20012
892.471	19818
892.594	19845
892.717	19967
892.839	19909
892.962	19974
893.085	20012
893.207	19871
893.33	19864
893.452	19788
893.575	19951
893.697	20001
893.819	20088
893.941	20046
894.064	20039
894.186	19803
894.308	19769
894.43	20005
894.552	20024
894.674	19940
894.796	19852
894.918	19906
895.04	19906
895.161	19932
895.283	19932
895.405	19928
895.526	19909
895.648	19753
895.769	19875
895.891	19887
896.012	19989
896.134	19932
896.255	19970
896.376	19856
896.498	19947
896.619	19883
896.74	19913
896.861	20081
896.982	20320
897.103	20412
897.224	20256
897.345	20058
897.466	20149
897.587	20187
897.708	20267
897.828	20138
897.949	20088
898.07	20020
898.19	20096
898.311	20259
898.431	20130
898.552	20138
898.672	20237
898.792	20168
898.913	20176
899.033	20062
899.153	19921
899.273	19868
899.393	19967
899.513	19951
899.633	19803
899.753	19906
899.873	19871
899.993	20024
900.113	19841
900.232	19837
900.352	19845
900.472	19826
900.591	19750
900.711	19693
900.83	19689
900.95	19753
901.069	19715
901.189	19563
901.308	19293
901.427	19274
901.546	19335
901.665	19297
901.784	19274
901.904	19206
902.023	19057
902.141	18863
902.26	18764
902.379	18878
902.498	18833
902.617	18749
902.735	18875
902.854	18817
902.973	18646
903.091	18399
903.21	18353
903.328	18429
903.446	18422
903.565	18346
903.683	18270
903.801	18144
903.919	18209
904.038	18201
904.156	18038
904.274	18125
904.392	17988
904.51	18011
904.627	17980
904.745	17999
904.863	18110
904.981	17859
905.098	17775
905.216	17714
905.334	17718
905.451	17745
905.569	17710
905.686	17779
905.803	17722
905.921	17524
906.038	17657
906.155	17512
906.272	17455
906.389	17391
906.506	17307
906.623	17311
906.74	17315
906.857	17166
906.974	17200
907.091	17315
907.208	17345
907.324	17318
907.441	17200
907.557	16892
907.674	16889
907.79	16934
907.907	16934
908.023	17006
908.139	16911
908.256	16911
908.372	16809
908.488	16809
908.604	16683
908.72	16645
908.836	16679
908.952	16622
909.068	16736
909.184	16710
909.3	16664
909.415	16660
909.531	16618
909.647	16466
909.762	16409
909.878	16344
909.993	16356
910.108	16394
910.224	16280
910.339	16436
910.454	16242
910.57	16128
910.685	16120
910.8	16352
910.915	16371
911.03	16207
911.145	16116
911.259	15911
911.374	16025
911.489	16055
911.604	15869
911.718	15682
911.833	15797
911.947	15576
912.062	15523
912.176	15603
912.291	15762
912.405	15816
912.519	15918
912.633	15911
912.748	15755
912.862	15705
912.976	15507
913.09	15424
913.204	15542
913.318	15507
913.431	15519
913.545	15534
913.659	15595
913.772	15526
913.886	15367
914	15279
914.113	15393
914.226	15439
914.34	15485
914.453	15138
914.566	15386
914.68	15218
914.793	15173
914.906	15039
915.019	14952
915.132	14845
915.245	14948
915.358	15013
915.47	14971
915.583	14887
915.696	14975
915.809	15138
915.921	15066
916.034	14838
916.146	14895
916.259	14842
916.371	14880
916.483	14929
916.595	14853
916.708	14849
916.82	14849
916.932	14792
917.044	14785
917.156	14689
917.268	14518
917.38	14686
917.491	14579
917.603	14575
917.715	14686
917.826	14682
917.938	14598
918.049	14370
918.161	14571
918.272	14731
918.384	14632
918.495	14518
918.606	14415
918.717	14244
918.828	14366
918.939	14454
919.05	14233
919.161	14427
919.272	14149
919.383	14176
919.494	14427
919.604	14541
919.715	14427
919.826	14332
919.936	14343
920.047	14393
920.157	14347
920.267	14461
920.378	14221
920.488	14221
920.598	14465
920.708	14701
920.818	14465
920.928	14286
921.038	14632
921.148	14579
921.258	14347
921.368	14244
921.477	14126
921.587	14107
921.697	13913
921.806	14027
921.916	13807
922.025	13784
922.134	13715
922.244	13647
922.353	13811
922.462	13578
922.571	13445
922.68	13392
922.789	13441
922.898	13438
923.007	13324
923.116	13346
923.224	13339
923.333	13350
923.442	13190
923.55	13110
923.659	13168
923.767	13289
923.876	13225
923.984	13244
924.092	13110
924.201	13137
924.309	13171
924.417	13118
924.525	13000
924.633	13095
924.741	13833
924.849	12848
924.956	12954
925.064	12837
925.172	12726
925.279	12882
925.387	12871
925.494	12783
925.602	12913
925.709	12848
925.816	12726
925.924	12757
926.031	12829
926.138	12779
926.245	12757
926.352	12681
926.459	12749
926.566	12890
926.673	12700
926.779	12639
926.886	12612
926.993	12502
927.099	12456
927.206	12289
927.312	12330
927.419	12380
927.525	12342
927.631	12311
927.737	12194
927.843	12213
927.95	12117
928.056	12197
928.162	12152
928.267	12232
928.373	12833
928.479	12285
928.585	11988
928.69	12106
928.796	12171
928.901	11992
929.007	11863
929.112	12060
929.218	11935
929.323	11954
929.428	11969
929.533	12022
929.638	11901
929.743	11805
929.848	11878
929.953	11878
930.058	11805
930.163	11596
930.267	11627
930.372	11813
930.477	11611
930.581	11828
930.685	11634
930.79	11459
930.894	11501
930.998	11459
931.103	11638
931.207	11258
931.311	11239
931.415	11105
931.519	10995
931.623	10839
