Data from test_V78500241_855.txt Node
Date: Fri Mar 25 15:15:48 CST 2022
User: usil
Spectrometer: V785-0024
Trigger mode: 0
Integration Time (sec): 4.000000E-1
Scans to average: 1
Nonlinearity correction enabled: false
Boxcar width: 0
Storing dark spectrum: false
XAxis mode: Wavelengths
Number of Pixels in Spectrum: 1024
>>>>>Begin Spectral Data<<<<<
801.071	28310
801.214	28211
801.356	27979
801.499	28010
801.641	27846
801.783	27880
801.926	27819
802.068	27865
802.211	27720
802.353	27610
802.496	27469
802.638	27382
802.78	27496
802.923	27549
803.065	27378
803.208	27427
803.35	27542
803.492	27504
803.635	27698
803.777	27648
803.919	27770
804.061	27972
804.204	27774
804.346	27686
804.488	27545
804.63	27766
804.773	27576
804.915	27759
805.057	27808
805.199	27686
805.341	27800
805.483	27850
805.626	27888
805.768	27724
805.91	27819
806.052	27850
806.194	27861
806.336	28051
806.478	27838
806.62	27888
806.762	27911
806.904	28181
807.046	28405
807.188	28337
807.33	28120
807.472	28093
807.614	28223
807.756	28082
807.898	28147
808.04	28040
808.182	28116
808.324	28211
808.465	28128
808.607	28265
808.749	28375
808.891	28565
809.033	28717
809.174	28554
809.316	28512
809.458	28736
809.6	28508
809.741	28710
809.883	28645
810.025	28694
810.166	28729
810.308	28721
810.45	28702
810.591	28717
810.733	28535
810.875	28630
811.016	28360
811.158	28333
811.299	28611
811.441	28535
811.582	28740
811.724	28508
811.865	28481
812.007	28531
812.148	28447
812.29	28561
812.431	28820
812.573	28946
812.714	28999
812.855	29067
812.997	29280
813.138	29136
813.279	29337
813.421	29151
813.562	28927
813.703	28942
813.845	28801
813.986	28577
814.127	28352
814.268	28276
814.41	28314
814.551	28257
814.692	28219
814.833	28226
814.974	28207
815.115	28261
815.256	28059
815.397	28120
815.539	28006
815.68	28158
815.821	27876
815.962	28101
816.103	28067
816.244	27899
816.385	27789
816.526	27857
816.666	27717
816.807	27530
816.948	27736
817.089	27618
817.23	27481
817.371	27523
817.512	27603
817.653	27526
817.793	27530
817.934	27504
818.075	27469
818.216	27587
818.356	27408
818.497	27427
818.638	27279
818.778	27332
818.919	27188
819.06	27294
819.2	27511
819.341	27690
819.481	27511
819.622	27686
819.762	27793
819.903	27709
820.043	27538
820.184	27629
820.324	27576
820.465	27583
820.605	27648
820.746	27660
820.886	27614
821.026	27523
821.167	27724
821.307	27656
821.447	27515
821.588	27443
821.728	27431
821.868	27116
822.008	27070
822.149	27013
822.289	26864
822.429	26701
822.569	26579
822.709	26712
822.849	26587
822.99	26415
823.13	26499
823.27	26495
823.41	26415
823.55	26256
823.69	26355
823.83	26263
823.97	26286
824.11	26111
824.25	26172
824.389	26168
824.529	26389
824.669	26259
824.809	26278
824.949	26271
825.089	26199
825.228	26172
825.368	26107
825.508	25955
825.648	26103
825.787	26161
825.927	26191
826.067	26103
826.206	25959
826.346	26240
826.485	26115
826.625	26073
826.765	26065
826.904	25978
827.044	25689
827.183	25856
827.323	25765
827.462	25746
827.601	25784
827.741	25788
827.88	25784
828.02	25586
828.159	25643
828.298	25799
828.437	25746
828.577	25670
828.716	25837
828.855	25635
828.994	25430
829.134	25533
829.273	25529
829.412	25529
829.551	25278
829.69	25514
829.829	25479
829.968	25712
830.107	25483
830.246	25537
830.385	25483
830.524	25415
830.663	25339
830.802	25168
830.941	25088
831.08	25110
831.219	25076
831.357	25213
831.496	25293
831.635	25012
831.774	25031
831.913	24863
832.051	24856
832.19	24825
832.329	24833
832.467	24707
832.606	24707
832.744	24779
832.883	24764
833.022	24734
833.16	24734
833.299	24871
833.437	24715
833.576	24776
833.714	24848
833.852	24779
833.991	24802
834.129	24932
834.267	24928
834.406	24875
834.544	24935
834.682	24787
834.821	24833
834.959	24897
835.097	24639
835.235	24798
835.373	24844
835.511	24654
835.65	24627
835.788	24837
835.926	24437
836.064	24475
836.202	24471
836.34	24623
836.478	24783
836.615	24483
836.753	24635
836.891	24700
837.029	24795
837.167	24582
837.305	24521
837.443	24547
837.58	24509
837.718	24616
837.856	24437
837.993	24342
838.131	24467
838.269	24342
838.406	24304
838.544	24296
838.681	24201
838.819	23927
838.956	23908
839.094	23984
839.231	24045
839.369	24167
839.506	24220
839.643	24152
839.781	23958
839.918	23950
840.055	23996
840.193	23916
840.33	23931
840.467	23824
840.604	23878
840.742	24110
840.879	23703
841.016	23832
841.153	23729
841.29	23901
841.427	23745
841.564	23840
841.701	23851
841.838	23901
841.975	23638
842.112	23874
842.249	23634
842.385	23547
842.522	23684
842.659	23604
842.796	23604
842.933	23562
843.069	23581
843.206	23474
843.343	23539
843.479	23581
843.616	23657
843.752	23425
843.889	23330
844.025	23634
844.162	23455
844.298	23471
844.435	23299
844.571	23246
844.708	23543
844.844	23452
844.98	23490
845.117	23452
845.253	23216
845.389	23204
845.525	23140
845.661	23364
845.798	23174
845.934	23056
846.07	23162
846.206	23128
846.342	23166
846.478	23064
846.614	22976
846.75	22771
846.886	22778
847.022	22858
847.158	22839
847.294	22820
847.429	22904
847.565	22843
847.701	23071
847.837	22478
847.972	22512
848.108	22710
848.244	22535
848.379	22531
848.515	22478
848.65	22314
848.786	22432
848.921	22409
849.057	22561
849.192	22440
849.328	22451
849.463	22363
849.598	22341
849.734	22291
849.869	22257
850.004	22097
850.14	22158
850.275	22173
850.41	22116
850.545	22169
850.68	22265
850.815	22295
850.95	22150
851.085	22440
851.22	22318
851.355	22223
851.49	22204
851.625	22135
851.76	22040
851.895	22029
852.03	22177
852.165	22078
852.299	22200
852.434	22238
852.569	22162
852.703	22188
852.838	22295
852.973	22344
853.107	22249
853.242	22131
853.376	21991
853.511	21964
853.645	21941
853.78	22120
853.914	22013
854.048	21945
854.183	21968
854.317	21983
854.451	22181
854.585	22025
854.72	21911
854.854	22006
854.988	22021
855.122	21998
855.256	21911
855.39	22059
855.524	22025
855.658	22017
855.792	22128
855.926	22029
856.06	22067
856.194	22048
856.327	22002
856.461	22063
856.595	21979
856.729	21926
856.862	22116
856.996	22078
857.13	22173
857.263	22143
857.397	22036
857.53	22029
857.664	21998
857.797	22082
857.931	22150
858.064	22025
858.197	22207
858.331	21930
858.464	21968
858.597	21991
858.731	21975
858.864	22017
858.997	22055
859.13	21892
859.263	22025
859.396	22063
859.529	21903
859.662	21956
859.795	21930
859.928	21975
860.061	22234
860.194	22185
860.327	22105
860.46	21972
860.592	22139
860.725	22181
860.858	22124
860.99	22082
861.123	21983
861.256	21918
861.388	22086
861.521	22774
861.653	21915
861.786	21743
861.918	21816
862.05	21880
862.183	21876
862.315	21755
862.447	21937
862.58	21861
862.712	21641
862.844	21625
862.976	21709
863.108	21793
863.24	22090
863.372	21667
863.504	21785
863.636	21679
863.768	21717
863.9	21614
864.032	21606
864.164	21648
864.296	21660
864.428	21743
864.559	21816
864.691	21827
864.823	21660
864.954	21720
865.086	21679
865.217	21652
865.349	21618
865.48	21553
865.612	21637
865.743	21797
865.875	21603
866.006	21644
866.137	21564
866.269	21481
866.4	21580
866.531	21424
866.662	21583
866.793	21454
866.924	21473
867.055	21534
867.186	21572
867.317	21428
867.448	21496
867.579	21424
867.71	21462
867.841	21462
867.972	21488
868.103	21401
868.233	21545
868.364	21572
868.495	21595
868.625	21717
868.756	21816
868.886	21751
869.017	21785
869.147	21918
869.278	21911
869.408	21781
869.539	21751
869.669	21838
869.799	21911
869.929	21865
870.06	21823
870.19	22090
870.32	22006
870.45	22097
870.58	22112
870.71	22287
870.84	22177
870.97	22181
871.1	22207
871.23	22272
871.36	22284
871.489	22306
871.619	22325
871.749	22363
871.879	22352
872.008	22413
872.138	22432
872.267	22398
872.397	22249
872.526	22196
872.656	22303
872.785	22158
872.915	22386
873.044	22447
873.173	22344
873.303	22390
873.432	22409
873.561	22398
873.69	22459
873.819	22413
873.948	22402
874.077	22497
874.206	22306
874.335	22360
874.464	22485
874.593	22542
874.722	22447
874.851	22577
874.979	22557
875.108	22630
875.237	22440
875.365	22573
875.494	22637
875.623	22698
875.751	22523
875.88	22672
876.008	22721
876.136	22694
876.265	22839
876.393	23033
876.521	22972
876.65	23121
876.778	22972
876.906	22816
877.034	22801
877.162	23029
877.29	22904
877.418	23014
877.546	22957
877.674	22847
877.802	22953
877.93	22946
878.058	22911
878.185	22824
878.313	22847
878.441	22999
878.568	22797
878.696	22843
878.824	22919
878.951	23018
879.079	23170
879.206	23277
879.333	23003
879.461	22885
879.588	22991
879.715	22984
879.842	23086
879.97	22965
880.097	22626
880.224	22721
880.351	22812
880.478	22660
880.605	22752
880.732	22744
880.859	22953
880.986	22763
881.112	22767
881.239	22535
881.366	22455
881.493	22382
881.619	22333
881.746	22386
881.872	22287
881.999	22268
882.125	22226
882.252	22367
882.378	22280
882.505	22352
882.631	22166
882.757	22006
882.883	22124
883.01	21991
883.136	22048
883.262	21918
883.388	21736
883.514	22158
883.64	21998
883.766	21972
883.892	21682
884.018	21854
884.143	21994
884.269	22082
884.395	21774
884.52	21606
884.646	21694
884.772	21599
884.897	21488
885.023	21580
885.148	21705
885.274	21743
885.399	21808
885.524	21660
885.65	21694
885.775	21690
885.9	21561
886.025	21705
886.15	21564
886.275	21648
886.4	21724
886.525	21511
886.65	21534
886.775	21431
886.9	21736
887.025	21789
887.149	21515
887.274	21351
887.399	21439
887.523	21351
887.648	21397
887.773	21256
887.897	21519
888.021	21424
888.146	21351
888.27	21351
888.395	21606
888.519	21416
888.643	21397
888.767	21340
888.891	21317
889.015	21317
889.139	21272
889.263	21180
889.387	21313
889.511	21378
889.635	21344
889.759	21252
889.883	21100
890.006	21211
890.13	21268
890.254	21100
890.377	21039
890.501	20971
890.624	20967
890.748	20883
890.871	20857
890.995	20750
891.118	20716
891.241	20781
891.364	20716
891.488	20781
891.611	20674
891.734	20785
891.857	20682
891.98	20823
892.103	20807
892.226	20785
892.349	20712
892.471	20511
892.594	20712
892.717	20625
892.839	20636
892.962	20602
893.085	20686
893.207	20663
893.33	20530
893.452	20579
893.575	20686
893.697	20686
893.819	20724
893.941	20876
894.064	20906
894.186	20552
894.308	20404
894.43	20739
894.552	20849
894.674	20724
894.796	20507
894.918	20598
895.04	20613
895.161	20648
895.283	20693
895.405	20518
895.526	20629
895.648	20667
895.769	20636
895.891	20526
896.012	20781
896.134	20678
896.255	20708
896.376	20594
896.498	20602
896.619	20682
896.74	20575
896.861	20754
896.982	21020
897.103	21047
897.224	20815
897.345	20834
897.466	20689
897.587	20834
897.708	20899
897.828	20773
897.949	20777
898.07	20575
898.19	20773
898.311	20891
898.431	20746
898.552	20777
898.672	20906
898.792	20975
898.913	20762
899.033	20667
899.153	20609
899.273	20507
899.393	20587
899.513	20480
899.633	20594
899.753	20541
899.873	20488
899.993	20617
900.113	20454
900.232	20488
900.352	20434
900.472	20476
900.591	20343
900.711	20259
900.83	20240
900.95	20343
901.069	20324
901.189	20290
901.308	20005
901.427	20031
901.546	19928
901.665	19909
901.784	19993
901.904	19784
902.023	19662
902.141	19407
902.26	19460
902.379	19468
902.498	19403
902.617	19510
902.735	19324
902.854	19225
902.973	19350
903.091	19270
903.21	19148
903.328	19148
903.446	19053
903.565	18909
903.683	18867
903.801	18802
903.919	18939
904.038	18810
904.156	18677
904.274	18696
904.392	18616
904.51	18582
904.627	18707
904.745	18658
904.863	18757
904.981	18448
905.098	18357
905.216	18330
905.334	18418
905.451	18315
905.569	18323
905.686	18323
905.803	18357
905.921	18064
906.038	18133
906.155	18095
906.272	18053
906.389	17996
906.506	17927
906.623	17920
906.74	17847
906.857	17866
906.974	17824
907.091	17996
907.208	17961
907.324	17969
907.441	17733
907.557	17570
907.674	17710
907.79	17562
907.907	17646
908.023	17623
908.139	17642
908.256	17425
908.372	17493
908.488	17414
908.604	17315
908.72	17334
908.836	17368
908.952	17337
909.068	17353
909.184	17395
909.3	17372
909.415	17387
909.531	17216
909.647	17128
909.762	17006
909.878	16968
909.993	16980
910.108	16972
910.224	16946
910.339	16968
910.454	16839
910.57	16854
910.685	16729
910.8	17025
910.915	17048
911.03	16896
911.145	16649
911.259	16702
911.374	16618
911.489	16478
911.604	16527
911.718	16379
911.833	16390
911.947	16299
912.062	16200
912.176	16284
912.291	16333
912.405	16337
912.519	16569
912.633	16508
912.748	16352
912.862	16447
912.976	16097
913.09	16082
913.204	15994
913.318	16200
913.431	16211
913.545	16230
913.659	16238
913.772	16124
913.886	15994
914	15823
914.113	16063
914.226	16071
914.34	16036
914.453	15823
914.566	16025
914.68	15857
914.793	15827
914.906	15705
915.019	15599
915.132	15485
915.245	15511
915.358	15614
915.47	15416
915.583	15473
915.696	15564
915.809	15656
915.921	15644
916.034	15462
916.146	15473
916.259	15431
916.371	15454
916.483	15439
916.595	15401
916.708	15393
916.82	15340
916.932	15348
917.044	15291
917.156	15336
917.268	15051
917.38	15214
917.491	15203
917.603	15245
917.715	15218
917.826	15207
917.938	15161
918.049	15024
918.161	15108
918.272	15302
918.384	15252
918.495	15055
918.606	14982
918.717	14880
918.828	15055
918.939	15013
919.05	14826
919.161	14906
919.272	14625
919.383	14845
919.494	14979
919.604	15157
919.715	14956
919.826	14857
919.936	14861
920.047	14914
920.157	14826
920.267	15077
920.378	14899
920.488	14838
920.598	15039
920.708	15116
920.818	15005
920.928	15051
921.038	15157
921.148	15097
921.258	14769
921.368	14746
921.477	14636
921.587	14720
921.697	14476
921.806	14590
921.916	14438
922.025	14313
922.134	14271
922.244	14218
922.353	14328
922.462	14084
922.571	13974
922.68	13970
922.789	13868
922.898	13974
923.007	13837
923.116	13974
923.224	13849
923.333	13830
923.442	13700
923.55	13685
923.659	13685
923.767	13788
923.876	13670
923.984	13731
924.092	13636
924.201	13670
924.309	13620
924.417	13655
924.525	13483
924.633	13480
924.741	14332
924.849	13426
924.956	13537
925.064	13259
925.172	13225
925.279	13301
925.387	13282
925.494	13339
925.602	13335
925.709	13369
925.816	13225
925.924	13259
926.031	13232
926.138	13221
926.245	13259
926.352	13149
926.459	13255
926.566	13388
926.673	13141
926.779	13084
926.886	13050
926.993	12924
927.099	12787
927.206	12760
927.312	12764
927.419	12905
927.525	12882
927.631	12844
927.737	12795
927.843	12719
927.95	12555
928.056	12703
928.162	12715
928.267	12745
928.373	13297
928.479	12726
928.585	12551
928.69	12620
928.796	12635
928.901	12521
929.007	12311
929.112	12563
929.218	12467
929.323	12391
929.428	12445
929.533	12467
929.638	12308
929.743	12258
929.848	12338
929.953	12353
930.058	12292
930.163	12022
930.267	12049
930.372	12228
930.477	11965
930.581	12247
930.685	12079
930.79	11946
930.894	11897
930.998	11916
931.103	12106
931.207	11798
931.311	11627
931.415	11444
931.519	11261
931.623	11299
