Data from test_V78500241_2710.txt Node
Date: Fri Mar 25 15:28:43 CST 2022
User: usil
Spectrometer: V785-0024
Trigger mode: 0
Integration Time (sec): 4.000000E-1
Scans to average: 1
Nonlinearity correction enabled: false
Boxcar width: 0
Storing dark spectrum: false
XAxis mode: Wavelengths
Number of Pixels in Spectrum: 1024
>>>>>Begin Spectral Data<<<<<
801.071	27112
801.214	27096
801.356	26891
801.499	26792
801.641	26743
801.783	26674
801.926	26625
802.068	26720
802.211	26560
802.353	26613
802.496	26480
802.638	26355
802.78	26320
802.923	26237
803.065	26229
803.208	26111
803.35	26385
803.492	26400
803.635	26545
803.777	26404
803.919	26408
804.061	26720
804.204	26370
804.346	26366
804.488	26328
804.63	26450
804.773	26298
804.915	26438
805.057	26609
805.199	26396
805.341	26507
805.483	26636
805.626	26632
805.768	26511
805.91	26552
806.052	26621
806.194	26541
806.336	26769
806.478	26575
806.62	26571
806.762	26667
806.904	26944
807.046	27169
807.188	27123
807.33	26982
807.472	26933
807.614	26887
807.756	26994
807.898	26819
808.04	26750
808.182	26636
808.324	26804
808.465	26861
808.607	26937
808.749	27222
808.891	27378
809.033	27355
809.174	27237
809.316	27127
809.458	27119
809.6	27047
809.741	27252
809.883	27275
810.025	27466
810.166	27359
810.308	27397
810.45	27306
810.591	27302
810.733	27104
810.875	27214
811.016	27085
811.158	27154
811.299	27310
811.441	27393
811.582	27279
811.724	27161
811.865	27070
812.007	27157
812.148	27119
812.29	27245
812.431	27306
812.573	27443
812.714	27420
812.855	27587
812.997	27663
813.138	27835
813.279	27770
813.421	27447
813.562	27591
813.703	27447
813.845	27420
813.986	26967
814.127	26948
814.268	26880
814.41	26800
814.551	26651
814.692	26899
814.833	26587
814.974	26769
815.115	26906
815.256	26686
815.397	26648
815.539	26670
815.68	26629
815.821	26514
815.962	26564
816.103	26590
816.244	26290
816.385	26393
816.526	26412
816.666	26237
816.807	26180
816.948	26153
817.089	26046
817.23	26035
817.371	26103
817.512	26073
817.653	26073
817.793	26046
817.934	26130
818.075	26062
818.216	25970
818.356	25955
818.497	25989
818.638	25814
818.778	25864
818.919	25837
819.06	25944
819.2	25947
819.341	26065
819.481	25940
819.622	26309
819.762	26423
819.903	26221
820.043	26240
820.184	26271
820.324	26275
820.465	26202
820.605	26043
820.746	26115
820.886	26016
821.026	25940
821.167	26172
821.307	26100
821.447	26107
821.588	25940
821.728	25837
821.868	25624
822.008	25487
822.149	25662
822.289	25502
822.429	25285
822.569	25194
822.709	25297
822.849	25156
822.99	25137
823.13	24886
823.27	24996
823.41	24757
823.55	24703
823.69	24787
823.83	24943
823.97	24711
824.11	24585
824.25	24604
824.389	24646
824.529	24821
824.669	24681
824.809	24779
824.949	24795
825.089	24677
825.228	24585
825.368	24467
825.508	24566
825.648	24502
825.787	24570
825.927	24517
826.067	24475
826.206	24399
826.346	24650
826.485	24601
826.625	24532
826.765	24654
826.904	24620
827.044	24232
827.183	24315
827.323	24273
827.462	24391
827.601	24296
827.741	24209
827.88	24232
828.02	24095
828.159	24186
828.298	24235
828.437	24308
828.577	24091
828.716	24308
828.855	24125
828.994	23855
829.134	23996
829.273	23969
829.412	23779
829.551	23958
829.69	23752
829.829	23851
829.968	24174
830.107	24068
830.246	24026
830.385	23897
830.524	23817
830.663	23813
830.802	23737
830.941	23467
831.08	23554
831.219	23691
831.357	23573
831.496	23832
831.635	23551
831.774	23383
831.913	23467
832.051	23349
832.19	23322
832.329	23402
832.467	23299
832.606	23151
832.744	23102
832.883	23170
833.022	23258
833.16	23159
833.299	23356
833.437	23284
833.576	23181
833.714	23094
833.852	23299
833.991	23280
834.129	23395
834.267	23315
834.406	23269
834.544	23387
834.682	23402
834.821	23216
834.959	23531
835.097	23246
835.235	23410
835.373	23292
835.511	23345
835.65	23109
835.788	23128
835.926	23052
836.064	22911
836.202	22999
836.34	23132
836.478	23227
836.615	23098
836.753	23151
836.891	23235
837.029	23216
837.167	23037
837.305	23006
837.443	22999
837.58	22999
837.718	23037
837.856	22908
837.993	22896
838.131	22900
838.269	22805
838.406	22820
838.544	22801
838.681	22649
838.819	22599
838.956	22409
839.094	22363
839.231	22557
839.369	22637
839.506	22793
839.643	22691
839.781	22451
839.918	22375
840.055	22481
840.193	22455
840.33	22394
840.467	22344
840.604	22417
840.742	22615
840.879	22363
841.016	22405
841.153	22226
841.29	22398
841.427	22379
841.564	22394
841.701	22466
841.838	22322
841.975	22261
842.112	22344
842.249	22223
842.385	22234
842.522	22500
842.659	22322
842.796	22112
842.933	22105
843.069	22154
843.206	22029
843.343	22135
843.479	22120
843.616	22169
843.752	21884
843.889	21926
844.025	22051
844.162	21998
844.298	21876
844.435	21972
844.571	21972
844.708	21941
844.844	22147
844.98	22032
845.117	22025
845.253	21835
845.389	21690
845.525	21850
845.661	21808
845.798	21667
845.934	21686
846.07	21686
846.206	21778
846.342	21888
846.478	21595
846.614	21473
846.75	21386
846.886	21469
847.022	21485
847.158	21351
847.294	21408
847.429	21481
847.565	21386
847.701	21606
847.837	21203
847.972	21138
848.108	21275
848.244	21203
848.379	21001
848.515	20971
848.65	20861
848.786	20979
848.921	21009
849.057	21081
849.192	21100
849.328	21043
849.463	21009
849.598	20956
849.734	20880
849.869	20815
850.004	20796
850.14	20724
850.275	20807
850.41	20705
850.545	20621
850.68	20746
850.815	20785
850.95	20750
851.085	20982
851.22	20826
851.355	20758
851.49	20754
851.625	20765
851.76	20773
851.895	20632
852.03	20804
852.165	20834
852.299	20792
852.434	20899
852.569	20655
852.703	20765
852.838	20826
852.973	20864
853.107	20762
853.242	20651
853.376	20648
853.511	20438
853.645	20412
853.78	20686
853.914	20716
854.048	20587
854.183	20541
854.317	20552
854.451	20804
854.585	20636
854.72	20629
854.854	20629
854.988	20613
855.122	20640
855.256	20514
855.39	20587
855.524	20636
855.658	20708
855.792	20560
855.926	20625
856.06	20663
856.194	20579
856.327	20564
856.461	20454
856.595	20552
856.729	20533
856.862	20602
856.996	20522
857.13	20537
857.263	20689
857.397	20762
857.53	20560
857.664	20587
857.797	20617
857.931	20739
858.064	20499
858.197	20754
858.331	20583
858.464	20564
858.597	20366
858.731	20507
858.864	20480
858.997	20579
859.13	20625
859.263	20549
859.396	20727
859.529	20613
859.662	20613
859.795	20587
859.928	20545
860.061	20739
860.194	20880
860.327	20594
860.46	20609
860.592	20670
860.725	20594
860.858	20670
860.99	20590
861.123	20590
861.256	20568
861.388	20606
861.521	21176
861.653	20507
861.786	20400
861.918	20427
862.05	20374
862.183	20461
862.315	20495
862.447	20583
862.58	20457
862.712	20286
862.844	20282
862.976	20351
863.108	20454
863.24	20735
863.372	20267
863.504	20339
863.636	20362
863.768	20465
863.9	20355
864.032	20199
864.164	20218
864.296	20370
864.428	20336
864.559	20381
864.691	20355
864.823	20294
864.954	20370
865.086	20298
865.217	20161
865.349	20107
865.48	20134
865.612	20252
865.743	20240
865.875	20305
866.006	20172
866.137	20180
866.269	20233
866.4	20191
866.531	20100
866.662	20161
866.793	20149
866.924	20191
867.055	20172
867.186	20183
867.317	20088
867.448	20046
867.579	20107
867.71	20267
867.841	20122
867.972	20145
868.103	20107
868.233	20328
868.364	20145
868.495	20259
868.625	20412
868.756	20530
868.886	20320
869.017	20408
869.147	20518
869.278	20560
869.408	20305
869.539	20412
869.669	20442
869.799	20423
869.929	20469
870.06	20492
870.19	20571
870.32	20651
870.45	20739
870.58	20648
870.71	20842
870.84	20864
870.97	20807
871.1	20804
871.23	20857
871.36	21051
871.489	20876
871.619	20956
871.749	21051
871.879	20960
872.008	21112
872.138	21062
872.267	20963
872.397	20815
872.526	20724
872.656	20849
872.785	20876
872.915	21005
873.044	21047
873.173	21024
873.303	21058
873.432	21096
873.561	21161
873.69	20990
873.819	21009
873.948	21154
874.077	21062
874.206	20998
874.335	20979
874.464	21165
874.593	21275
874.722	21245
874.851	21306
874.979	21249
875.108	21325
875.237	21188
875.365	21093
875.494	21233
875.623	21287
875.751	21161
875.88	21256
876.008	21435
876.136	21351
876.265	21595
876.393	21736
876.521	21812
876.65	21766
876.778	21606
876.906	21660
877.034	21538
877.162	21698
877.29	21603
877.418	21591
877.546	21690
877.674	21698
877.802	21538
877.93	21557
878.058	21572
878.185	21458
878.313	21637
878.441	21618
878.568	21363
878.696	21576
878.824	21580
878.951	21743
879.079	21736
879.206	21949
879.333	21717
879.461	21652
879.588	21766
879.715	21819
879.842	21720
879.97	21660
880.097	21435
880.224	21412
880.351	21538
880.478	21367
880.605	21359
880.732	21420
880.859	21614
880.986	21340
881.112	21473
881.239	21386
881.366	21260
881.493	21199
881.619	21043
881.746	20990
881.872	21020
881.999	21001
882.125	20895
882.252	21009
882.378	21039
882.505	21116
882.631	20815
882.757	20800
882.883	20724
883.01	20682
883.136	20750
883.262	20598
883.388	20537
883.514	20727
883.64	20659
883.766	20670
883.892	20495
884.018	20480
884.143	20720
884.269	20743
884.395	20571
884.52	20393
884.646	20499
884.772	20301
884.897	20309
885.023	20431
885.148	20480
885.274	20514
885.399	20469
885.524	20259
885.65	20415
885.775	20374
885.9	20290
886.025	20511
886.15	20446
886.275	20271
886.4	20237
886.525	20358
886.65	20385
886.775	20389
886.9	20499
887.025	20404
887.149	20324
887.274	20126
887.399	20183
887.523	20039
887.648	20096
887.773	20001
887.897	20176
888.021	20202
888.146	20164
888.27	20164
888.395	20134
888.519	20195
888.643	20161
888.767	20275
888.891	20172
889.015	19940
889.139	20092
889.263	19974
889.387	20016
889.511	20054
889.635	20149
889.759	19887
889.883	20005
890.006	19887
890.13	19955
890.254	19959
890.377	19727
890.501	19734
890.624	19712
890.748	19635
890.871	19578
890.995	19521
891.118	19537
891.241	19582
891.364	19601
891.488	19609
891.611	19552
891.734	19563
891.857	19578
891.98	19540
892.103	19529
892.226	19453
892.349	19540
892.471	19441
892.594	19510
892.717	19552
892.839	19373
892.962	19407
893.085	19403
893.207	19556
893.33	19350
893.452	19434
893.575	19518
893.697	19430
893.819	19586
893.941	19662
894.064	19552
894.186	19441
894.308	19430
894.43	19605
894.552	19689
894.674	19639
894.796	19415
894.918	19350
895.04	19426
895.161	19537
895.283	19521
895.405	19392
895.526	19453
895.648	19369
895.769	19434
895.891	19487
896.012	19571
896.134	19354
896.255	19510
896.376	19472
896.498	19525
896.619	19491
896.74	19350
896.861	19537
896.982	19860
897.103	20081
897.224	19643
897.345	19620
897.466	19651
897.587	19662
897.708	19822
897.828	19681
897.949	19613
898.07	19586
898.19	19689
898.311	19674
898.431	19609
898.552	19704
898.672	19761
898.792	19670
898.913	19757
899.033	19609
899.153	19426
899.273	19472
899.393	19400
899.513	19453
899.633	19464
899.753	19400
899.873	19392
899.993	19441
900.113	19415
900.232	19422
900.352	19335
900.472	19179
900.591	19270
900.711	19240
900.83	19232
900.95	19304
901.069	19301
901.189	19069
901.308	18916
901.427	18772
901.546	18871
901.665	18802
901.784	18810
901.904	18715
902.023	18578
902.141	18460
902.26	18399
902.379	18517
902.498	18365
902.617	18247
902.735	18338
902.854	18342
902.973	18281
903.091	18114
903.21	17996
903.328	18003
903.446	17904
903.565	17893
903.683	17794
903.801	17767
903.919	17824
904.038	17722
904.156	17619
904.274	17653
904.392	17638
904.51	17665
904.627	17634
904.745	17764
904.863	17707
904.981	17490
905.098	17337
905.216	17330
905.334	17273
905.451	17387
905.569	17299
905.686	17368
905.803	17223
905.921	17006
906.038	17242
906.155	17105
906.272	17048
906.389	17041
906.506	16847
906.623	16881
906.74	16858
906.857	16809
906.974	16706
907.091	17003
907.208	17048
907.324	16805
907.441	16748
907.557	16577
907.674	16504
907.79	16546
907.907	16660
908.023	16497
908.139	16607
908.256	16447
908.372	16440
908.488	16402
908.604	16341
908.72	16299
908.836	16284
908.952	16192
909.068	16249
909.184	16314
909.3	16238
909.415	16299
909.531	16280
909.647	16029
909.762	15873
909.878	15975
909.993	15991
910.108	15876
910.224	15949
910.339	15918
910.454	15945
910.57	15739
910.685	15793
910.8	15991
910.915	15892
911.03	15812
911.145	15724
911.259	15557
911.374	15675
911.489	15530
911.604	15435
911.718	15363
911.833	15367
911.947	15310
912.062	15283
912.176	15393
912.291	15443
912.405	15443
912.519	15496
912.633	15580
912.748	15408
912.862	15310
912.976	15165
913.09	15138
913.204	15176
913.318	15192
913.431	15275
913.545	15302
913.659	15291
913.772	15188
913.886	14990
914	14918
914.113	15070
914.226	15116
914.34	14963
914.453	14804
914.566	14921
914.68	14948
914.793	14807
914.906	14735
915.019	14640
915.132	14469
915.245	14678
915.358	14606
915.47	14571
915.583	14541
915.696	14583
915.809	14746
915.921	14716
916.034	14602
916.146	14530
916.259	14488
916.371	14617
916.483	14579
916.595	14419
916.708	14492
916.82	14469
916.932	14339
917.044	14461
917.156	14355
917.268	14252
917.38	14385
917.491	14320
917.603	14313
917.715	14294
917.826	14339
917.938	14187
918.049	14119
918.161	14225
918.272	14286
918.384	14377
918.495	14206
918.606	14092
918.717	13955
918.828	14062
918.939	14065
919.05	13955
919.161	13997
919.272	13818
919.383	13928
919.494	14119
919.604	14275
919.715	14073
919.826	13978
919.936	13951
920.047	14092
920.157	14020
920.267	14142
920.378	14123
920.488	14005
920.598	14199
920.708	14267
920.818	14172
920.928	14062
921.038	14332
921.148	14267
921.258	13974
921.368	13864
921.477	13750
921.587	13849
921.697	13632
921.806	13715
921.916	13620
922.025	13514
922.134	13464
922.244	13468
922.353	13483
922.462	13316
922.571	13244
922.68	13080
922.789	13133
922.898	13000
923.007	13000
923.116	13118
923.224	13038
923.333	13057
923.442	12985
923.55	12951
923.659	12962
923.767	12901
923.876	12856
923.984	12932
924.092	12749
924.201	12882
924.309	12798
924.417	12802
924.525	12814
924.633	12662
924.741	13651
924.849	12570
924.956	12681
925.064	12574
925.172	12464
925.279	12426
925.387	12544
925.494	12475
925.602	12623
925.709	12544
925.816	12365
925.924	12517
926.031	12528
926.138	12460
926.245	12555
926.352	12452
926.459	12490
926.566	12483
926.673	12422
926.779	12330
926.886	12247
926.993	12049
927.099	12053
927.206	12049
927.312	12060
927.419	12110
927.525	12159
927.631	12163
927.737	12064
927.843	11931
927.95	11866
928.056	11885
928.162	11942
928.267	11999
928.373	12498
928.479	12038
928.585	11817
928.69	11863
928.796	11904
928.901	11843
929.007	11668
929.112	11665
929.218	11764
929.323	11600
929.428	11619
929.533	11775
929.638	11634
929.743	11642
929.848	11672
929.953	11566
930.058	11516
930.163	11376
930.267	11372
930.372	11463
930.477	11330
930.581	11528
930.685	11311
930.79	11216
930.894	11220
930.998	11269
931.103	11376
931.207	11090
931.311	10908
931.415	10816
931.519	10733
931.623	10626
