Data from test_V78500241_30.txt Node
Date: Fri Mar 25 15:10:04 CST 2022
User: usil
Spectrometer: V785-0024
Trigger mode: 0
Integration Time (sec): 4.000000E-1
Scans to average: 1
Nonlinearity correction enabled: false
Boxcar width: 0
Storing dark spectrum: false
XAxis mode: Wavelengths
Number of Pixels in Spectrum: 1024
>>>>>Begin Spectral Data<<<<<
801.071	28626
801.214	28508
801.356	28329
801.499	28154
801.641	28150
801.783	28010
801.926	28120
802.068	27983
802.211	28116
802.353	27956
802.496	27720
802.638	27698
802.78	27682
802.923	27599
803.065	27629
803.208	27523
803.35	27603
803.492	27762
803.635	27808
803.777	27785
803.919	27892
804.061	28002
804.204	27979
804.346	27720
804.488	27667
804.63	27663
804.773	27686
804.915	27720
805.057	27751
805.199	27610
805.341	27808
805.483	27972
805.626	27819
805.768	27759
805.91	27907
806.052	27682
806.194	27709
806.336	27926
806.478	27876
806.62	27880
806.762	27926
806.904	27998
807.046	28200
807.188	28154
807.33	28196
807.472	28360
807.614	28010
807.756	28188
807.898	27914
808.04	27888
808.182	27800
808.324	28032
808.465	27846
808.607	28078
808.749	28287
808.891	28371
809.033	28341
809.174	28306
809.316	28253
809.458	28306
809.6	28287
809.741	28367
809.883	28329
810.025	28401
810.166	28436
810.308	28573
810.45	28538
810.591	28272
810.733	28048
810.875	28097
811.016	28086
811.158	28036
811.299	28238
811.441	28356
811.582	28356
811.724	28082
811.865	28055
812.007	28169
812.148	28230
812.29	28086
812.431	28329
812.573	28443
812.714	28637
812.855	28607
812.997	28729
813.138	28828
813.279	28835
813.421	28778
813.562	28596
813.703	28390
813.845	28367
813.986	28067
814.127	27797
814.268	27854
814.41	27804
814.551	27808
814.692	27686
814.833	27580
814.974	27846
815.115	27781
815.256	27568
815.397	27629
815.539	27759
815.68	27439
815.821	27336
815.962	27557
816.103	27466
816.244	27397
816.385	27150
816.526	27188
816.666	26967
816.807	26925
816.948	26906
817.089	26883
817.23	26880
817.371	26788
817.512	26796
817.653	26838
817.793	26849
817.934	26868
818.075	26853
818.216	26834
818.356	26686
818.497	26549
818.638	26450
818.778	26594
818.919	26560
819.06	26640
819.2	26507
819.341	26739
819.481	26648
819.622	26876
819.762	26971
819.903	26910
820.043	26876
820.184	26857
820.324	26868
820.465	26986
820.605	26735
820.746	26724
820.886	26625
821.026	26765
821.167	26720
821.307	26762
821.447	26659
821.588	26629
821.728	26476
821.868	26305
822.008	26252
822.149	26240
822.289	26138
822.429	25868
822.569	25902
822.709	25826
822.849	25693
822.99	25601
823.13	25708
823.27	25651
823.41	25365
823.55	25377
823.69	25457
823.83	25506
823.97	25358
824.11	25145
824.25	24973
824.389	25259
824.529	25244
824.669	25206
824.809	25259
824.949	25175
825.089	25225
825.228	25084
825.368	24970
825.508	24992
825.648	25046
825.787	24924
825.927	25069
826.067	25099
826.206	24966
826.346	25015
826.485	24852
826.625	24817
826.765	25091
826.904	24996
827.044	24814
827.183	24635
827.323	24646
827.462	24715
827.601	24665
827.741	24684
827.88	24722
828.02	24555
828.159	24631
828.298	24688
828.437	24833
828.577	24467
828.716	24852
828.855	24658
828.994	24369
829.134	24521
829.273	24426
829.412	24281
829.551	24247
829.69	24304
829.829	24285
829.968	24399
830.107	24414
830.246	24258
830.385	24235
830.524	24220
830.663	24098
830.802	23996
830.941	23798
831.08	23764
831.219	24060
831.357	23939
831.496	24015
831.635	23988
831.774	23798
831.913	23714
832.051	23691
832.19	23531
832.329	23604
832.467	23512
832.606	23482
832.744	23505
832.883	23284
833.022	23421
833.16	23391
833.299	23531
833.437	23391
833.576	23490
833.714	23490
833.852	23463
833.991	23596
834.129	23570
834.267	23638
834.406	23421
834.544	23627
834.682	23531
834.821	23455
834.959	23604
835.097	23334
835.235	23493
835.373	23376
835.511	23478
835.65	23311
835.788	23337
835.926	23155
836.064	23220
836.202	22987
836.34	23425
836.478	23330
836.615	23322
836.753	23383
836.891	23372
837.029	23368
837.167	23349
837.305	23155
837.443	23113
837.58	23109
837.718	23235
837.856	23159
837.993	23094
838.131	23174
838.269	23041
838.406	22999
838.544	23064
838.681	22759
838.819	22793
838.956	22523
839.094	22577
839.231	22664
839.369	22767
839.506	22965
839.643	22778
839.781	22519
839.918	22531
840.055	22474
840.193	22489
840.33	22459
840.467	22424
840.604	22550
840.742	22645
840.879	22219
841.016	22295
841.153	22310
841.29	22512
841.427	22341
841.564	22440
841.701	22382
841.838	22493
841.975	22421
842.112	22272
842.249	22215
842.385	22082
842.522	22272
842.659	22131
842.796	22162
842.933	22120
843.069	22059
843.206	22070
843.343	22025
843.479	22135
843.616	22063
843.752	21888
843.889	21941
844.025	22067
844.162	21884
844.298	21838
844.435	21854
844.571	21766
844.708	21884
844.844	22086
844.98	22040
845.117	21983
845.253	21720
845.389	21648
845.525	21789
845.661	21652
845.798	21663
845.934	21583
846.07	21504
846.206	21633
846.342	21606
846.478	21542
846.614	21336
846.75	21298
846.886	21370
847.022	21370
847.158	21348
847.294	21264
847.429	21313
847.565	21283
847.701	21515
847.837	21032
847.972	20826
848.108	21203
848.244	21013
848.379	21009
848.515	20781
848.65	20864
848.786	20785
848.921	20906
849.057	20842
849.192	20990
849.328	20956
849.463	20944
849.598	20819
849.734	20739
849.869	20659
850.004	20552
850.14	20526
850.275	20476
850.41	20568
850.545	20514
850.68	20511
850.815	20659
850.95	20480
851.085	20735
851.22	20682
851.355	20473
851.49	20533
851.625	20465
851.76	20499
851.895	20442
852.03	20492
852.165	20530
852.299	20686
852.434	20629
852.569	20438
852.703	20499
852.838	20549
852.973	20670
853.107	20636
853.242	20488
853.376	20450
853.511	20294
853.645	20339
853.78	20400
853.914	20461
854.048	20396
854.183	20339
854.317	20358
854.451	20461
854.585	20328
854.72	20328
854.854	20339
854.988	20206
855.122	20431
855.256	20343
855.39	20313
855.524	20423
855.658	20400
855.792	20336
855.926	20347
856.06	20423
856.194	20590
856.327	20256
856.461	20229
856.595	20317
856.729	20225
856.862	20499
856.996	20408
857.13	20351
857.263	20415
857.397	20374
857.53	20473
857.664	20358
857.797	20362
857.931	20446
858.064	20343
858.197	20450
858.331	20286
858.464	20103
858.597	20149
858.731	20240
858.864	20381
858.997	20256
859.13	20290
859.263	20282
859.396	20377
859.529	20218
859.662	20229
859.795	20134
859.928	20275
860.061	20377
860.194	20419
860.327	20263
860.46	20271
860.592	20328
860.725	20324
860.858	20362
860.99	20298
861.123	20107
861.256	20202
861.388	20225
861.521	20769
861.653	20020
861.786	20062
861.918	20259
862.05	20237
862.183	20278
862.315	20248
862.447	20355
862.58	20191
862.712	20035
862.844	19940
862.976	20081
863.108	20035
863.24	20518
863.372	19784
863.504	19951
863.636	19898
863.768	20035
863.9	19986
864.032	19837
864.164	19852
864.296	19841
864.428	20138
864.559	19849
864.691	20046
864.823	19967
864.954	19837
865.086	19833
865.217	19875
865.349	19731
865.48	19814
865.612	19940
865.743	20008
865.875	19951
866.006	19894
866.137	19746
866.269	19772
866.4	19826
866.531	19822
866.662	19845
866.793	19837
866.924	19780
867.055	19887
867.186	19776
867.317	19651
867.448	19662
867.579	19655
867.71	19658
867.841	19727
867.972	19772
868.103	19689
868.233	19826
868.364	19784
868.495	19967
868.625	19898
868.756	20046
868.886	19864
869.017	20001
869.147	20073
869.278	20081
869.408	19955
869.539	19982
869.669	20134
869.799	19997
869.929	20077
870.06	20100
870.19	20275
870.32	20290
870.45	20271
870.58	20347
870.71	20423
870.84	20587
870.97	20393
871.1	20431
871.23	20537
871.36	20598
871.489	20514
871.619	20484
871.749	20587
871.879	20644
872.008	20739
872.138	20659
872.267	20583
872.397	20427
872.526	20355
872.656	20389
872.785	20362
872.915	20499
873.044	20876
873.173	20454
873.303	20670
873.432	20648
873.561	20746
873.69	20636
873.819	20457
873.948	20754
874.077	20568
874.206	20476
874.335	20644
874.464	20701
874.593	20895
874.722	20807
874.851	20815
874.979	20979
875.108	20861
875.237	20880
875.365	20845
875.494	20830
875.623	20895
875.751	20971
875.88	20857
876.008	21032
876.136	21074
876.265	21363
876.393	21485
876.521	21431
876.65	21412
876.778	21287
876.906	21119
877.034	21264
877.162	21214
877.29	21218
877.418	21317
877.546	21272
877.674	21260
877.802	21272
877.93	21211
878.058	21283
878.185	21009
878.313	21199
878.441	21226
878.568	21028
878.696	21135
878.824	21302
878.951	21332
879.079	21405
879.206	21477
879.333	21336
879.461	21272
879.588	21336
879.715	21408
879.842	21488
879.97	21241
880.097	21036
880.224	21062
880.351	21020
880.478	21074
880.605	21009
880.732	21036
880.859	21306
880.986	21058
881.112	20994
881.239	20998
881.366	20750
881.493	20724
881.619	20701
881.746	20773
881.872	20594
881.999	20609
882.125	20594
882.252	20670
882.378	20765
882.505	20811
882.631	20522
882.757	20427
882.883	20499
883.01	20381
883.136	20370
883.262	20355
883.388	20233
883.514	20377
883.64	20469
883.766	20343
883.892	20256
884.018	20259
884.143	20271
884.269	20499
884.395	20157
884.52	20016
884.646	20100
884.772	19986
884.897	19883
885.023	20012
885.148	20210
885.274	20168
885.399	20145
885.524	20100
885.65	20183
885.775	20115
885.9	19928
886.025	20024
886.15	20176
886.275	20016
886.4	19898
886.525	20039
886.65	19944
886.775	19951
886.9	20130
887.025	20237
887.149	20016
887.274	19883
887.399	19761
887.523	19849
887.648	19772
887.773	19765
887.897	19814
888.021	19814
888.146	19689
888.27	19875
888.395	19967
888.519	19727
888.643	19803
888.767	19837
888.891	19784
889.015	19506
889.139	19655
889.263	19472
889.387	19723
889.511	19761
889.635	19643
889.759	19616
889.883	19605
890.006	19666
890.13	19616
890.254	19464
890.377	19453
890.501	19381
890.624	19244
890.748	19411
890.871	19190
890.995	19118
891.118	19209
891.241	19175
891.364	19160
891.488	19320
891.611	19194
891.734	19069
891.857	19206
891.98	19232
892.103	19263
892.226	19217
892.349	19080
892.471	19065
892.594	19061
892.717	19126
892.839	19179
892.962	19114
893.085	19240
893.207	19091
893.33	19031
893.452	19156
893.575	19137
893.697	18932
893.819	19270
893.941	19266
894.064	19312
894.186	19023
894.308	18966
894.43	19156
894.552	19282
894.674	19293
894.796	19012
894.918	19107
895.04	19072
895.161	19175
895.283	19194
895.405	18966
895.526	19110
895.648	19122
895.769	19194
895.891	19164
896.012	19312
896.134	19122
896.255	19217
896.376	19072
896.498	19126
896.619	19194
896.74	19072
896.861	19289
896.982	19559
897.103	19613
897.224	19472
897.345	19373
897.466	19384
897.587	19381
897.708	19521
897.828	19289
897.949	19350
898.07	19244
898.19	19308
898.311	19419
898.431	19320
898.552	19274
898.672	19369
898.792	19377
898.913	19316
899.033	19217
899.153	19091
899.273	18996
899.393	19088
899.513	19236
899.633	19065
899.753	19202
899.873	18989
899.993	19012
900.113	19019
900.232	18958
900.352	18951
900.472	18875
900.591	18875
900.711	18951
900.83	18817
900.95	18966
901.069	18985
901.189	18772
901.308	18582
901.427	18525
901.546	18513
901.665	18429
901.784	18559
901.904	18395
902.023	18243
902.141	18114
902.26	18060
902.379	18174
902.498	18026
902.617	17992
902.735	17920
902.854	17961
902.973	17821
903.091	17741
903.21	17672
903.328	17703
903.446	17509
903.565	17395
903.683	17535
903.801	17341
903.919	17440
904.038	17482
904.156	17322
904.274	17330
904.392	17356
904.51	17235
904.627	17280
904.745	17425
904.863	17269
904.981	17090
905.098	16843
905.216	16896
905.334	16953
905.451	16847
905.569	16866
905.686	16892
905.803	16908
905.921	16725
906.038	16900
906.155	16691
906.272	16561
906.389	16603
906.506	16489
906.623	16443
906.74	16409
906.857	16280
906.974	16379
907.091	16542
907.208	16634
907.324	16352
907.441	16280
907.557	16211
907.674	16131
907.79	16131
907.907	15972
908.023	16177
908.139	16204
908.256	16109
908.372	15987
908.488	16002
908.604	15964
908.72	15827
908.836	15736
908.952	15652
909.068	15808
909.184	15975
909.3	15720
909.415	15797
909.531	15770
909.647	15587
909.762	15542
909.878	15549
909.993	15542
910.108	15473
910.224	15412
910.339	15515
910.454	15401
910.57	15332
910.685	15370
910.8	15591
910.915	15439
911.03	15291
911.145	15108
911.259	15119
911.374	15097
911.489	15085
911.604	15017
911.718	14895
911.833	14826
911.947	14746
912.062	14716
912.176	14880
912.291	14861
912.405	14750
912.519	14941
912.633	14956
912.748	14849
912.862	14902
912.976	14689
913.09	14568
913.204	14594
913.318	14663
913.431	14693
913.545	14697
913.659	14754
913.772	14686
913.886	14434
914	14488
914.113	14579
914.226	14651
914.34	14587
914.453	14461
914.566	14571
914.68	14427
914.793	14374
914.906	14244
915.019	14054
915.132	14149
915.245	14202
915.358	14119
915.47	14161
915.583	14126
915.696	14142
915.809	14298
915.921	14328
916.034	14100
916.146	14081
916.259	13986
916.371	14206
916.483	14088
916.595	13978
916.708	14031
916.82	13993
916.932	13970
917.044	13887
917.156	13814
917.268	13875
917.38	13841
917.491	13871
917.603	13849
917.715	13830
917.826	13845
917.938	13704
918.049	13639
918.161	13795
918.272	13887
918.384	13845
918.495	13681
918.606	13632
918.717	13540
918.828	13556
918.939	13632
919.05	13407
919.161	13548
919.272	13285
919.383	13468
919.494	13586
919.604	13769
919.715	13609
919.826	13457
919.936	13483
920.047	13571
920.157	13586
920.267	13734
920.378	13533
920.488	13567
920.598	13639
920.708	13925
920.818	13693
920.928	13636
921.038	13845
921.148	13753
921.258	13525
921.368	13445
921.477	13350
921.587	13232
921.697	13080
921.806	13301
921.916	13072
922.025	12989
922.134	12939
922.244	12905
922.353	12954
922.462	12741
922.571	12722
922.68	12601
922.789	12593
922.898	12525
923.007	12467
923.116	12551
923.224	12536
923.333	12559
923.442	12384
923.55	12445
923.659	12429
923.767	12445
923.876	12372
923.984	12384
924.092	12311
924.201	12338
924.309	12410
924.417	12399
924.525	12319
924.633	12266
924.741	13050
924.849	12087
924.956	12270
925.064	12114
925.172	11961
925.279	11950
925.387	12110
925.494	12026
925.602	12197
925.709	12064
925.816	12045
925.924	11958
926.031	12053
926.138	12022
926.245	12114
926.352	11977
926.459	12095
926.566	12106
926.673	11878
926.779	11817
926.886	11783
926.993	11726
927.099	11619
927.206	11657
927.312	11623
927.419	11684
927.525	11562
927.631	11676
927.737	11577
927.843	11566
927.95	11356
928.056	11421
928.162	11459
928.267	11528
928.373	12175
928.479	11516
928.585	11307
928.69	11463
928.796	11448
928.901	11410
929.007	11231
929.112	11341
929.218	11246
929.323	11242
929.428	11208
929.533	11433
929.638	11162
929.743	11197
929.848	11223
929.953	11185
930.058	11056
930.163	10816
930.267	10904
930.372	11079
930.477	10866
930.581	11067
930.685	10915
930.79	10850
930.894	10858
930.998	10740
931.103	10980
931.207	10462
931.311	10367
931.415	10447
931.519	10246
931.623	10215
