Data from test_V78500241_2714.txt Node
Date: Fri Mar 25 15:28:45 CST 2022
User: usil
Spectrometer: V785-0024
Trigger mode: 0
Integration Time (sec): 4.000000E-1
Scans to average: 1
Nonlinearity correction enabled: false
Boxcar width: 0
Storing dark spectrum: false
XAxis mode: Wavelengths
Number of Pixels in Spectrum: 1024
>>>>>Begin Spectral Data<<<<<
801.071	27233
801.214	27039
801.356	26952
801.499	26861
801.641	26613
801.783	26549
801.926	26697
802.068	26693
802.211	26746
802.353	26621
802.496	26461
802.638	26393
802.78	26256
802.923	26252
803.065	26176
803.208	26199
803.35	26419
803.492	26336
803.635	26427
803.777	26389
803.919	26457
804.061	26815
804.204	26541
804.346	26396
804.488	26419
804.63	26522
804.773	26457
804.915	26442
805.057	26602
805.199	26434
805.341	26461
805.483	26674
805.626	26785
805.768	26511
805.91	26613
806.052	26579
806.194	26492
806.336	26861
806.478	26724
806.62	26670
806.762	26701
806.904	26899
807.046	27233
807.188	27123
807.33	26986
807.472	27058
807.614	26948
807.756	26906
807.898	26914
808.04	26853
808.182	26746
808.324	26838
808.465	27005
808.607	27062
808.749	27264
808.891	27336
809.033	27264
809.174	27294
809.316	27203
809.458	27032
809.6	27135
809.741	27157
809.883	27275
810.025	27469
810.166	27500
810.308	27564
810.45	27450
810.591	27469
810.733	27279
810.875	27195
811.016	27036
811.158	27066
811.299	27397
811.441	27192
811.582	27382
811.724	27138
811.865	27119
812.007	27093
812.148	27203
812.29	27218
812.431	27268
812.573	27572
812.714	27583
812.855	27633
812.997	27819
813.138	27899
813.279	27743
813.421	27736
813.562	27633
813.703	27477
813.845	27401
813.986	27062
814.127	26914
814.268	26800
814.41	27013
814.551	26716
814.692	26811
814.833	26792
814.974	26754
815.115	26804
815.256	26754
815.397	26792
815.539	26705
815.68	26659
815.821	26526
815.962	26640
816.103	26609
816.244	26541
816.385	26423
816.526	26377
816.666	26218
816.807	26130
816.948	26271
817.089	26145
817.23	26172
817.371	26233
817.512	26065
817.653	26035
817.793	25982
817.934	26122
818.075	26115
818.216	26081
818.356	26092
818.497	26005
818.638	25784
818.778	25864
818.919	25906
819.06	25799
819.2	25928
819.341	25894
819.481	26130
819.622	26225
819.762	26377
819.903	26294
820.043	26286
820.184	26347
820.324	26092
820.465	26161
820.605	26221
820.746	26225
820.886	26088
821.026	26214
821.167	26065
821.307	26214
821.447	26180
821.588	25936
821.728	25822
821.868	25700
822.008	25624
822.149	25666
822.289	25537
822.429	25365
822.569	25217
822.709	25263
822.849	25213
822.99	24901
823.13	25061
823.27	24909
823.41	24920
823.55	24859
823.69	24966
823.83	24882
823.97	24890
824.11	24715
824.25	24642
824.389	24726
824.529	24760
824.669	24563
824.809	24692
824.949	24700
825.089	24772
825.228	24703
825.368	24509
825.508	24566
825.648	24452
825.787	24544
825.927	24582
826.067	24677
826.206	24559
826.346	24681
826.485	24582
826.625	24407
826.765	24741
826.904	24517
827.044	24521
827.183	24346
827.323	24262
827.462	24232
827.601	24376
827.741	24281
827.88	24338
828.02	24247
828.159	24266
828.298	24209
828.437	24346
828.577	24270
828.716	24380
828.855	24201
828.994	24030
829.134	23897
829.273	23999
829.412	23958
829.551	23965
829.69	24064
829.829	23958
829.968	24152
830.107	24106
830.246	23950
830.385	23847
830.524	23931
830.663	23779
830.802	23634
830.941	23638
831.08	23512
831.219	23714
831.357	23665
831.496	23843
831.635	23562
831.774	23463
831.913	23573
832.051	23433
832.19	23330
832.329	23395
832.467	23212
832.606	23185
832.744	23296
832.883	23242
833.022	23140
833.16	23296
833.299	23311
833.437	23277
833.576	23208
833.714	23315
833.852	23452
833.991	23372
834.129	23402
834.267	23345
834.406	23398
834.544	23425
834.682	23334
834.821	23356
834.959	23463
835.097	23239
835.235	23383
835.373	23406
835.511	23356
835.65	23197
835.788	23060
835.926	23102
836.064	23018
836.202	22984
836.34	23239
836.478	23273
836.615	23277
836.753	23044
836.891	23105
837.029	23204
837.167	23052
837.305	23121
837.443	22968
837.58	23071
837.718	23143
837.856	23018
837.993	22987
838.131	23098
838.269	22923
838.406	23044
838.544	22782
838.681	22557
838.819	22630
838.956	22432
839.094	22436
839.231	22538
839.369	22618
839.506	22980
839.643	22755
839.781	22550
839.918	22497
840.055	22432
840.193	22626
840.33	22352
840.467	22489
840.604	22440
840.742	22771
840.879	22314
841.016	22421
841.153	22341
841.29	22561
841.427	22485
841.564	22417
841.701	22333
841.838	22413
841.975	22390
842.112	22318
842.249	22188
842.385	22257
842.522	22588
842.659	22265
842.796	22230
842.933	22223
843.069	22116
843.206	22051
843.343	22333
843.479	22219
843.616	22318
843.752	21975
843.889	22013
844.025	22078
844.162	22013
844.298	21918
844.435	21968
844.571	21888
844.708	22017
844.844	22078
844.98	22154
845.117	21934
845.253	21736
845.389	21838
845.525	21907
845.661	21778
845.798	21671
845.934	21797
846.07	21656
846.206	21804
846.342	21720
846.478	21618
846.614	21534
846.75	21393
846.886	21458
847.022	21428
847.158	21348
847.294	21405
847.429	21374
847.565	21458
847.701	21622
847.837	21310
847.972	21093
848.108	21199
848.244	21176
848.379	21077
848.515	21028
848.65	21058
848.786	21039
848.921	21074
849.057	21131
849.192	21066
849.328	21001
849.463	21123
849.598	21066
849.734	21017
849.869	20941
850.004	20807
850.14	20891
850.275	20838
850.41	20651
850.545	20697
850.68	20785
850.815	20746
850.95	20712
851.085	20864
851.22	20743
851.355	20842
851.49	20777
851.625	20796
851.76	20876
851.895	20876
852.03	20678
852.165	20857
852.299	20838
852.434	20872
852.569	20864
852.703	20743
852.838	20918
852.973	20868
853.107	20796
853.242	20705
853.376	20651
853.511	20575
853.645	20609
853.78	20701
853.914	20606
854.048	20621
854.183	20606
854.317	20689
854.451	20777
854.585	20682
854.72	20609
854.854	20701
854.988	20621
855.122	20606
855.256	20537
855.39	20598
855.524	20750
855.658	20796
855.792	20750
855.926	20686
856.06	20689
856.194	20773
856.327	20590
856.461	20549
856.595	20450
856.729	20545
856.862	20777
856.996	20708
857.13	20678
857.263	20689
857.397	20670
857.53	20663
857.664	20659
857.797	20762
857.931	20693
858.064	20674
858.197	20670
858.331	20526
858.464	20598
858.597	20495
858.731	20545
858.864	20545
858.997	20537
859.13	20522
859.263	20716
859.396	20617
859.529	20511
859.662	20636
859.795	20541
859.928	20670
860.061	20739
860.194	20697
860.327	20644
860.46	20648
860.592	20720
860.725	20735
860.858	20769
860.99	20636
861.123	20492
861.256	20617
861.388	20526
861.521	21058
861.653	20465
861.786	20537
861.918	20404
862.05	20530
862.183	20549
862.315	20629
862.447	20663
862.58	20606
862.712	20374
862.844	20263
862.976	20469
863.108	20320
863.24	20864
863.372	20309
863.504	20343
863.636	20275
863.768	20377
863.9	20336
864.032	20256
864.164	20328
864.296	20328
864.428	20396
864.559	20362
864.691	20374
864.823	20362
864.954	20324
865.086	20362
865.217	20355
865.349	20107
865.48	20237
865.612	20263
865.743	20298
865.875	20298
866.006	20336
866.137	20221
866.269	20301
866.4	20214
866.531	20164
866.662	20149
866.793	20233
866.924	20240
867.055	20328
867.186	20263
867.317	20164
867.448	20103
867.579	20115
867.71	20191
867.841	20149
867.972	20195
868.103	20195
868.233	20309
868.364	20130
868.495	20244
868.625	20423
868.756	20484
868.886	20396
869.017	20511
869.147	20461
869.278	20621
869.408	20404
869.539	20457
869.669	20393
869.799	20488
869.929	20594
870.06	20594
870.19	20739
870.32	20731
870.45	20655
870.58	20819
870.71	20857
870.84	20823
870.97	20895
871.1	20830
871.23	21013
871.36	20971
871.489	20883
871.619	20906
871.749	21013
871.879	21051
872.008	21138
872.138	21062
872.267	21032
872.397	20906
872.526	20743
872.656	20845
872.785	20918
872.915	21146
873.044	21184
873.173	21024
873.303	21081
873.432	21009
873.561	21218
873.69	21074
873.819	21074
873.948	21100
874.077	21032
874.206	20982
874.335	21066
874.464	21127
874.593	21329
874.722	21222
874.851	21279
874.979	21283
875.108	21241
875.237	21283
875.365	21230
875.494	21355
875.623	21408
875.751	21222
875.88	21378
876.008	21496
876.136	21492
876.265	21606
876.393	21876
876.521	21800
876.65	21717
876.778	21728
876.906	21686
877.034	21652
877.162	21690
877.29	21557
877.418	21625
877.546	21671
877.674	21663
877.802	21534
877.93	21660
878.058	21553
878.185	21488
878.313	21561
878.441	21591
878.568	21519
878.696	21698
878.824	21644
878.951	21694
879.079	21823
879.206	21979
879.333	21766
879.461	21663
879.588	21793
879.715	21987
879.842	21884
879.97	21728
880.097	21469
880.224	21447
880.351	21466
880.478	21545
880.605	21450
880.732	21496
880.859	21751
880.986	21469
881.112	21690
881.239	21370
881.366	21211
881.493	21203
881.619	21123
881.746	21211
881.872	21077
881.999	21013
882.125	20971
882.252	21070
882.378	21154
882.505	21138
882.631	20994
882.757	20735
882.883	20842
883.01	20682
883.136	20811
883.262	20621
883.388	20670
883.514	20724
883.64	20800
883.766	20594
883.892	20655
884.018	20530
884.143	20743
884.269	20872
884.395	20461
884.52	20469
884.646	20514
884.772	20366
884.897	20431
885.023	20374
885.148	20625
885.274	20552
885.399	20537
885.524	20393
885.65	20469
885.775	20511
885.9	20343
886.025	20568
886.15	20446
886.275	20370
886.4	20252
886.525	20442
886.65	20282
886.775	20370
886.9	20537
887.025	20511
887.149	20423
887.274	20286
887.399	20202
887.523	20202
887.648	20161
887.773	20107
887.897	20282
888.021	20343
888.146	20134
888.27	20252
888.395	20218
888.519	20187
888.643	20199
888.767	20301
888.891	20024
889.015	19993
889.139	20107
889.263	19921
889.387	20050
889.511	20191
889.635	20084
889.759	19906
889.883	19974
890.006	20077
890.13	20081
890.254	19947
890.377	19932
890.501	19772
890.624	19761
890.748	19898
890.871	19681
890.995	19525
891.118	19499
891.241	19544
891.364	19559
891.488	19769
891.611	19537
891.734	19525
891.857	19521
891.98	19655
892.103	19582
892.226	19537
892.349	19533
892.471	19285
892.594	19369
892.717	19514
892.839	19518
892.962	19487
893.085	19449
893.207	19487
893.33	19438
893.452	19362
893.575	19613
893.697	19487
893.819	19544
893.941	19666
894.064	19601
894.186	19518
894.308	19365
894.43	19605
894.552	19552
894.674	19643
894.796	19403
894.918	19571
895.04	19495
895.161	19548
895.283	19525
895.405	19365
895.526	19381
895.648	19483
895.769	19525
895.891	19643
896.012	19575
896.134	19594
896.255	19575
896.376	19453
896.498	19521
896.619	19556
896.74	19430
896.861	19578
896.982	19856
897.103	19917
897.224	19894
897.345	19624
897.466	19662
897.587	19731
897.708	19951
897.828	19624
897.949	19651
898.07	19567
898.19	19685
898.311	19826
898.431	19586
898.552	19753
898.672	19849
898.792	19849
898.913	19731
899.033	19712
899.153	19499
899.273	19415
899.393	19419
899.513	19548
899.633	19468
899.753	19590
899.873	19430
899.993	19430
900.113	19480
900.232	19457
900.352	19422
900.472	19282
900.591	19217
900.711	19274
900.83	19198
900.95	19426
901.069	19419
901.189	19107
901.308	18890
901.427	18802
901.546	18886
901.665	18875
901.784	18935
901.904	18715
902.023	18650
902.141	18494
902.26	18498
902.379	18517
902.498	18330
902.617	18361
902.735	18513
902.854	18494
902.973	18273
903.091	18159
903.21	18072
903.328	18121
903.446	17935
903.565	17916
903.683	17996
903.801	17718
903.919	17882
904.038	17805
904.156	17756
904.274	17695
904.392	17684
904.51	17600
904.627	17722
904.745	17729
904.863	17722
904.981	17368
905.098	17280
905.216	17429
905.334	17398
905.451	17486
905.569	17349
905.686	17280
905.803	17318
905.921	17090
906.038	17273
906.155	17033
906.272	17037
906.389	17140
906.506	16843
906.623	16866
906.74	16790
906.857	16702
906.974	16717
907.091	16949
907.208	16987
907.324	16873
907.441	16717
907.557	16615
907.674	16710
907.79	16558
907.907	16615
908.023	16660
908.139	16580
908.256	16546
908.372	16489
908.488	16443
908.604	16348
908.72	16238
908.836	16405
908.952	16253
909.068	16413
909.184	16379
909.3	16295
909.415	16363
909.531	16257
909.647	16059
909.762	16055
909.878	16048
909.993	15960
910.108	15994
910.224	16036
910.339	15918
910.454	15930
910.57	15785
910.685	15694
910.8	16090
910.915	15979
911.03	15831
911.145	15633
911.259	15625
911.374	15656
911.489	15504
911.604	15515
911.718	15359
911.833	15420
911.947	15374
912.062	15218
912.176	15348
912.291	15492
912.405	15405
912.519	15682
912.633	15656
912.748	15382
912.862	15408
912.976	15180
913.09	15123
913.204	15142
913.318	15279
913.431	15298
913.545	15211
913.659	15260
913.772	15241
913.886	14994
914	15020
914.113	15051
914.226	15119
914.34	15062
914.453	14887
914.566	15062
914.68	14918
914.793	14811
914.906	14743
915.019	14625
915.132	14545
915.245	14648
915.358	14663
915.47	14625
915.583	14606
915.696	14682
915.809	14804
915.921	14743
916.034	14545
916.146	14537
916.259	14499
916.371	14648
916.483	14617
916.595	14530
916.708	14526
916.82	14438
916.932	14434
917.044	14385
917.156	14347
917.268	14298
917.38	14347
917.491	14290
917.603	14343
917.715	14343
917.826	14385
917.938	14237
918.049	14111
918.161	14290
918.272	14324
918.384	14355
918.495	14069
918.606	14092
918.717	14031
918.828	14115
918.939	14077
919.05	13967
919.161	14024
919.272	13727
919.383	13875
919.494	14107
919.604	14339
919.715	14145
919.826	13970
919.936	14046
920.047	14111
920.157	14081
920.267	14168
920.378	13951
920.488	14035
920.598	14069
920.708	14259
920.818	14149
920.928	14195
921.038	14355
921.148	14282
921.258	14088
921.368	13909
921.477	13849
921.587	13757
921.697	13662
921.806	13852
921.916	13559
922.025	13510
922.134	13575
922.244	13392
922.353	13540
922.462	13320
922.571	13278
922.68	13187
922.789	13156
922.898	13042
923.007	13080
923.116	13145
923.224	13038
923.333	12985
923.442	12973
923.55	12966
923.659	12954
923.767	12962
923.876	12863
923.984	12932
924.092	12840
924.201	12894
924.309	12760
924.417	12901
924.525	12787
924.633	12814
924.741	13632
924.849	12620
924.956	12711
925.064	12574
925.172	12490
925.279	12498
925.387	12498
925.494	12517
925.602	12673
925.709	12559
925.816	12494
925.924	12502
926.031	12604
926.138	12604
926.245	12528
926.352	12403
926.459	12471
926.566	12555
926.673	12376
926.779	12315
926.886	12319
926.993	12197
927.099	12175
927.206	12095
927.312	12079
927.419	12175
927.525	12049
927.631	12182
927.737	12060
927.843	12030
927.95	11817
928.056	12026
928.162	11980
928.267	12041
928.373	12456
928.479	12102
928.585	11741
928.69	11847
928.796	11988
928.901	11843
929.007	11691
929.112	11916
929.218	11707
929.323	11653
929.428	11707
929.533	11775
929.638	11722
929.743	11623
929.848	11501
929.953	11585
930.058	11554
930.163	11303
930.267	11425
930.372	11497
930.477	11277
930.581	11551
930.685	11318
930.79	11265
930.894	11307
930.998	11227
931.103	11379
931.207	11056
931.311	10961
931.415	10847
931.519	10668
931.623	10702
