Data from test_V78500241_1631.txt Node
Date: Fri Mar 25 15:21:12 CST 2022
User: usil
Spectrometer: V785-0024
Trigger mode: 0
Integration Time (sec): 4.000000E-1
Scans to average: 1
Nonlinearity correction enabled: false
Boxcar width: 0
Storing dark spectrum: false
XAxis mode: Wavelengths
Number of Pixels in Spectrum: 1024
>>>>>Begin Spectral Data<<<<<
801.071	27873
801.214	27743
801.356	27500
801.499	27427
801.641	27313
801.783	27397
801.926	27317
802.068	27268
802.211	27275
802.353	27268
802.496	27070
802.638	26990
802.78	26975
802.923	26921
803.065	26842
803.208	26975
803.35	26998
803.492	27142
803.635	27310
803.777	26960
803.919	27222
804.061	27393
804.204	27287
804.346	27207
804.488	27180
804.63	27249
804.773	27013
804.915	27074
805.057	27279
805.199	27032
805.341	27256
805.483	27408
805.626	27306
805.768	27211
805.91	27389
806.052	27252
806.194	27138
806.336	27477
806.478	27416
806.62	27226
806.762	27481
806.904	27507
807.046	27774
807.188	27804
807.33	27816
807.472	27785
807.614	27660
807.756	27686
807.898	27637
808.04	27473
808.182	27545
808.324	27576
808.465	27682
808.607	27911
808.749	27808
808.891	27930
809.033	28078
809.174	27934
809.316	27895
809.458	27964
809.6	27934
809.741	28025
809.883	27972
810.025	28200
810.166	28055
810.308	28185
810.45	28139
810.591	28013
810.733	27979
810.875	27827
811.016	27644
811.158	27705
811.299	27998
811.441	28093
811.582	28010
811.724	27781
811.865	27785
812.007	27991
812.148	27968
812.29	28010
812.431	28207
812.573	28265
812.714	28413
812.855	28382
812.997	28542
813.138	28577
813.279	28626
813.421	28489
813.562	28512
813.703	28268
813.845	28181
813.986	27888
814.127	27766
814.268	27648
814.41	27762
814.551	27496
814.692	27774
814.833	27568
814.974	27591
815.115	27587
815.256	27564
815.397	27523
815.539	27526
815.68	27420
815.821	27431
815.962	27519
816.103	27553
816.244	27298
816.385	27131
816.526	27074
816.666	27051
816.807	26914
816.948	27062
817.089	26902
817.23	26933
817.371	26948
817.512	27032
817.653	26861
817.793	26830
817.934	26906
818.075	26952
818.216	26952
818.356	26849
818.497	26743
818.638	26648
818.778	26739
818.919	26693
819.06	26807
819.2	26823
819.341	26849
819.481	26883
819.622	27093
819.762	27317
819.903	27123
820.043	27093
820.184	27070
820.324	27024
820.465	27123
820.605	27112
820.746	27051
820.886	26887
821.026	27005
821.167	26975
821.307	27135
821.447	27085
821.588	26864
821.728	26651
821.868	26492
822.008	26389
822.149	26453
822.289	26339
822.429	26187
822.569	26096
822.709	26050
822.849	25993
822.99	25799
823.13	25849
823.27	25799
823.41	25719
823.55	25780
823.69	25689
823.83	25818
823.97	25552
824.11	25514
824.25	25559
824.389	25552
824.529	25605
824.669	25620
824.809	25727
824.949	25567
825.089	25723
825.228	25491
825.368	25327
825.508	25388
825.648	25343
825.787	25438
825.927	25422
826.067	25308
826.206	25209
826.346	25365
826.485	25377
826.625	25365
826.765	25449
826.904	25381
827.044	25232
827.183	25129
827.323	25019
827.462	25137
827.601	25137
827.741	25133
827.88	25247
828.02	24992
828.159	25095
828.298	25175
828.437	25107
828.577	25183
828.716	25168
828.855	25080
828.994	24798
829.134	24817
829.273	24840
829.412	24715
829.551	24757
829.69	24821
829.829	24741
829.968	24943
830.107	24856
830.246	24970
830.385	24692
830.524	24707
830.663	24673
830.802	24597
830.941	24464
831.08	24361
831.219	24422
831.357	24544
831.496	24715
831.635	24433
831.774	24315
831.913	24216
832.051	24281
832.19	24186
832.329	24224
832.467	24087
832.606	24152
832.744	24053
832.883	24155
833.022	24220
833.16	24159
833.299	24121
833.437	24087
833.576	24148
833.714	24201
833.852	24171
833.991	24163
834.129	24201
834.267	24095
834.406	24163
834.544	24102
834.682	24144
834.821	24205
834.959	24304
835.097	24064
835.235	24247
835.373	24133
835.511	24102
835.65	23950
835.788	24114
835.926	23927
836.064	23927
836.202	23840
836.34	24102
836.478	24254
836.615	24011
836.753	23939
836.891	24148
837.029	23961
837.167	23901
837.305	23931
837.443	23984
837.58	23893
837.718	23832
837.856	23977
837.993	23665
838.131	23741
838.269	23668
838.406	23566
838.544	23672
838.681	23554
838.819	23452
838.956	23299
839.094	23307
839.231	23322
839.369	23448
839.506	23748
839.643	23478
839.781	23398
839.918	23204
840.055	23239
840.193	23155
840.33	23242
840.467	23322
840.604	23216
840.742	23440
840.879	23056
841.016	23220
841.153	23105
841.29	23204
841.427	23235
841.564	23181
841.701	23162
841.838	23113
841.975	23151
842.112	23037
842.249	23041
842.385	22961
842.522	23178
842.659	23056
842.796	23022
842.933	22927
843.069	22915
843.206	22904
843.343	23022
843.479	23029
843.616	23014
843.752	22687
843.889	22896
844.025	22873
844.162	22782
844.298	22763
844.435	22626
844.571	22763
844.708	22816
844.844	22816
844.98	22858
845.117	22854
845.253	22675
845.389	22664
845.525	22641
845.661	22588
845.798	22519
845.934	22618
846.07	22508
846.206	22493
846.342	22588
846.478	22405
846.614	22265
846.75	22124
846.886	22192
847.022	22265
847.158	22341
847.294	22276
847.429	22246
847.565	22116
847.701	22394
847.837	22010
847.972	22006
848.108	22093
848.244	22051
848.379	21846
848.515	21789
848.65	21857
848.786	21816
848.921	21865
849.057	21873
849.192	21835
849.328	21892
849.463	21812
849.598	21804
849.734	21648
849.869	21606
850.004	21557
850.14	21595
850.275	21637
850.41	21534
850.545	21462
850.68	21705
850.815	21545
850.95	21477
851.085	21652
851.22	21686
851.355	21591
851.49	21618
851.625	21466
851.76	21599
851.895	21507
852.03	21420
852.165	21553
852.299	21599
852.434	21701
852.569	21595
852.703	21595
852.838	21675
852.973	21720
853.107	21713
853.242	21542
853.376	21340
853.511	21230
853.645	21329
853.78	21439
853.914	21431
854.048	21367
854.183	21325
854.317	21416
854.451	21660
854.585	21321
854.72	21431
854.854	21549
854.988	21367
855.122	21336
855.256	21275
855.39	21317
855.524	21515
855.658	21458
855.792	21466
855.926	21382
856.06	21469
856.194	21317
856.327	21389
856.461	21294
856.595	21336
856.729	21294
856.862	21549
856.996	21447
857.13	21386
857.263	21454
857.397	21511
857.53	21439
857.664	21450
857.797	21401
857.931	21515
858.064	21363
858.197	21370
858.331	21389
858.464	21443
858.597	21195
858.731	21401
858.864	21507
858.997	21321
859.13	21477
859.263	21359
859.396	21420
859.529	21374
859.662	21329
859.795	21313
859.928	21431
860.061	21549
860.194	21633
860.327	21363
860.46	21428
860.592	21526
860.725	21534
860.858	21466
860.99	21363
861.123	21420
861.256	21306
861.388	21447
861.521	22036
861.653	21340
861.786	21184
861.918	21203
862.05	21214
862.183	21329
862.315	21264
862.447	21336
862.58	21321
862.712	21119
862.844	20982
862.976	21192
863.108	21192
863.24	21515
863.372	21100
863.504	21070
863.636	21077
863.768	21157
863.9	21150
864.032	21081
864.164	21142
864.296	21188
864.428	21165
864.559	21100
864.691	21173
864.823	21108
864.954	21184
865.086	21093
865.217	20948
865.349	20876
865.48	20857
865.612	20921
865.743	21074
865.875	21009
866.006	21039
866.137	20998
866.269	20891
866.4	20925
866.531	20899
866.662	20811
866.793	20849
866.924	20967
867.055	20960
867.186	20769
867.317	20804
867.448	20838
867.579	20876
867.71	20849
867.841	20906
867.972	20925
868.103	20960
868.233	20941
868.364	20902
868.495	21077
868.625	21188
868.756	21302
868.886	21116
869.017	21195
869.147	21264
869.278	21268
869.408	21135
869.539	21108
869.669	21241
869.799	21165
869.929	21287
870.06	21283
870.19	21492
870.32	21408
870.45	21428
870.58	21496
870.71	21694
870.84	21629
870.97	21462
871.1	21568
871.23	21781
871.36	21789
871.489	21690
871.619	21679
871.749	21789
871.879	21804
872.008	21800
872.138	21755
872.267	21800
872.397	21534
872.526	21564
872.656	21641
872.785	21591
872.915	21831
873.044	21781
873.173	21793
873.303	21854
873.432	21823
873.561	21922
873.69	21766
873.819	21766
873.948	21926
874.077	21793
874.206	21717
874.335	21869
874.464	21854
874.593	21873
874.722	21979
874.851	21987
874.979	22074
875.108	21964
875.237	21998
875.365	21949
875.494	21892
875.623	22124
875.751	21994
875.88	22063
876.008	22063
876.136	22188
876.265	22360
876.393	22535
876.521	22470
876.65	22352
876.778	22299
876.906	22402
877.034	22246
877.162	22306
877.29	22356
877.418	22268
877.546	22417
877.674	22428
877.802	22322
877.93	22367
878.058	22341
878.185	22166
878.313	22299
878.441	22306
878.568	22093
878.696	22219
878.824	22360
878.951	22432
879.079	22542
879.206	22637
879.333	22451
879.461	22333
879.588	22459
879.715	22367
879.842	22504
879.97	22341
880.097	22246
880.224	22120
880.351	22295
880.478	22223
880.605	22116
880.732	22139
880.859	22379
880.986	22230
881.112	22112
881.239	21975
881.366	21956
881.493	21953
881.619	21774
881.746	21762
881.872	21762
881.999	21705
882.125	21667
882.252	21797
882.378	21720
882.505	21797
882.631	21675
882.757	21534
882.883	21515
883.01	21424
883.136	21336
883.262	21188
883.388	21317
883.514	21363
883.64	21504
883.766	21306
883.892	21408
884.018	21169
884.143	21336
884.269	21431
884.395	21138
884.52	21009
884.646	21047
884.772	21009
884.897	20967
885.023	21058
885.148	21112
885.274	21245
885.399	21192
885.524	21112
885.65	21116
885.775	21112
885.9	21089
886.025	21195
886.15	21135
886.275	21093
886.4	20960
886.525	21070
886.65	21028
886.775	20899
886.9	21184
887.025	21348
887.149	21104
887.274	20971
887.399	20762
887.523	20792
887.648	20800
887.773	20720
887.897	20956
888.021	20902
888.146	20899
888.27	20853
888.395	20800
888.519	20785
888.643	20876
888.767	20937
888.891	20777
889.015	20769
889.139	20765
889.263	20594
889.387	20777
889.511	20815
889.635	20720
889.759	20636
889.883	20621
890.006	20594
890.13	20735
890.254	20541
890.377	20533
890.501	20381
890.624	20339
890.748	20492
890.871	20396
890.995	20134
891.118	20103
891.241	20298
891.364	20278
891.488	20237
891.611	20191
891.734	20176
891.857	20298
891.98	20259
892.103	20275
892.226	20240
892.349	20119
892.471	19974
892.594	20077
892.717	20191
892.839	20027
892.962	20134
893.085	20161
893.207	20050
893.33	20081
893.452	19989
893.575	20103
893.697	19963
893.819	20336
893.941	20210
894.064	20176
894.186	20077
894.308	19955
894.43	20134
894.552	20256
894.674	20081
894.796	20077
894.918	20043
895.04	20119
895.161	20271
895.283	20138
895.405	20115
895.526	20164
895.648	20050
895.769	20153
895.891	20092
896.012	20214
896.134	20187
896.255	20077
896.376	20081
896.498	20115
896.619	20138
896.74	20096
896.861	20122
896.982	20522
897.103	20670
897.224	20355
897.345	20381
897.466	20259
897.587	20263
897.708	20598
897.828	20317
897.949	20294
898.07	20142
898.19	20320
898.311	20313
898.431	20294
898.552	20301
898.672	20275
898.792	20370
898.913	20404
899.033	20294
899.153	20054
899.273	20138
899.393	20103
899.513	20153
899.633	20058
899.753	20107
899.873	19959
899.993	20119
900.113	20024
900.232	19982
900.352	20035
900.472	19944
900.591	19822
900.711	19776
900.83	19826
900.95	19940
901.069	19982
901.189	19662
901.308	19525
901.427	19388
901.546	19434
901.665	19411
901.784	19499
901.904	19320
902.023	19190
902.141	18966
902.26	18901
902.379	19103
902.498	19008
902.617	18897
902.735	18943
902.854	18894
902.973	18817
903.091	18597
903.21	18555
903.328	18589
903.446	18517
903.565	18369
903.683	18433
903.801	18304
903.919	18460
904.038	18342
904.156	18095
904.274	18171
904.392	18167
904.51	18243
904.627	18102
904.745	18285
904.863	18125
904.981	18026
905.098	17794
905.216	17836
905.334	17878
905.451	17824
905.569	17901
905.686	17920
905.803	17851
905.921	17676
906.038	17798
906.155	17695
906.272	17528
906.389	17627
906.506	17303
906.623	17421
906.74	17322
906.857	17261
906.974	17296
907.091	17463
907.208	17528
907.324	17444
907.441	17292
907.557	17140
907.674	17102
907.79	16991
907.907	17109
908.023	17162
908.139	17090
908.256	17117
908.372	16957
908.488	16957
908.604	16721
908.72	16812
908.836	16873
908.952	16801
909.068	16793
909.184	16976
909.3	16774
909.415	16850
909.531	16820
909.647	16691
909.762	16554
909.878	16489
909.993	16706
910.108	16440
910.224	16447
910.339	16523
910.454	16440
910.57	16440
910.685	16333
910.8	16402
910.915	16478
911.03	16363
911.145	16162
911.259	16067
911.374	16059
911.489	16109
911.604	16032
911.718	15899
911.833	15842
911.947	15808
912.062	15679
912.176	15892
912.291	15915
912.405	15819
912.519	15975
912.633	16128
912.748	15918
912.862	15865
912.976	15663
913.09	15572
913.204	15622
913.318	15766
913.431	15804
913.545	15728
913.659	15743
913.772	15720
913.886	15523
914	15511
914.113	15724
914.226	15526
914.34	15584
914.453	15378
914.566	15534
914.68	15359
914.793	15355
914.906	15218
915.019	15085
915.132	15070
915.245	15180
915.358	15051
915.47	15089
915.583	15089
915.696	15097
915.809	15157
915.921	15195
916.034	15039
916.146	15097
916.259	14910
916.371	15024
916.483	15036
916.595	14975
916.708	15001
916.82	14891
916.932	14830
917.044	14880
917.156	14830
917.268	14785
917.38	14823
917.491	14708
917.603	14746
917.715	14758
917.826	14845
917.938	14651
918.049	14552
918.161	14663
918.272	14826
918.384	14750
918.495	14667
918.606	14598
918.717	14450
918.828	14484
918.939	14526
919.05	14503
919.161	14568
919.272	14244
919.383	14267
919.494	14518
919.604	14724
919.715	14503
919.826	14423
919.936	14412
920.047	14507
920.157	14431
920.267	14648
920.378	14415
920.488	14473
920.598	14648
920.708	14712
920.818	14583
920.928	14640
921.038	14682
921.148	14724
921.258	14526
921.368	14301
921.477	14218
921.587	14214
921.697	14008
921.806	14229
921.916	14035
922.025	13860
922.134	13925
922.244	13795
922.353	13940
922.462	13788
922.571	13605
922.68	13525
922.789	13506
922.898	13502
923.007	13441
923.116	13575
923.224	13464
923.333	13434
923.442	13392
923.55	13369
923.659	13217
923.767	13324
923.876	13316
923.984	13339
924.092	13175
924.201	13289
924.309	13285
924.417	13209
924.525	13145
924.633	13179
924.741	14054
924.849	12932
924.956	13126
925.064	12935
925.172	12878
925.279	12837
925.387	12973
925.494	12894
925.602	13050
925.709	13042
925.816	12825
925.924	12909
926.031	12916
926.138	12844
926.245	12909
926.352	12783
926.459	12859
926.566	12993
926.673	12795
926.779	12650
926.886	12741
926.993	12464
927.099	12388
927.206	12509
927.312	12452
927.419	12467
927.525	12452
927.631	12448
927.737	12311
927.843	12346
927.95	12247
928.056	12277
928.162	12319
928.267	12395
928.373	12973
928.479	12388
928.585	12136
928.69	12190
928.796	12308
928.901	12155
929.007	11942
929.112	12243
929.218	12079
929.323	12022
929.428	12038
929.533	12064
929.638	11874
929.743	12011
929.848	11996
929.953	11965
930.058	11912
930.163	11726
930.267	11779
930.372	11863
930.477	11627
930.581	11885
930.685	11745
930.79	11570
930.894	11642
930.998	11562
931.103	11794
931.207	11288
931.311	11292
931.415	11193
931.519	11071
931.623	10942
