Data from test_V78500241_868.txt Node
Date: Fri Mar 25 15:15:54 CST 2022
User: usil
Spectrometer: V785-0024
Trigger mode: 0
Integration Time (sec): 4.000000E-1
Scans to average: 1
Nonlinearity correction enabled: false
Boxcar width: 0
Storing dark spectrum: false
XAxis mode: Wavelengths
Number of Pixels in Spectrum: 1024
>>>>>Begin Spectral Data<<<<<
801.071	28291
801.214	28192
801.356	27975
801.499	27857
801.641	27781
801.783	27724
801.926	27808
802.068	27778
802.211	27732
802.353	27568
802.496	27245
802.638	27443
802.78	27389
802.923	27344
803.065	27481
803.208	27233
803.35	27496
803.492	27553
803.635	27378
803.777	27564
803.919	27755
804.061	27876
804.204	27652
804.346	27500
804.488	27435
804.63	27625
804.773	27595
804.915	27561
805.057	27747
805.199	27629
805.341	27732
805.483	27789
805.626	27770
805.768	27633
805.91	27800
806.052	27701
806.194	27583
806.336	27899
806.478	27766
806.62	27800
806.762	27964
806.904	28128
807.046	28287
807.188	28173
807.33	28120
807.472	28242
807.614	28036
807.756	28196
807.898	28002
808.04	27975
808.182	27960
808.324	27918
808.465	27994
808.607	28299
808.749	28394
808.891	28557
809.033	28672
809.174	28421
809.316	28447
809.458	28447
809.6	28394
809.741	28580
809.883	28462
810.025	28793
810.166	28626
810.308	28683
810.45	28607
810.591	28523
810.733	28333
810.875	28367
811.016	28211
811.158	28284
811.299	28413
811.441	28500
811.582	28474
811.724	28371
811.865	28481
812.007	28394
812.148	28318
812.29	28557
812.431	28717
812.573	28725
812.714	28854
812.855	28919
812.997	29181
813.138	29147
813.279	29052
813.421	29056
813.562	28949
813.703	28812
813.845	28656
813.986	28443
814.127	28257
814.268	28143
814.41	28036
814.551	28078
814.692	28238
814.833	28147
814.974	28204
815.115	28086
815.256	27941
815.397	27991
815.539	28013
815.68	27972
815.821	27884
815.962	27972
816.103	27895
816.244	27911
816.385	27793
816.526	27701
816.666	27485
816.807	27386
816.948	27526
817.089	27523
817.23	27496
817.371	27534
817.512	27507
817.653	27424
817.793	27561
817.934	27485
818.075	27466
818.216	27321
818.356	27393
818.497	27367
818.638	27233
818.778	27207
818.919	27218
819.06	27359
819.2	27298
819.341	27511
819.481	27427
819.622	27477
819.762	27705
819.903	27701
820.043	27667
820.184	27652
820.324	27458
820.465	27583
820.605	27633
820.746	27606
820.886	27302
821.026	27603
821.167	27538
821.307	27549
821.447	27561
821.588	27287
821.728	27180
821.868	26986
822.008	26990
822.149	26960
822.289	26910
822.429	26678
822.569	26564
822.709	26739
822.849	26533
822.99	26476
823.13	26336
823.27	26358
823.41	26240
823.55	26058
823.69	26256
823.83	26138
823.97	26142
824.11	25894
824.25	26043
824.389	26115
824.529	26164
824.669	26172
824.809	26218
824.949	26126
825.089	26100
825.228	26244
825.368	26096
825.508	25993
825.648	25978
825.787	26138
825.927	26043
826.067	25955
826.206	25997
826.346	25966
826.485	26062
826.625	25769
826.765	25989
826.904	26012
827.044	25639
827.183	25826
827.323	25662
827.462	25761
827.601	25795
827.741	25677
827.88	25742
828.02	25594
828.159	25632
828.298	25635
828.437	25795
828.577	25693
828.716	25799
828.855	25632
828.994	25350
829.134	25400
829.273	25487
829.412	25358
829.551	25274
829.69	25403
829.829	25304
829.968	25445
830.107	25411
830.246	25525
830.385	25297
830.524	25331
830.663	25168
830.802	25046
830.941	25247
831.08	24985
831.219	25034
831.357	25091
831.496	25148
831.635	24905
831.774	24802
831.913	24745
832.051	24688
832.19	24776
832.329	24966
832.467	24593
832.606	24582
832.744	24627
832.883	24532
833.022	24631
833.16	24623
833.299	24738
833.437	24639
833.576	24711
833.714	24692
833.852	24707
833.991	24658
834.129	24802
834.267	24867
834.406	24722
834.544	24753
834.682	24749
834.821	24768
834.959	24806
835.097	24760
835.235	24833
835.373	24650
835.511	24730
835.65	24563
835.788	24658
835.926	24536
836.064	24384
836.202	24460
836.34	24547
836.478	24563
836.615	24475
836.753	24547
836.891	24525
837.029	24631
837.167	24490
837.305	24494
837.443	24399
837.58	24342
837.718	24460
837.856	24437
837.993	24391
838.131	24213
838.269	24300
838.406	24220
838.544	24186
838.681	24041
838.819	23935
838.956	23748
839.094	23809
839.231	23824
839.369	23904
839.506	24224
839.643	24064
839.781	23847
839.918	23764
840.055	23859
840.193	23771
840.33	23703
840.467	23859
840.604	23790
840.742	24015
840.879	23623
841.016	23653
841.153	23596
841.29	23832
841.427	23783
841.564	23794
841.701	23817
841.838	23695
841.975	23649
842.112	23627
842.249	23478
842.385	23505
842.522	23737
842.659	23623
842.796	23520
842.933	23486
843.069	23398
843.206	23433
843.343	23543
843.479	23490
843.616	23497
843.752	23387
843.889	23402
844.025	23429
844.162	23265
844.298	23356
844.435	23265
844.571	23299
844.708	23318
844.844	23505
844.98	23448
845.117	23364
845.253	23223
845.389	23212
845.525	23239
845.661	23166
845.798	23006
845.934	23132
846.07	23003
846.206	23121
846.342	23197
846.478	23098
846.614	22850
846.75	22702
846.886	22721
847.022	22759
847.158	22900
847.294	22847
847.429	22873
847.565	22771
847.701	23033
847.837	22538
847.972	22371
848.108	22599
848.244	22615
848.379	22413
848.515	22421
848.65	22367
848.786	22348
848.921	22413
849.057	22417
849.192	22356
849.328	22417
849.463	22265
849.598	22242
849.734	22280
849.869	22223
850.004	22074
850.14	22143
850.275	22116
850.41	22021
850.545	22082
850.68	22055
850.815	22143
850.95	22166
851.085	22276
851.22	22211
851.355	22078
851.49	22101
851.625	22097
851.76	22070
851.895	21979
852.03	21953
852.165	22109
852.299	22158
852.434	22150
852.569	22101
852.703	22166
852.838	22200
852.973	22173
853.107	22295
853.242	22032
853.376	21934
853.511	21766
853.645	21911
853.78	22025
853.914	21945
854.048	21930
854.183	21880
854.317	21857
854.451	22166
854.585	21941
854.72	21945
854.854	21884
854.988	21880
855.122	21937
855.256	21880
855.39	21778
855.524	21831
855.658	22124
855.792	21926
855.926	22021
856.06	21987
856.194	22070
856.327	21812
856.461	21918
856.595	21857
856.729	21911
856.862	22040
856.996	21968
857.13	21899
857.263	21953
857.397	22074
857.53	21895
857.664	22025
857.797	21812
857.931	21994
858.064	21956
858.197	22013
858.331	21937
858.464	21895
858.597	21838
858.731	21865
858.864	21865
858.997	21907
859.13	21892
859.263	21953
859.396	22116
859.529	21865
859.662	21907
859.795	21808
859.928	21960
860.061	22048
860.194	22074
860.327	21842
860.46	21888
860.592	22070
860.725	22093
860.858	22032
860.99	21949
861.123	21975
861.256	21899
861.388	21728
861.521	22744
861.653	21880
861.786	21648
861.918	21751
862.05	21823
862.183	21865
862.315	21835
862.447	21880
862.58	21797
862.712	21648
862.844	21603
862.976	21770
863.108	21751
863.24	21991
863.372	21412
863.504	21701
863.636	21656
863.768	21583
863.9	21572
864.032	21583
864.164	21523
864.296	21667
864.428	21656
864.559	21770
864.691	21747
864.823	21618
864.954	21580
865.086	21591
865.217	21610
865.349	21553
865.48	21614
865.612	21450
865.743	21663
865.875	21595
866.006	21447
866.137	21603
866.269	21557
866.4	21507
866.531	21473
866.662	21553
866.793	21428
866.924	21622
867.055	21408
867.186	21462
867.317	21458
867.448	21359
867.579	21450
867.71	21332
867.841	21363
867.972	21401
868.103	21412
868.233	21435
868.364	21485
868.495	21450
868.625	21610
868.756	21595
868.886	21561
869.017	21648
869.147	21755
869.278	21736
869.408	21743
869.539	21694
869.669	21743
869.799	21808
869.929	21808
870.06	21728
870.19	22032
870.32	22006
870.45	22082
870.58	21998
870.71	22154
870.84	22131
870.97	22086
871.1	22051
871.23	22249
871.36	22219
871.489	22242
871.619	22234
871.749	22238
871.879	22272
872.008	22363
872.138	22143
872.267	22211
872.397	22139
872.526	22188
872.656	22036
872.785	22040
872.915	22344
873.044	22474
873.173	22223
873.303	22360
873.432	22329
873.561	22375
873.69	22253
873.819	22409
873.948	22291
874.077	22314
874.206	22192
874.335	22280
874.464	22394
874.593	22504
874.722	22455
874.851	22569
874.979	22565
875.108	22542
875.237	22432
875.365	22440
875.494	22432
875.623	22432
875.751	22504
875.88	22489
876.008	22611
876.136	22664
876.265	22892
876.393	23044
876.521	22953
876.65	22927
876.778	22892
876.906	22953
877.034	22725
877.162	22828
877.29	22664
877.418	22797
877.546	22812
877.674	22839
877.802	22801
877.93	22892
878.058	22801
878.185	22630
878.313	22645
878.441	22850
878.568	22672
878.696	22774
878.824	22858
878.951	22949
879.079	23067
879.206	23079
879.333	23006
879.461	22911
879.588	22957
879.715	22946
879.842	23109
879.97	22961
880.097	22752
880.224	22622
880.351	22641
880.478	22706
880.605	22679
880.732	22615
880.859	22938
880.986	22645
881.112	22637
881.239	22542
881.366	22481
881.493	22257
881.619	22409
881.746	22303
881.872	22211
881.999	22124
882.125	22128
882.252	22207
882.378	22287
882.505	22413
882.631	21918
882.757	22010
882.883	21941
883.01	21991
883.136	21869
883.262	21739
883.388	21778
883.514	21964
883.64	21991
883.766	21766
883.892	21686
884.018	21694
884.143	21823
884.269	21823
884.395	21770
884.52	21580
884.646	21633
884.772	21481
884.897	21523
885.023	21561
885.148	21633
885.274	21614
885.399	21637
885.524	21504
885.65	21603
885.775	21564
885.9	21576
886.025	21606
886.15	21698
886.275	21587
886.4	21424
886.525	21557
886.65	21488
886.775	21542
886.9	21561
887.025	21785
887.149	21705
887.274	21237
887.399	21348
887.523	21340
887.648	21226
887.773	21176
887.897	21272
888.021	21393
888.146	21146
888.27	21408
888.395	21401
888.519	21313
888.643	21291
888.767	21401
888.891	21218
889.015	21100
889.139	21085
889.263	21081
889.387	21207
889.511	21252
889.635	21310
889.759	21039
889.883	21009
890.006	20990
890.13	21142
890.254	20975
890.377	21070
890.501	20929
890.624	20693
890.748	20941
890.871	20724
890.995	20663
891.118	20655
891.241	20807
891.364	20640
891.488	20758
891.611	20682
891.734	20651
891.857	20697
891.98	20632
892.103	20842
892.226	20587
892.349	20667
892.471	20393
892.594	20606
892.717	20575
892.839	20587
892.962	20651
893.085	20598
893.207	20507
893.33	20415
893.452	20434
893.575	20708
893.697	20545
893.819	20640
893.941	20667
894.064	20579
894.186	20518
894.308	20408
894.43	20663
894.552	20819
894.674	20556
894.796	20434
894.918	20541
895.04	20507
895.161	20617
895.283	20537
895.405	20537
895.526	20530
895.648	20507
895.769	20522
895.891	20606
896.012	20533
896.134	20712
896.255	20754
896.376	20545
896.498	20579
896.619	20609
896.74	20579
896.861	20461
896.982	20925
897.103	20929
897.224	20689
897.345	20845
897.466	20777
897.587	20769
897.708	20899
897.828	20804
897.949	20648
898.07	20632
898.19	20739
898.311	20693
898.431	20705
898.552	20826
898.672	20971
898.792	20750
898.913	20739
899.033	20564
899.153	20587
899.273	20549
899.393	20457
899.513	20530
899.633	20613
899.753	20484
899.873	20404
899.993	20461
900.113	20454
900.232	20549
900.352	20415
900.472	20309
900.591	20256
900.711	20271
900.83	20199
900.95	20259
901.069	20317
901.189	20164
901.308	19951
901.427	19864
901.546	19841
901.665	19913
901.784	19852
901.904	19715
902.023	19620
902.141	19487
902.26	19388
902.379	19487
902.498	19350
902.617	19346
902.735	19362
902.854	19457
902.973	19247
903.091	19080
903.21	19031
903.328	19091
903.446	19004
903.565	18764
903.683	18837
903.801	18772
903.919	18726
904.038	18772
904.156	18532
904.274	18711
904.392	18646
904.51	18570
904.627	18525
904.745	18555
904.863	18578
904.981	18292
905.098	18270
905.216	18243
905.334	18262
905.451	18277
905.569	18235
905.686	18205
905.803	18433
905.921	18095
906.038	18220
906.155	18106
906.272	17935
906.389	18011
906.506	17916
906.623	17798
906.74	17840
906.857	17714
906.974	17695
907.091	17843
907.208	17866
907.324	17908
907.441	17783
907.557	17558
907.674	17554
907.79	17501
907.907	17535
908.023	17528
908.139	17501
908.256	17395
908.372	17406
908.488	17444
908.604	17311
908.72	17216
908.836	17223
908.952	17242
909.068	17265
909.184	17425
909.3	17200
909.415	17239
909.531	17128
909.647	16908
909.762	16949
909.878	16869
909.993	16991
910.108	16938
910.224	16889
910.339	16915
910.454	16805
910.57	16698
910.685	16615
910.8	16927
910.915	16843
911.03	16710
911.145	16664
911.259	16512
911.374	16527
911.489	16481
911.604	16352
911.718	16249
911.833	16352
911.947	16234
912.062	16109
912.176	16310
912.291	16257
912.405	16253
912.519	16421
912.633	16500
912.748	16200
912.862	16192
912.976	16040
913.09	16044
913.204	16086
913.318	16059
913.431	16105
913.545	16177
913.659	16128
913.772	16101
913.886	15899
914	15850
914.113	15949
914.226	16071
914.34	15876
914.453	15698
914.566	15865
914.68	15781
914.793	15743
914.906	15564
915.019	15477
915.132	15367
915.245	15511
915.358	15507
915.47	15488
915.583	15401
915.696	15469
915.809	15504
915.921	15618
916.034	15332
916.146	15291
916.259	15374
916.371	15466
916.483	15302
916.595	15279
916.708	15367
916.82	15351
916.932	15237
917.044	15313
917.156	15310
917.268	15154
917.38	15112
917.491	15028
917.603	15097
917.715	15173
917.826	15176
917.938	15112
918.049	14921
918.161	15123
918.272	15127
918.384	15157
918.495	15032
918.606	14853
918.717	14834
918.828	14963
918.939	14891
919.05	14857
919.161	14826
919.272	14640
919.383	14667
919.494	14910
919.604	15009
919.715	14834
919.826	14796
919.936	14842
920.047	14925
920.157	14804
920.267	14990
920.378	14834
920.488	14720
920.598	14979
920.708	14982
920.818	14994
920.928	14933
921.038	15070
921.148	14990
921.258	14796
921.368	14739
921.477	14629
921.587	14530
921.697	14480
921.806	14530
921.916	14370
922.025	14229
922.134	14244
922.244	14115
922.353	14153
922.462	14103
922.571	13925
922.68	13887
922.789	13753
922.898	13871
923.007	13776
923.116	13852
923.224	13788
923.333	13784
923.442	13632
923.55	13655
923.659	13689
923.767	13734
923.876	13556
923.984	13681
924.092	13506
924.201	13582
924.309	13518
924.417	13529
924.525	13438
924.633	13464
924.741	14218
924.849	13301
924.956	13434
925.064	13209
925.172	13145
925.279	13244
925.387	13255
925.494	13251
925.602	13358
925.709	13228
925.816	13160
925.924	13289
926.031	13266
926.138	13149
926.245	13156
926.352	13012
926.459	13236
926.566	13175
926.673	13091
926.779	12947
926.886	12954
926.993	12757
927.099	12783
927.206	12764
927.312	12719
927.419	12821
927.525	12764
927.631	12703
927.737	12620
927.843	12589
927.95	12460
928.056	12509
928.162	12627
928.267	12623
928.373	13251
928.479	12604
928.585	12418
928.69	12509
928.796	12547
928.901	12555
929.007	12304
929.112	12399
929.218	12445
929.323	12266
929.428	12296
929.533	12467
929.638	12239
929.743	12315
929.848	12209
929.953	12213
930.058	12216
930.163	12007
930.267	11992
930.372	12106
930.477	11958
930.581	12232
930.685	12003
930.79	11790
930.894	11885
930.998	11798
931.103	11980
931.207	11566
931.311	11676
931.415	11516
931.519	11334
931.623	11258
