Data from test_V78500241_2971.txt Node
Date: Fri Mar 25 15:30:32 CST 2022
User: usil
Spectrometer: V785-0024
Trigger mode: 0
Integration Time (sec): 4.000000E-1
Scans to average: 1
Nonlinearity correction enabled: false
Boxcar width: 0
Storing dark spectrum: false
XAxis mode: Wavelengths
Number of Pixels in Spectrum: 1024
>>>>>Begin Spectral Data<<<<<
801.071	27001
801.214	27047
801.356	26880
801.499	26769
801.641	26575
801.783	26606
801.926	26609
802.068	26579
802.211	26636
802.353	26385
802.496	26393
802.638	26282
802.78	26278
802.923	26202
803.065	26145
803.208	26043
803.35	26221
803.492	26339
803.635	26267
803.777	26183
803.919	26446
804.061	26769
804.204	26427
804.346	26385
804.488	26237
804.63	26336
804.773	26313
804.915	26431
805.057	26545
805.199	26404
805.341	26419
805.483	26575
805.626	26571
805.768	26438
805.91	26438
806.052	26644
806.194	26370
806.336	26609
806.478	26393
806.62	26362
806.762	26667
806.904	26826
807.046	26994
807.188	26956
807.33	26933
807.472	27013
807.614	26781
807.756	26887
807.898	26804
808.04	26727
808.182	26823
808.324	26804
808.465	26765
808.607	27089
808.749	27085
808.891	27127
809.033	27157
809.174	27180
809.316	27058
809.458	27150
809.6	27074
809.741	27180
809.883	27268
810.025	27161
810.166	27466
810.308	27469
810.45	27241
810.591	27348
810.733	27154
810.875	27028
811.016	27017
811.158	26994
811.299	27077
811.441	27252
811.582	27348
811.724	27150
811.865	27005
812.007	27013
812.148	27096
812.29	27112
812.431	27344
812.573	27363
812.714	27519
812.855	27641
812.997	27603
813.138	27922
813.279	27705
813.421	27599
813.562	27549
813.703	27302
813.845	27313
813.986	27017
814.127	26830
814.268	26746
814.41	26807
814.551	26701
814.692	26891
814.833	26514
814.974	26636
815.115	26800
815.256	26609
815.397	26560
815.539	26644
815.68	26499
815.821	26461
815.962	26469
816.103	26495
816.244	26385
816.385	26362
816.526	26347
816.666	26100
816.807	25936
816.948	26138
817.089	26081
817.23	25947
817.371	26058
817.512	25917
817.653	25856
817.793	25784
817.934	25993
818.075	26122
818.216	25978
818.356	26001
818.497	25944
818.638	25715
818.778	25651
818.919	25757
819.06	25780
819.2	25734
819.341	26065
819.481	25890
819.622	26157
819.762	26252
819.903	26195
820.043	26256
820.184	26065
820.324	26031
820.465	26210
820.605	26122
820.746	26073
820.886	26073
821.026	26073
821.167	25936
821.307	26046
821.447	25921
821.588	25913
821.728	25738
821.868	25590
822.008	25491
822.149	25487
822.289	25445
822.429	25217
822.569	25076
822.709	25050
822.849	24996
822.99	24977
823.13	24871
823.27	24757
823.41	24734
823.55	24795
823.69	24650
823.83	24749
823.97	24764
824.11	24715
824.25	24646
824.389	24494
824.529	24623
824.669	24528
824.809	24574
824.949	24745
825.089	24627
825.228	24540
825.368	24456
825.508	24330
825.648	24486
825.787	24513
825.927	24403
826.067	24418
826.206	24372
826.346	24494
826.485	24464
826.625	24475
826.765	24578
826.904	24471
827.044	24190
827.183	24197
827.323	23931
827.462	24144
827.601	24018
827.741	24095
827.88	24228
828.02	24007
828.159	24129
828.298	24155
828.437	24186
828.577	23980
828.716	24174
828.855	23901
828.994	23897
829.134	23863
829.273	23912
829.412	23828
829.551	23726
829.69	23866
829.829	23908
829.968	23840
830.107	23859
830.246	23897
830.385	23764
830.524	23745
830.663	23668
830.802	23505
830.941	23486
831.08	23436
831.219	23585
831.357	23524
831.496	23691
831.635	23505
831.774	23273
831.913	23277
832.051	23121
832.19	23227
832.329	23162
832.467	23178
832.606	23083
832.744	23086
832.883	23075
833.022	22984
833.16	22999
833.299	23155
833.437	23117
833.576	23200
833.714	23162
833.852	23083
833.991	23220
834.129	23292
834.267	23136
834.406	23170
834.544	23102
834.682	23136
834.821	23227
834.959	23288
835.097	23166
835.235	23159
835.373	23136
835.511	23025
835.65	23014
835.788	23056
835.926	22889
836.064	22816
836.202	22904
836.34	22946
836.478	23090
836.615	22953
836.753	23083
836.891	23018
837.029	22934
837.167	22919
837.305	22938
837.443	22854
837.58	22908
837.718	23014
837.856	22805
837.993	22649
838.131	22782
838.269	22691
838.406	22782
838.544	22752
838.681	22512
838.819	22527
838.956	22337
839.094	22306
839.231	22333
839.369	22470
839.506	22702
839.643	22508
839.781	22219
839.918	22223
840.055	22398
840.193	22379
840.33	22246
840.467	22276
840.604	22322
840.742	22500
840.879	22169
841.016	22211
841.153	22200
841.29	22272
841.427	22143
841.564	22348
841.701	22246
841.838	22177
841.975	22166
842.112	22188
842.249	22204
842.385	22048
842.522	22291
842.659	22093
842.796	21991
842.933	21964
843.069	21979
843.206	21861
843.343	22040
843.479	22086
843.616	21937
843.752	21812
843.889	21713
844.025	21934
844.162	21743
844.298	21857
844.435	21781
844.571	21667
844.708	21831
844.844	21960
844.98	21987
845.117	21941
845.253	21644
845.389	21629
845.525	21713
845.661	21686
845.798	21500
845.934	21603
846.07	21526
846.206	21595
846.342	21644
846.478	21492
846.614	21313
846.75	21287
846.886	21249
847.022	21332
847.158	21325
847.294	21214
847.429	21424
847.565	21302
847.701	21401
847.837	20883
847.972	20785
848.108	20998
848.244	20994
848.379	20880
848.515	20804
848.65	20834
848.786	20872
848.921	20830
849.057	21043
849.192	20941
849.328	20864
849.463	20777
849.598	20868
849.734	20693
849.869	20621
850.004	20541
850.14	20686
850.275	20708
850.41	20663
850.545	20442
850.68	20465
850.815	20537
850.95	20613
851.085	20743
851.22	20819
851.355	20503
851.49	20629
851.625	20545
851.76	20575
851.895	20556
852.03	20602
852.165	20488
852.299	20613
852.434	20663
852.569	20708
852.703	20678
852.838	20571
852.973	20777
853.107	20701
853.242	20469
853.376	20313
853.511	20317
853.645	20495
853.78	20495
853.914	20511
854.048	20533
854.183	20533
854.317	20404
854.451	20606
854.585	20446
854.72	20400
854.854	20404
854.988	20495
855.122	20492
855.256	20317
855.39	20465
855.524	20442
855.658	20533
855.792	20442
855.926	20526
856.06	20434
856.194	20488
856.327	20358
856.461	20434
856.595	20370
856.729	20381
856.862	20533
856.996	20396
857.13	20484
857.263	20575
857.397	20583
857.53	20389
857.664	20499
857.797	20442
857.931	20530
858.064	20377
858.197	20507
858.331	20358
858.464	20362
858.597	20370
858.731	20419
858.864	20412
858.997	20446
859.13	20560
859.263	20400
859.396	20617
859.529	20343
859.662	20351
859.795	20465
859.928	20457
860.061	20636
860.194	20583
860.327	20400
860.46	20480
860.592	20583
860.725	20492
860.858	20602
860.99	20495
861.123	20294
861.256	20290
861.388	20377
861.521	21055
861.653	20248
861.786	20301
861.918	20225
862.05	20290
862.183	20393
862.315	20469
862.447	20431
862.58	20431
862.712	20225
862.844	20130
862.976	20122
863.108	20256
863.24	20552
863.372	20107
863.504	20142
863.636	20100
863.768	20164
863.9	20126
864.032	20115
864.164	20218
864.296	20126
864.428	20259
864.559	20119
864.691	20172
864.823	20161
864.954	20168
865.086	20157
865.217	20065
865.349	20016
865.48	20069
865.612	20142
865.743	20161
865.875	20122
866.006	20054
866.137	20058
866.269	20126
866.4	20062
866.531	19986
866.662	19902
866.793	19955
866.924	20008
867.055	20016
867.186	20024
867.317	20050
867.448	19955
867.579	19963
867.71	19947
867.841	19902
867.972	19955
868.103	19928
868.233	20077
868.364	19989
868.495	20115
868.625	20191
868.756	20294
868.886	20161
869.017	20134
869.147	20332
869.278	20389
869.408	20278
869.539	20294
869.669	20278
869.799	20343
869.929	20469
870.06	20301
870.19	20663
870.32	20545
870.45	20537
870.58	20518
870.71	20758
870.84	20697
870.97	20552
871.1	20613
871.23	20842
871.36	20777
871.489	20754
871.619	20735
871.749	20861
871.879	20792
872.008	20937
872.138	20830
872.267	20906
872.397	20670
872.526	20765
872.656	20609
872.785	20663
872.915	20731
873.044	20986
873.173	20914
873.303	20811
873.432	20769
873.561	20975
873.69	20834
873.819	20868
873.948	20982
874.077	20880
874.206	20902
874.335	20918
874.464	21077
874.593	21100
874.722	21043
874.851	21131
874.979	21074
875.108	21135
875.237	21211
875.365	21062
875.494	21112
875.623	21211
875.751	21157
875.88	21108
876.008	21325
876.136	21363
876.265	21496
876.393	21660
876.521	21523
876.65	21549
876.778	21553
876.906	21496
877.034	21443
877.162	21492
877.29	21374
877.418	21496
877.546	21431
877.674	21492
877.802	21523
877.93	21504
878.058	21443
878.185	21420
878.313	21416
878.441	21485
878.568	21321
878.696	21389
878.824	21622
878.951	21561
879.079	21599
879.206	21610
879.333	21686
879.461	21450
879.588	21583
879.715	21644
879.842	21789
879.97	21553
880.097	21306
880.224	21218
880.351	21306
880.478	21397
880.605	21222
880.732	21173
880.859	21515
880.986	21302
881.112	21325
881.239	21116
881.366	20925
881.493	21020
881.619	20857
881.746	20864
881.872	20937
881.999	20899
882.125	20739
882.252	20914
882.378	20819
882.505	20895
882.631	20682
882.757	20560
882.883	20545
883.01	20602
883.136	20533
883.262	20552
883.388	20465
883.514	20613
883.64	20636
883.766	20518
883.892	20339
884.018	20385
884.143	20446
884.269	20602
884.395	20415
884.52	20183
884.646	20298
884.772	20172
884.897	20088
885.023	20267
885.148	20358
885.274	20298
885.399	20282
885.524	20256
885.65	20256
885.775	20176
885.9	20229
886.025	20298
886.15	20347
886.275	20309
886.4	20065
886.525	20103
886.65	20191
886.775	20286
886.9	20275
887.025	20473
887.149	20176
887.274	20035
887.399	19970
887.523	20027
887.648	19879
887.773	19906
887.897	20096
888.021	20103
888.146	19967
888.27	20134
888.395	20145
888.519	20062
888.643	20100
888.767	20039
888.891	19978
889.015	19959
889.139	19826
889.263	19894
889.387	19955
889.511	20046
889.635	19902
889.759	19700
889.883	19925
890.006	19746
890.13	19837
890.254	19723
890.377	19620
890.501	19563
890.624	19556
890.748	19662
890.871	19438
890.995	19343
891.118	19312
891.241	19381
891.364	19449
891.488	19571
891.611	19441
891.734	19480
891.857	19426
891.98	19468
892.103	19335
892.226	19365
892.349	19301
892.471	19304
892.594	19335
892.717	19327
892.839	19247
892.962	19381
893.085	19339
893.207	19213
893.33	19308
893.452	19339
893.575	19263
893.697	19358
893.819	19544
893.941	19620
894.064	19411
894.186	19320
894.308	19206
894.43	19495
894.552	19487
894.674	19472
894.796	19312
894.918	19400
895.04	19266
895.161	19453
895.283	19240
895.405	19316
895.526	19293
895.648	19263
895.769	19426
895.891	19400
896.012	19263
896.134	19350
896.255	19400
896.376	19308
896.498	19263
896.619	19578
896.74	19388
896.861	19407
896.982	19571
897.103	19723
897.224	19658
897.345	19540
897.466	19556
897.587	19601
897.708	19685
897.828	19635
897.949	19487
898.07	19266
898.19	19605
898.311	19662
898.431	19430
898.552	19506
898.672	19727
898.792	19605
898.913	19620
899.033	19578
899.153	19434
899.273	19278
899.393	19415
899.513	19301
899.633	19426
899.753	19415
899.873	19324
899.993	19403
900.113	19285
900.232	19426
900.352	19228
900.472	19263
900.591	19042
900.711	19187
900.83	19099
900.95	19228
901.069	19282
901.189	19126
901.308	18890
901.427	18757
901.546	18829
901.665	18760
901.784	18764
901.904	18494
902.023	18513
902.141	18403
902.26	18285
902.379	18410
902.498	18273
902.617	18224
902.735	18304
902.854	18174
902.973	18159
903.091	17912
903.21	17923
903.328	17965
903.446	17942
903.565	17737
903.683	17771
903.801	17577
903.919	17672
904.038	17729
904.156	17455
904.274	17554
904.392	17493
904.51	17493
904.627	17471
904.745	17535
904.863	17585
904.981	17288
905.098	17204
905.216	17178
905.334	17250
905.451	17193
905.569	17193
905.686	17220
905.803	17136
905.921	17006
906.038	17041
906.155	17003
906.272	16812
906.389	16911
906.506	16740
906.623	16702
906.74	16740
906.857	16672
906.974	16637
907.091	16873
907.208	16828
907.324	16816
907.441	16565
907.557	16497
907.674	16504
907.79	16409
907.907	16371
908.023	16489
908.139	16451
908.256	16462
908.372	16424
908.488	16303
908.604	16158
908.72	16143
908.836	16223
908.952	16124
909.068	16200
909.184	16287
909.3	16169
909.415	16181
909.531	16105
909.647	15979
909.762	15911
909.878	15857
909.993	15911
910.108	15861
910.224	15812
910.339	15857
910.454	15739
910.57	15667
910.685	15679
910.8	15846
910.915	15819
911.03	15690
911.145	15549
911.259	15500
911.374	15515
911.489	15435
911.604	15386
911.718	15214
911.833	15218
911.947	15192
912.062	15169
912.176	15249
912.291	15378
912.405	15325
912.519	15454
912.633	15447
912.748	15188
912.862	15176
912.976	15180
913.09	15028
913.204	14944
913.318	15024
913.431	15237
913.545	15142
913.659	15207
913.772	15051
913.886	14868
914	14975
914.113	14975
914.226	15005
914.34	14960
914.453	14796
914.566	14921
914.68	14701
914.793	14754
914.906	14564
915.019	14552
915.132	14511
915.245	14499
915.358	14674
915.47	14632
915.583	14564
915.696	14560
915.809	14648
915.921	14648
916.034	14431
916.146	14469
916.259	14313
916.371	14556
916.483	14431
916.595	14374
916.708	14370
916.82	14355
916.932	14263
917.044	14320
917.156	14244
917.268	14221
917.38	14225
917.491	14111
917.603	14145
917.715	14221
917.826	14275
917.938	14149
918.049	14008
918.161	14130
918.272	14218
918.384	14248
918.495	14100
918.606	14027
918.717	13887
918.828	14012
918.939	13989
919.05	13868
919.161	13830
919.272	13799
919.383	13734
919.494	13932
919.604	14054
919.715	13940
919.826	13883
919.936	13818
920.047	13936
920.157	13940
920.267	14054
920.378	13955
920.488	13951
920.598	14123
920.708	14229
920.818	14149
920.928	14088
921.038	14214
921.148	14187
921.258	13871
921.368	13788
921.477	13734
921.587	13738
921.697	13540
921.806	13681
921.916	13567
922.025	13403
922.134	13354
922.244	13251
922.353	13358
922.462	13225
922.571	13179
922.68	12993
922.789	13053
922.898	13046
923.007	12943
923.116	13042
923.224	12894
923.333	12890
923.442	12768
923.55	12753
923.659	12825
923.767	12909
923.876	12795
923.984	12791
924.092	12726
924.201	12837
924.309	12779
924.417	12722
924.525	12768
924.633	12612
924.741	13426
924.849	12509
924.956	12620
925.064	12494
925.172	12353
925.279	12395
925.387	12475
925.494	12407
925.602	12616
925.709	12494
925.816	12361
925.924	12407
926.031	12475
926.138	12323
926.245	12486
926.352	12292
926.459	12464
926.566	12490
926.673	12315
926.779	12182
926.886	12201
926.993	12038
927.099	11916
927.206	11992
927.312	11965
927.419	12133
927.525	12019
927.631	12079
927.737	11885
927.843	11805
927.95	11745
928.056	11836
928.162	11859
928.267	11885
928.373	12521
928.479	12007
928.585	11710
928.69	11855
928.796	11809
928.901	11668
929.007	11634
929.112	11672
929.218	11710
929.323	11627
929.428	11581
929.533	11703
929.638	11493
929.743	11532
929.848	11634
929.953	11566
930.058	11391
930.163	11235
930.267	11284
930.372	11524
930.477	11265
930.581	11459
930.685	11337
930.79	11181
930.894	11181
930.998	11170
931.103	11201
931.207	10946
931.311	10869
931.415	10763
931.519	10584
931.623	10645
