Data from test_V78500241_517.txt Node
Date: Fri Mar 25 15:13:27 CST 2022
User: usil
Spectrometer: V785-0024
Trigger mode: 0
Integration Time (sec): 4.000000E-1
Scans to average: 1
Nonlinearity correction enabled: false
Boxcar width: 0
Storing dark spectrum: false
XAxis mode: Wavelengths
Number of Pixels in Spectrum: 1024
>>>>>Begin Spectral Data<<<<<
801.071	27386
801.214	27523
801.356	27279
801.499	27195
801.641	27051
801.783	27085
801.926	27100
802.068	27066
802.211	26902
802.353	26880
802.496	26853
802.638	26731
802.78	26712
802.923	26693
803.065	26655
803.208	26705
803.35	26724
803.492	26800
803.635	26815
803.777	26667
803.919	26868
804.061	27218
804.204	26857
804.346	26861
804.488	26845
804.63	26765
804.773	26720
804.915	26800
805.057	26906
805.199	26720
805.341	26861
805.483	26956
805.626	27009
805.768	26842
805.91	26963
806.052	26952
806.194	26842
806.336	27157
806.478	27005
806.62	26823
806.762	27062
806.904	27260
807.046	27458
807.188	27359
807.33	27359
807.472	27397
807.614	27363
807.756	27184
807.898	27192
808.04	27119
808.182	27100
808.324	27070
808.465	27180
808.607	27389
808.749	27523
808.891	27614
809.033	27652
809.174	27781
809.316	27568
809.458	27538
809.6	27561
809.741	27618
809.883	27682
810.025	27682
810.166	27846
810.308	27949
810.45	27850
810.591	27880
810.733	27739
810.875	27656
811.016	27450
811.158	27386
811.299	27549
811.441	27713
811.582	27629
811.724	27412
811.865	27500
812.007	27583
812.148	27580
812.29	27568
812.431	27633
812.573	27876
812.714	28078
812.855	27972
812.997	28120
813.138	28371
813.279	28329
813.421	28029
813.562	28082
813.703	27960
813.845	27873
813.986	27530
814.127	27386
814.268	27222
814.41	27283
814.551	27157
814.692	27367
814.833	27184
814.974	27195
815.115	27287
815.256	27051
815.397	27081
815.539	26998
815.68	26975
815.821	27036
815.962	27176
816.103	27017
816.244	26956
816.385	26716
816.526	26632
816.666	26541
816.807	26533
816.948	26511
817.089	26575
817.23	26648
817.371	26594
817.512	26537
817.653	26457
817.793	26526
817.934	26476
818.075	26587
818.216	26514
818.356	26461
818.497	26355
818.638	26263
818.778	26187
818.919	26229
819.06	26290
819.2	26450
819.341	26446
819.481	26419
819.622	26674
819.762	26899
819.903	26697
820.043	26682
820.184	26686
820.324	26648
820.465	26739
820.605	26792
820.746	26632
820.886	26549
821.026	26560
821.167	26583
821.307	26560
821.447	26488
821.588	26389
821.728	26313
821.868	26199
822.008	25963
822.149	25864
822.289	25986
822.429	25658
822.569	25613
822.709	25582
822.849	25411
822.99	25556
823.13	25567
823.27	25438
823.41	25362
823.55	25118
823.69	25304
823.83	25464
823.97	25244
824.11	24977
824.25	25023
824.389	25118
824.529	25148
824.669	25194
824.809	25255
824.949	25327
825.089	25251
825.228	25320
825.368	25038
825.508	24970
825.648	25156
825.787	25031
825.927	25141
826.067	24863
826.206	25038
826.346	24996
826.485	25183
826.625	25122
826.765	25034
826.904	25148
827.044	24817
827.183	24779
827.323	24696
827.462	24757
827.601	24722
827.741	24719
827.88	24692
828.02	24585
828.159	24734
828.298	24703
828.437	24730
828.577	24703
828.716	24844
828.855	24502
828.994	24509
829.134	24460
829.273	24483
829.412	24327
829.551	24334
829.69	24350
829.829	24456
829.968	24494
830.107	24498
830.246	24502
830.385	24315
830.524	24285
830.663	24270
830.802	24155
830.941	24038
831.08	24068
831.219	24136
831.357	24091
831.496	24277
831.635	23969
831.774	23923
831.913	23863
832.051	23866
832.19	23912
832.329	23950
832.467	23855
832.606	23615
832.744	23676
832.883	23733
833.022	23676
833.16	23764
833.299	23786
833.437	23699
833.576	23832
833.714	23745
833.852	23851
833.991	23878
834.129	23756
834.267	23882
834.406	23767
834.544	23779
834.682	23714
834.821	23703
834.959	23836
835.097	23790
835.235	23783
835.373	23665
835.511	23745
835.65	23585
835.788	23509
835.926	23623
836.064	23455
836.202	23467
836.34	23547
836.478	23737
836.615	23558
836.753	23649
836.891	23646
837.029	23627
837.167	23665
837.305	23566
837.443	23638
837.58	23467
837.718	23680
837.856	23543
837.993	23402
838.131	23387
838.269	23315
838.406	23349
838.544	23299
838.681	23147
838.819	23075
838.956	22908
839.094	22972
839.231	23006
839.369	23159
839.506	23414
839.643	23223
839.781	22957
839.918	22980
840.055	22873
840.193	22805
840.33	22869
840.467	22900
840.604	22881
840.742	23220
840.879	22733
841.016	22889
841.153	22850
841.29	22946
841.427	22805
841.564	23014
841.701	22900
841.838	22908
841.975	22748
842.112	22835
842.249	22641
842.385	22607
842.522	22812
842.659	22759
842.796	22584
842.933	22557
843.069	22535
843.206	22637
843.343	22778
843.479	22660
843.616	22626
843.752	22382
843.889	22348
844.025	22466
844.162	22363
844.298	22413
844.435	22352
844.571	22363
844.708	22356
844.844	22538
844.98	22485
845.117	22531
845.253	22382
845.389	22188
845.525	22299
845.661	22181
845.798	22070
845.934	22215
846.07	22150
846.206	22166
846.342	22314
846.478	22082
846.614	21991
846.75	21888
846.886	21785
847.022	21956
847.158	21941
847.294	21918
847.429	21861
847.565	21895
847.701	22055
847.837	21713
847.972	21587
848.108	21637
848.244	21644
848.379	21511
848.515	21359
848.65	21523
848.786	21348
848.921	21454
849.057	21591
849.192	21496
849.328	21428
849.463	21443
849.598	21397
849.734	21275
849.869	21329
850.004	21173
850.14	21298
850.275	21211
850.41	21222
850.545	21173
850.68	21188
850.815	21275
850.95	21154
851.085	21367
851.22	21386
851.355	21264
851.49	21302
851.625	21245
851.76	21188
851.895	21032
852.03	21047
852.165	21294
852.299	21226
852.434	21344
852.569	21302
852.703	21123
852.838	21241
852.973	21370
853.107	21454
853.242	21161
853.376	21165
853.511	21032
853.645	21058
853.78	21116
853.914	20960
854.048	21062
854.183	21070
854.317	21119
854.451	21184
854.585	21081
854.72	21005
854.854	21096
854.988	20994
855.122	21062
855.256	21013
855.39	21070
855.524	21096
855.658	21074
855.792	21123
855.926	21203
856.06	21116
856.194	21176
856.327	20982
856.461	20876
856.595	20956
856.729	20929
856.862	21161
856.996	21047
857.13	21157
857.263	21154
857.397	21161
857.53	21089
857.664	21157
857.797	21070
857.931	21146
858.064	21062
858.197	21211
858.331	20994
858.464	20971
858.597	21051
858.731	21043
858.864	21024
858.997	21043
859.13	21043
859.263	21028
859.396	21104
859.529	21039
859.662	21020
859.795	21047
859.928	20891
860.061	21252
860.194	21203
860.327	21081
860.46	21032
860.592	21203
860.725	21260
860.858	21142
860.99	21032
861.123	21070
861.256	21051
861.388	21017
861.521	21774
861.653	21020
861.786	20868
861.918	20868
862.05	21020
862.183	21001
862.315	21028
862.447	21142
862.58	21009
862.712	20826
862.844	20754
862.976	20872
863.108	20804
863.24	21051
863.372	20739
863.504	20796
863.636	20762
863.768	20819
863.9	20796
864.032	20708
864.164	20727
864.296	20629
864.428	20800
864.559	20861
864.691	20815
864.823	20750
864.954	20754
865.086	20819
865.217	20807
865.349	20617
865.48	20785
865.612	20686
865.743	20864
865.875	20648
866.006	20564
866.137	20701
866.269	20743
866.4	20632
866.531	20549
866.662	20526
866.793	20587
866.924	20667
867.055	20712
867.186	20674
867.317	20705
867.448	20560
867.579	20503
867.71	20537
867.841	20488
867.972	20670
868.103	20476
868.233	20613
868.364	20590
868.495	20632
868.625	20914
868.756	20883
868.886	20914
869.017	20880
869.147	20861
869.278	20967
869.408	20921
869.539	20826
869.669	20933
869.799	20887
869.929	21093
870.06	20933
870.19	21093
870.32	21127
870.45	21169
870.58	21218
870.71	21321
870.84	21428
870.97	21203
871.1	21188
871.23	21408
871.36	21431
871.489	21310
871.619	21458
871.749	21443
871.879	21412
872.008	21488
872.138	21530
872.267	21473
872.397	21363
872.526	21154
872.656	21237
872.785	21302
872.915	21595
873.044	21515
873.173	21397
873.303	21447
873.432	21507
873.561	21511
873.69	21431
873.819	21488
873.948	21538
874.077	21549
874.206	21428
874.335	21473
874.464	21603
874.593	21614
874.722	21766
874.851	21686
874.979	21774
875.108	21656
875.237	21622
875.365	21641
875.494	21633
875.623	21785
875.751	21728
875.88	21747
876.008	21732
876.136	21884
876.265	22120
876.393	22188
876.521	22177
876.65	22200
876.778	22010
876.906	22105
877.034	21960
877.162	22044
877.29	22032
877.418	22074
877.546	22021
877.674	22097
877.802	22078
877.93	22036
878.058	21899
878.185	21899
878.313	21960
878.441	21983
878.568	21865
878.696	21945
878.824	22048
878.951	22177
879.079	22306
879.206	22215
879.333	22280
879.461	22063
879.588	22192
879.715	22276
879.842	22280
879.97	22025
880.097	21918
880.224	21842
880.351	21937
880.478	21838
880.605	21835
880.732	21854
880.859	22029
880.986	21918
881.112	21930
881.239	21785
881.366	21663
881.493	21622
881.619	21405
881.746	21439
881.872	21370
881.999	21443
882.125	21317
882.252	21443
882.378	21340
882.505	21545
882.631	21188
882.757	21146
882.883	21211
883.01	21207
883.136	21157
883.262	21017
883.388	20971
883.514	21165
883.64	21180
883.766	21055
883.892	20933
884.018	21001
884.143	21085
884.269	21131
884.395	20857
884.52	20686
884.646	20830
884.772	20640
884.897	20678
885.023	20804
885.148	20880
885.274	20941
885.399	20914
885.524	20864
885.65	20838
885.775	20876
885.9	20823
886.025	20925
886.15	20910
886.275	20785
886.4	20746
886.525	20800
886.65	20705
886.775	20716
886.9	20857
887.025	20986
887.149	20769
887.274	20674
887.399	20530
887.523	20514
887.648	20575
887.773	20533
887.897	20541
888.021	20636
888.146	20545
888.27	20609
888.395	20629
888.519	20568
888.643	20537
888.767	20640
888.891	20438
889.015	20343
889.139	20488
889.263	20381
889.387	20606
889.511	20495
889.635	20514
889.759	20317
889.883	20393
890.006	20442
890.13	20427
890.254	20381
890.377	20248
890.501	20244
890.624	20161
890.748	20191
890.871	20027
890.995	19868
891.118	19894
891.241	20024
891.364	19936
891.488	19997
891.611	19944
891.734	19868
891.857	20020
891.98	19887
892.103	19925
892.226	20001
892.349	19871
892.471	19753
892.594	19856
892.717	19788
892.839	19894
892.962	19959
893.085	19902
893.207	19906
893.33	19677
893.452	19712
893.575	19906
893.697	19875
893.819	20020
893.941	20077
894.064	19955
894.186	19814
894.308	19898
894.43	19921
894.552	20077
894.674	19951
894.796	19822
894.918	19742
895.04	19742
895.161	19814
895.283	19822
895.405	19788
895.526	19875
895.648	19826
895.769	19906
895.891	19780
896.012	19883
896.134	19887
896.255	19871
896.376	19822
896.498	19791
896.619	19917
896.74	19822
896.861	19871
896.982	20183
897.103	20244
897.224	20145
897.345	20062
897.466	20195
897.587	20043
897.708	20176
897.828	20153
897.949	19978
898.07	19826
898.19	19944
898.311	20100
898.431	20001
898.552	19989
898.672	20073
898.792	20138
898.913	19967
899.033	19921
899.153	19890
899.273	19811
899.393	19746
899.513	19864
899.633	19887
899.753	19753
899.873	19791
899.993	19852
900.113	19776
900.232	19761
900.352	19791
900.472	19594
900.591	19529
900.711	19624
900.83	19563
900.95	19704
901.069	19746
901.189	19514
901.308	19221
901.427	19209
901.546	19221
901.665	19225
901.784	19145
901.904	19122
902.023	18928
902.141	18738
902.26	18703
902.379	18810
902.498	18776
902.617	18684
902.735	18814
902.854	18703
902.973	18665
903.091	18399
903.21	18426
903.328	18422
903.446	18308
903.565	18125
903.683	18110
903.801	18136
903.919	18083
904.038	18068
904.156	17889
904.274	18007
904.392	18064
904.51	17954
904.627	17878
904.745	18057
904.863	17946
904.981	17798
905.098	17653
905.216	17649
905.334	17748
905.451	17634
905.569	17551
905.686	17589
905.803	17619
905.921	17467
906.038	17528
906.155	17360
906.272	17280
906.389	17353
906.506	17250
906.623	17220
906.74	17212
906.857	17136
906.974	17105
907.091	17185
907.208	17406
907.324	17181
907.441	17090
907.557	16953
907.674	16911
907.79	16839
907.907	16889
908.023	16885
908.139	16892
908.256	16809
908.372	16809
908.488	16694
908.604	16702
908.72	16607
908.836	16691
908.952	16535
909.068	16683
909.184	16774
909.3	16577
909.415	16710
909.531	16588
909.647	16348
909.762	16268
909.878	16318
909.993	16333
910.108	16291
910.224	16192
910.339	16337
910.454	16200
910.57	16101
910.685	16071
910.8	16352
910.915	16303
911.03	16150
911.145	16017
911.259	15861
911.374	15945
911.489	15838
911.604	15873
911.718	15686
911.833	15595
911.947	15545
912.062	15473
912.176	15595
912.291	15694
912.405	15606
912.519	15823
912.633	15819
912.748	15720
912.862	15622
912.976	15534
913.09	15382
913.204	15511
913.318	15443
913.431	15542
913.545	15599
913.659	15614
913.772	15481
913.886	15374
914	15203
914.113	15310
914.226	15393
914.34	15359
914.453	15230
914.566	15249
914.68	15138
914.793	15195
914.906	14925
915.019	14868
915.132	14830
915.245	14872
915.358	14952
915.47	15020
915.583	14910
915.696	15047
915.809	14914
915.921	14941
916.034	14853
916.146	14857
916.259	14819
916.371	14861
916.483	14731
916.595	14762
916.708	14720
916.82	14807
916.932	14724
917.044	14750
917.156	14651
917.268	14545
917.38	14495
917.491	14514
917.603	14606
917.715	14613
917.826	14674
917.938	14587
918.049	14533
918.161	14507
918.272	14579
918.384	14651
918.495	14522
918.606	14351
918.717	14237
918.828	14404
918.939	14412
919.05	14240
919.161	14259
919.272	14119
919.383	14176
919.494	14328
919.604	14526
919.715	14389
919.826	14123
919.936	14320
920.047	14286
920.157	14332
920.267	14499
920.378	14221
920.488	14332
920.598	14465
920.708	14594
920.818	14495
920.928	14442
921.038	14571
921.148	14575
921.258	14271
921.368	14176
921.477	14145
921.587	14107
921.697	13830
921.806	14073
921.916	13864
922.025	13765
922.134	13700
922.244	13597
922.353	13727
922.462	13613
922.571	13571
922.68	13365
922.789	13327
922.898	13263
923.007	13278
923.116	13297
923.224	13396
923.333	13312
923.442	13247
923.55	13080
923.659	13255
923.767	13183
923.876	13149
923.984	13206
924.092	13084
924.201	13110
924.309	13015
924.417	13194
924.525	12981
924.633	12985
924.741	13784
924.849	12852
924.956	12943
925.064	12856
925.172	12692
925.279	12814
925.387	12749
925.494	12779
925.602	12951
925.709	12840
925.816	12665
925.924	12787
926.031	12852
926.138	12711
926.245	12734
926.352	12536
926.459	12700
926.566	12806
926.673	12486
926.779	12475
926.886	12460
926.993	12350
927.099	12395
927.206	12300
927.312	12289
927.419	12323
927.525	12266
927.631	12330
927.737	12285
927.843	12175
927.95	12049
928.056	12152
928.162	12186
928.267	12110
928.373	12673
928.479	12228
928.585	11954
928.69	12114
928.796	12083
928.901	12038
929.007	11946
929.112	11999
929.218	11942
929.323	11882
929.428	11882
929.533	12072
929.638	11824
929.743	11764
929.848	11908
929.953	11908
930.058	11688
930.163	11524
930.267	11592
930.372	11707
930.477	11554
930.581	11771
930.685	11718
930.79	11421
930.894	11520
930.998	11474
931.103	11516
931.207	11246
931.311	11098
931.415	11045
931.519	10968
931.623	10892
