Data from test_V78500241_2469.txt Node
Date: Fri Mar 25 15:27:03 CST 2022
User: usil
Spectrometer: V785-0024
Trigger mode: 0
Integration Time (sec): 4.000000E-1
Scans to average: 1
Nonlinearity correction enabled: false
Boxcar width: 0
Storing dark spectrum: false
XAxis mode: Wavelengths
Number of Pixels in Spectrum: 1024
>>>>>Begin Spectral Data<<<<<
801.071	27127
801.214	26811
801.356	26632
801.499	26720
801.641	26583
801.783	26438
801.926	26613
802.068	26583
802.211	26374
802.353	26286
802.496	26286
802.638	26142
802.78	26244
802.923	26050
803.065	26020
803.208	25986
803.35	26191
803.492	26263
803.635	26282
803.777	26218
803.919	26358
804.061	26727
804.204	26339
804.346	26244
804.488	26210
804.63	26362
804.773	26282
804.915	26412
805.057	26412
805.199	26259
805.341	26263
805.483	26317
805.626	26408
805.768	26358
805.91	26317
806.052	26419
806.194	26324
806.336	26495
806.478	26412
806.62	26298
806.762	26503
806.904	26655
807.046	26929
807.188	26777
807.33	26807
807.472	26781
807.614	26678
807.756	26834
807.898	26629
808.04	26617
808.182	26579
808.324	26686
808.465	26659
808.607	26785
808.749	26952
808.891	27108
809.033	27173
809.174	27131
809.316	26937
809.458	27020
809.6	26830
809.741	27085
809.883	27127
810.025	27336
810.166	27256
810.308	27355
810.45	27157
810.591	27241
810.733	26891
810.875	26880
811.016	26891
811.158	26914
811.299	27222
811.441	27199
811.582	27146
811.724	27127
811.865	26940
812.007	26925
812.148	26921
812.29	26956
812.431	27131
812.573	27317
812.714	27367
812.855	27458
812.997	27545
813.138	27759
813.279	27568
813.421	27466
813.562	27500
813.703	27256
813.845	27245
813.986	26956
814.127	26815
814.268	26758
814.41	26640
814.551	26564
814.692	26659
814.833	26530
814.974	26606
815.115	26701
815.256	26514
815.397	26503
815.539	26385
815.68	26453
815.821	26290
815.962	26393
816.103	26389
816.244	26183
816.385	26252
816.526	26134
816.666	25944
816.807	25890
816.948	25875
817.089	25921
817.23	25845
817.371	25772
817.512	25879
817.653	25746
817.793	25750
817.934	25887
818.075	25890
818.216	25871
818.356	25902
818.497	25883
818.638	25651
818.778	25544
818.919	25704
819.06	25635
819.2	25742
819.341	25959
819.481	25932
819.622	26164
819.762	26275
819.903	26119
820.043	25989
820.184	26096
820.324	25906
820.465	25890
820.605	26024
820.746	25841
820.886	25719
821.026	26050
821.167	26016
821.307	26050
821.447	25928
821.588	25913
821.728	25731
821.868	25422
822.008	25358
822.149	25350
822.289	25282
822.429	25133
822.569	25034
822.709	24958
822.849	24928
822.99	24833
823.13	24844
823.27	24798
823.41	24677
823.55	24505
823.69	24730
823.83	24700
823.97	24597
824.11	24559
824.25	24376
824.389	24342
824.529	24540
824.669	24544
824.809	24566
824.949	24544
825.089	24471
825.228	24475
825.368	24353
825.508	24346
825.648	24304
825.787	24292
825.927	24372
826.067	24361
826.206	24388
826.346	24502
826.485	24479
826.625	24422
826.765	24452
826.904	24433
827.044	24049
827.183	24174
827.323	24155
827.462	24197
827.601	24007
827.741	23958
827.88	24072
828.02	23973
828.159	23916
828.298	24194
828.437	23996
828.577	24072
828.716	24072
828.855	23950
828.994	23707
829.134	23817
829.273	23646
829.412	23802
829.551	23623
829.69	23790
829.829	23790
829.968	23882
830.107	23874
830.246	23741
830.385	23710
830.524	23604
830.663	23657
830.802	23501
830.941	23410
831.08	23265
831.219	23482
831.357	23341
831.496	23668
831.635	23524
831.774	23315
831.913	23277
832.051	23010
832.19	23200
832.329	23239
832.467	23132
832.606	22866
832.744	23029
832.883	23014
833.022	22991
833.16	23006
833.299	23136
833.437	23170
833.576	23064
833.714	23140
833.852	23071
833.991	23086
834.129	23280
834.267	23299
834.406	23140
834.544	23075
834.682	23117
834.821	23151
834.959	23402
835.097	22957
835.235	23128
835.373	23060
835.511	23140
835.65	22881
835.788	22999
835.926	22873
836.064	22824
836.202	22877
836.34	23010
836.478	22972
836.615	23056
836.753	23006
836.891	23083
837.029	23029
837.167	22946
837.305	22972
837.443	22923
837.58	22869
837.718	22866
837.856	22835
837.993	22694
838.131	22816
838.269	22538
838.406	22820
838.544	22786
838.681	22504
838.819	22470
838.956	22295
839.094	22329
839.231	22337
839.369	22500
839.506	22660
839.643	22561
839.781	22280
839.918	22158
840.055	22265
840.193	22295
840.33	22246
840.467	22188
840.604	22356
840.742	22588
840.879	22204
841.016	22291
841.153	22067
841.29	22379
841.427	22280
841.564	22124
841.701	22257
841.838	22185
841.975	22185
842.112	22242
842.249	22204
842.385	22158
842.522	22230
842.659	22105
842.796	21949
842.933	22059
843.069	21949
843.206	21934
843.343	22112
843.479	22055
843.616	22067
843.752	21724
843.889	21823
844.025	21941
844.162	21713
844.298	21895
844.435	21762
844.571	21751
844.708	21789
844.844	21934
844.98	21979
845.117	21831
845.253	21709
845.389	21720
845.525	21823
845.661	21580
845.798	21576
845.934	21542
846.07	21447
846.206	21618
846.342	21618
846.478	21412
846.614	21317
846.75	21218
846.886	21249
847.022	21401
847.158	21272
847.294	21302
847.429	21283
847.565	21226
847.701	21420
847.837	21028
847.972	20971
848.108	21013
848.244	21176
848.379	20781
848.515	20811
848.65	20819
848.786	20918
848.921	20975
849.057	20990
849.192	21005
849.328	20948
849.463	20845
849.598	20845
849.734	20667
849.869	20834
850.004	20655
850.14	20621
850.275	20629
850.41	20503
850.545	20590
850.68	20530
850.815	20583
850.95	20663
851.085	20777
851.22	20746
851.355	20701
851.49	20613
851.625	20670
851.76	20636
851.895	20678
852.03	20564
852.165	20693
852.299	20651
852.434	20632
852.569	20708
852.703	20682
852.838	20678
852.973	20746
853.107	20693
853.242	20609
853.376	20408
853.511	20332
853.645	20427
853.78	20632
853.914	20461
854.048	20396
854.183	20434
854.317	20480
854.451	20632
854.585	20556
854.72	20473
854.854	20476
854.988	20343
855.122	20594
855.256	20377
855.39	20408
855.524	20564
855.658	20484
855.792	20499
855.926	20393
856.06	20556
856.194	20579
856.327	20526
856.461	20339
856.595	20393
856.729	20377
856.862	20579
856.996	20533
857.13	20602
857.263	20549
857.397	20431
857.53	20518
857.664	20393
857.797	20488
857.931	20594
858.064	20450
858.197	20621
858.331	20389
858.464	20366
858.597	20313
858.731	20518
858.864	20518
858.997	20450
859.13	20415
859.263	20446
859.396	20465
859.529	20412
859.662	20415
859.795	20412
859.928	20393
860.061	20488
860.194	20727
860.327	20423
860.46	20488
860.592	20682
860.725	20575
860.858	20568
860.99	20385
861.123	20514
861.256	20393
861.388	20454
861.521	20956
861.653	20298
861.786	20298
861.918	20259
862.05	20362
862.183	20370
862.315	20355
862.447	20507
862.58	20278
862.712	20134
862.844	20183
862.976	20278
863.108	20263
863.24	20651
863.372	20088
863.504	20161
863.636	20138
863.768	20309
863.9	20183
864.032	20100
864.164	19982
864.296	20096
864.428	20271
864.559	20180
864.691	20313
864.823	20062
864.954	20180
865.086	20088
865.217	20092
865.349	20020
865.48	20088
865.612	20138
865.743	20161
865.875	20149
866.006	20054
866.137	20096
866.269	20100
866.4	20115
866.531	20092
866.662	20008
866.793	20164
866.924	20016
867.055	19898
867.186	20088
867.317	20092
867.448	19868
867.579	19898
867.71	20024
867.841	19959
867.972	20058
868.103	20012
868.233	19955
868.364	20058
868.495	20164
868.625	20374
868.756	20275
868.886	20138
869.017	20252
869.147	20366
869.278	20412
869.408	20374
869.539	20332
869.669	20290
869.799	20355
869.929	20347
870.06	20412
870.19	20530
870.32	20541
870.45	20549
870.58	20663
870.71	20724
870.84	20819
870.97	20765
871.1	20682
871.23	20750
871.36	20765
871.489	20792
871.619	20891
871.749	20807
871.879	20857
872.008	20887
872.138	20887
872.267	20929
872.397	20781
872.526	20556
872.656	20785
872.785	20716
872.915	20857
873.044	20811
873.173	21017
873.303	20994
873.432	20895
873.561	20948
873.69	20952
873.819	20918
873.948	20967
874.077	20857
874.206	20785
874.335	20944
874.464	20960
874.593	21272
874.722	21039
874.851	21161
874.979	21161
875.108	21116
875.237	21104
875.365	21043
875.494	21096
875.623	21131
875.751	21062
875.88	21123
876.008	21268
876.136	21351
876.265	21454
876.393	21766
876.521	21648
876.65	21686
876.778	21504
876.906	21462
877.034	21564
877.162	21504
877.29	21355
877.418	21386
877.546	21439
877.674	21473
877.802	21477
877.93	21393
878.058	21435
878.185	21374
878.313	21431
878.441	21481
878.568	21302
878.696	21435
878.824	21462
878.951	21587
879.079	21603
879.206	21827
879.333	21694
879.461	21492
879.588	21633
879.715	21599
879.842	21720
879.97	21504
880.097	21408
880.224	21214
880.351	21389
880.478	21332
880.605	21279
880.732	21336
880.859	21576
880.986	21287
881.112	21291
881.239	21142
881.366	21127
881.493	20979
881.619	20864
881.746	20952
881.872	21039
881.999	20967
882.125	20872
882.252	20853
882.378	20952
882.505	21074
882.631	20750
882.757	20640
882.883	20727
883.01	20606
883.136	20602
883.262	20461
883.388	20412
883.514	20754
883.64	20648
883.766	20594
883.892	20400
884.018	20492
884.143	20495
884.269	20678
884.395	20256
884.52	20309
884.646	20324
884.772	20145
884.897	20180
885.023	20328
885.148	20377
885.274	20396
885.399	20301
885.524	20294
885.65	20320
885.775	20237
885.9	20275
886.025	20275
886.15	20244
886.275	20317
886.4	20172
886.525	20271
886.65	20290
886.775	20210
886.9	20389
887.025	20339
887.149	20187
887.274	20035
887.399	20046
887.523	20100
887.648	20031
887.773	19963
887.897	20111
888.021	20043
888.146	20008
888.27	20180
888.395	20180
888.519	20103
888.643	19917
888.767	20096
888.891	20103
889.015	19913
889.139	19917
889.263	19871
889.387	20115
889.511	20107
889.635	19868
889.759	19940
889.883	19772
890.006	19875
890.13	19963
890.254	19719
890.377	19738
890.501	19651
890.624	19563
890.748	19586
890.871	19411
890.995	19472
891.118	19396
891.241	19381
891.364	19419
891.488	19460
891.611	19438
891.734	19293
891.857	19472
891.98	19419
892.103	19457
892.226	19449
892.349	19339
892.471	19175
892.594	19400
892.717	19316
892.839	19289
892.962	19301
893.085	19350
893.207	19358
893.33	19228
893.452	19145
893.575	19411
893.697	19369
893.819	19388
893.941	19556
894.064	19480
894.186	19343
894.308	19301
894.43	19335
894.552	19438
894.674	19400
894.796	19308
894.918	19377
895.04	19312
895.161	19388
895.283	19354
895.405	19221
895.526	19365
895.648	19308
895.769	19384
895.891	19480
896.012	19350
896.134	19476
896.255	19419
896.376	19206
896.498	19274
896.619	19255
896.74	19377
896.861	19373
896.982	19647
897.103	19822
897.224	19655
897.345	19594
897.466	19422
897.587	19639
897.708	19693
897.828	19685
897.949	19556
898.07	19415
898.19	19468
898.311	19712
898.431	19563
898.552	19571
898.672	19662
898.792	19742
898.913	19590
899.033	19480
899.153	19449
899.273	19270
899.393	19388
899.513	19339
899.633	19419
899.753	19365
899.873	19274
899.993	19381
900.113	19274
900.232	19282
900.352	19221
900.472	19103
900.591	19118
900.711	19187
900.83	19072
900.95	19225
901.069	19202
901.189	19034
901.308	18859
901.427	18734
901.546	18757
901.665	18856
901.784	18837
901.904	18658
902.023	18574
902.141	18338
902.26	18350
902.379	18262
902.498	18129
902.617	18228
902.735	18292
902.854	18194
902.973	18190
903.091	17961
903.21	18041
903.328	17832
903.446	17836
903.565	17745
903.683	17695
903.801	17695
903.919	17615
904.038	17661
904.156	17585
904.274	17585
904.392	17543
904.51	17448
904.627	17452
904.745	17543
904.863	17486
904.981	17364
905.098	17258
905.216	17258
905.334	17284
905.451	17280
905.569	17143
905.686	17174
905.803	17318
905.921	17010
906.038	17045
906.155	17052
906.272	16911
906.389	16881
906.506	16740
906.623	16710
906.74	16729
906.857	16710
906.974	16630
907.091	16771
907.208	16873
907.324	16820
907.441	16668
907.557	16527
907.674	16455
907.79	16421
907.907	16493
908.023	16428
908.139	16459
908.256	16371
908.372	16447
908.488	16272
908.604	16230
908.72	16234
908.836	16181
908.952	15998
909.068	16207
909.184	16329
909.3	16166
909.415	16219
909.531	16116
909.647	16025
909.762	15941
909.878	15895
909.993	15911
910.108	15934
910.224	15884
910.339	15846
910.454	15762
910.57	15751
910.685	15622
910.8	15949
910.915	15812
911.03	15637
911.145	15599
911.259	15507
911.374	15545
911.489	15458
911.604	15424
911.718	15306
911.833	15340
911.947	15279
912.062	15207
912.176	15363
912.291	15317
912.405	15359
912.519	15450
912.633	15458
912.748	15302
912.862	15294
912.976	15047
913.09	15024
913.204	15074
913.318	15165
913.431	15150
913.545	15123
913.659	15100
913.772	15100
913.886	14975
914	14830
914.113	14929
914.226	14963
914.34	14918
914.453	14781
914.566	14979
914.68	14826
914.793	14731
914.906	14610
915.019	14446
915.132	14473
915.245	14484
915.358	14457
915.47	14511
915.583	14495
915.696	14415
915.809	14606
915.921	14598
916.034	14503
916.146	14381
916.259	14374
916.371	14473
916.483	14408
916.595	14465
916.708	14355
916.82	14385
916.932	14286
917.044	14332
917.156	14328
917.268	14164
917.38	14183
917.491	14259
917.603	14145
917.715	14199
917.826	14107
917.938	14149
918.049	14035
918.161	14145
918.272	14286
918.384	14275
918.495	14046
918.606	13925
918.717	13890
918.828	13921
918.939	13978
919.05	13864
919.161	13932
919.272	13666
919.383	13799
919.494	13982
919.604	14050
919.715	13951
919.826	13879
919.936	13868
920.047	14005
920.157	13944
920.267	14103
920.378	13959
920.488	13898
920.598	14111
920.708	14164
920.818	14168
920.928	14069
921.038	14248
921.148	14145
921.258	13833
921.368	13784
921.477	13689
921.587	13704
921.697	13609
921.806	13624
921.916	13556
922.025	13346
922.134	13301
922.244	13297
922.353	13514
922.462	13175
922.571	13088
922.68	13053
922.789	12989
922.898	13008
923.007	12867
923.116	13076
923.224	12954
923.333	13004
923.442	12798
923.55	12798
923.659	12848
923.767	12848
923.876	12730
923.984	12863
924.092	12715
924.201	12703
924.309	12806
924.417	12692
924.525	12684
924.633	12760
924.741	13563
924.849	12456
924.956	12623
925.064	12388
925.172	12418
925.279	12410
925.387	12544
925.494	12486
925.602	12502
925.709	12429
925.816	12334
925.924	12323
926.031	12448
926.138	12346
926.245	12380
926.352	12304
926.459	12437
926.566	12445
926.673	12300
926.779	12148
926.886	12155
926.993	12057
927.099	12159
927.206	12034
927.312	11996
927.419	12007
927.525	12053
927.631	12060
927.737	11893
927.843	11927
927.95	11786
928.056	11874
928.162	11798
928.267	11847
928.373	12475
928.479	11893
928.585	11646
928.69	11748
928.796	11847
928.901	11668
929.007	11528
929.112	11745
929.218	11684
929.323	11604
929.428	11608
929.533	11714
929.638	11471
929.743	11490
929.848	11623
929.953	11539
930.058	11387
930.163	11299
930.267	11311
930.372	11482
930.477	11220
930.581	11440
930.685	11303
930.79	11151
930.894	11242
930.998	11159
931.103	11235
931.207	11003
931.311	10797
931.415	10763
931.519	10523
931.623	10565
