Data from test_V78500241_626.txt Node
Date: Fri Mar 25 15:14:13 CST 2022
User: usil
Spectrometer: V785-0024
Trigger mode: 0
Integration Time (sec): 4.000000E-1
Scans to average: 1
Nonlinearity correction enabled: false
Boxcar width: 0
Storing dark spectrum: false
XAxis mode: Wavelengths
Number of Pixels in Spectrum: 1024
>>>>>Begin Spectral Data<<<<<
801.071	27854
801.214	27705
801.356	27450
801.499	27435
801.641	27302
801.783	27439
801.926	27488
802.068	27344
802.211	27222
802.353	27241
802.496	27020
802.638	27009
802.78	27119
802.923	27184
803.065	26868
803.208	26849
803.35	26994
803.492	27036
803.635	27123
803.777	27005
803.919	27142
804.061	27336
804.204	27161
804.346	27180
804.488	27127
804.63	27112
804.773	27116
804.915	27192
805.057	27184
805.199	27116
805.341	27233
805.483	27348
805.626	27359
805.768	27028
805.91	27332
806.052	27332
806.194	27294
806.336	27462
806.478	27427
806.62	27252
806.762	27431
806.904	27447
807.046	27770
807.188	27625
807.33	27644
807.472	27827
807.614	27641
807.756	27663
807.898	27469
808.04	27450
808.182	27424
808.324	27523
808.465	27583
808.607	27812
808.749	27793
808.891	27873
809.033	28021
809.174	28013
809.316	27854
809.458	27968
809.6	27873
809.741	28067
809.883	28147
810.025	28299
810.166	28173
810.308	28246
810.45	28139
810.591	28192
810.733	27960
810.875	27835
811.016	27793
811.158	27812
811.299	27991
811.441	28055
811.582	28067
811.724	27850
811.865	27865
812.007	27876
812.148	27964
812.29	27945
812.431	28025
812.573	28261
812.714	28394
812.855	28493
812.997	28519
813.138	28755
813.279	28577
813.421	28493
813.562	28573
813.703	28356
813.845	28112
813.986	27911
814.127	27694
814.268	27583
814.41	27713
814.551	27568
814.692	27595
814.833	27545
814.974	27667
815.115	27686
815.256	27538
815.397	27485
815.539	27496
815.68	27481
815.821	27492
815.962	27359
816.103	27374
816.244	27256
816.385	27249
816.526	27127
816.666	27020
816.807	26887
816.948	26933
817.089	26986
817.23	26948
817.371	26906
817.512	26819
817.653	26872
817.793	26895
817.934	26872
818.075	26773
818.216	26956
818.356	27020
818.497	26781
818.638	26556
818.778	26705
818.919	26686
819.06	26697
819.2	26857
819.341	26986
819.481	26967
819.622	27020
819.762	27169
819.903	27127
820.043	27077
820.184	27085
820.324	26979
820.465	27089
820.605	26982
820.746	26910
820.886	26861
821.026	26952
821.167	26883
821.307	27085
821.447	26906
821.588	26918
821.728	26735
821.868	26503
822.008	26343
822.149	26313
822.289	26351
822.429	26138
822.569	26039
822.709	26050
822.849	25947
822.99	25951
823.13	25734
823.27	25875
823.41	25757
823.55	25620
823.69	25807
823.83	25632
823.97	25734
824.11	25400
824.25	25540
824.389	25525
824.529	25662
824.669	25632
824.809	25674
824.949	25624
825.089	25559
825.228	25506
825.368	25529
825.508	25479
825.648	25411
825.787	25449
825.927	25491
826.067	25369
826.206	25403
826.346	25266
826.485	25506
826.625	25285
826.765	25609
826.904	25499
827.044	25244
827.183	25084
827.323	25034
827.462	25171
827.601	25251
827.741	25114
827.88	25015
828.02	25019
828.159	25091
828.298	25232
828.437	25183
828.577	25061
828.716	24966
828.855	24970
828.994	24825
829.134	24840
829.273	24837
829.412	24684
829.551	24795
829.69	24901
829.829	24840
829.968	24916
830.107	24890
830.246	24696
830.385	24913
830.524	24700
830.663	24639
830.802	24475
830.941	24308
831.08	24403
831.219	24528
831.357	24563
831.496	24642
831.635	24353
831.774	24437
831.913	24334
832.051	24342
832.19	24213
832.329	24076
832.467	24136
832.606	23980
832.744	24060
832.883	24121
833.022	24072
833.16	24144
833.299	24053
833.437	24064
833.576	24159
833.714	24190
833.852	24197
833.991	24239
834.129	24270
834.267	24239
834.406	24213
834.544	24247
834.682	24144
834.821	24205
834.959	24513
835.097	24079
835.235	24144
835.373	24239
835.511	24022
835.65	24003
835.788	24110
835.926	23878
836.064	23828
836.202	23809
836.34	24003
836.478	24049
836.615	24152
836.753	24011
836.891	24117
837.029	23859
837.167	23897
837.305	23817
837.443	23889
837.58	23817
837.718	23916
837.856	23870
837.993	23802
838.131	23984
838.269	23783
838.406	23767
838.544	23699
838.681	23455
838.819	23402
838.956	23246
839.094	23307
839.231	23353
839.369	23554
839.506	23672
839.643	23429
839.781	23280
839.918	23200
840.055	23368
840.193	23269
840.33	23181
840.467	23162
840.604	23379
840.742	23410
840.879	23025
841.016	23060
841.153	23178
841.29	23322
841.427	23250
841.564	23242
841.701	23143
841.838	23083
841.975	23143
842.112	23124
842.249	23071
842.385	22866
842.522	23178
842.659	23037
842.796	23033
842.933	22991
843.069	22984
843.206	22881
843.343	22987
843.479	22980
843.616	23060
843.752	22717
843.889	22763
844.025	22965
844.162	22763
844.298	22877
844.435	22828
844.571	22755
844.708	22934
844.844	22957
844.98	22835
845.117	22850
845.253	22687
845.389	22736
845.525	22535
845.661	22626
845.798	22394
845.934	22588
846.07	22531
846.206	22615
846.342	22672
846.478	22596
846.614	22371
846.75	22204
846.886	22249
847.022	22363
847.158	22196
847.294	22257
847.429	22268
847.565	22166
847.701	22424
847.837	21987
847.972	21918
848.108	22059
848.244	22063
848.379	21960
848.515	21797
848.65	21778
848.786	21762
848.921	21778
849.057	21819
849.192	21911
849.328	21850
849.463	21827
849.598	21720
849.734	21667
849.869	21648
850.004	21492
850.14	21614
850.275	21595
850.41	21557
850.545	21526
850.68	21641
850.815	21564
850.95	21549
851.085	21736
851.22	21534
851.355	21667
851.49	21507
851.625	21504
851.76	21530
851.895	21431
852.03	21466
852.165	21405
852.299	21583
852.434	21656
852.569	21568
852.703	21561
852.838	21637
852.973	21709
853.107	21595
853.242	21496
853.376	21591
853.511	21435
853.645	21370
853.78	21580
853.914	21378
854.048	21367
854.183	21355
854.317	21424
854.451	21519
854.585	21355
854.72	21302
854.854	21534
854.988	21408
855.122	21306
855.256	21260
855.39	21542
855.524	21428
855.658	21462
855.792	21313
855.926	21340
856.06	21466
856.194	21526
856.327	21355
856.461	21344
856.595	21264
856.729	21370
856.862	21447
856.996	21412
857.13	21606
857.263	21526
857.397	21530
857.53	21504
857.664	21336
857.797	21530
857.931	21549
858.064	21458
858.197	21511
858.331	21386
858.464	21287
858.597	21233
858.731	21306
858.864	21408
858.997	21473
859.13	21355
859.263	21306
859.396	21526
859.529	21363
859.662	21249
859.795	21336
859.928	21405
860.061	21553
860.194	21549
860.327	21424
860.46	21424
860.592	21469
860.725	21492
860.858	21580
860.99	21447
861.123	21291
861.256	21344
861.388	21401
861.521	22055
861.653	21363
861.786	21176
861.918	21237
862.05	21302
862.183	21306
862.315	21279
862.447	21397
862.58	21329
862.712	21142
862.844	21043
862.976	21226
863.108	21005
863.24	21603
863.372	20967
863.504	21188
863.636	21116
863.768	21256
863.9	21047
864.032	21077
864.164	21089
864.296	21154
864.428	21313
864.559	21077
864.691	21203
864.823	20998
864.954	21173
865.086	21096
865.217	21066
865.349	20921
865.48	20925
865.612	20986
865.743	21142
865.875	21058
866.006	20941
866.137	21051
866.269	21081
866.4	20990
866.531	21009
866.662	20960
866.793	21017
866.924	21047
867.055	20937
867.186	20963
867.317	20952
867.448	20937
867.579	20956
867.71	20849
867.841	20826
867.972	20895
868.103	21070
868.233	20765
868.364	20918
868.495	21085
868.625	21142
868.756	21245
868.886	21051
869.017	21252
869.147	21283
869.278	21275
869.408	21211
869.539	21131
869.669	21363
869.799	21294
869.929	21310
870.06	21348
870.19	21466
870.32	21454
870.45	21534
870.58	21595
870.71	21660
870.84	21656
870.97	21473
871.1	21648
871.23	21762
871.36	21785
871.489	21717
871.619	21816
871.749	21785
871.879	21797
872.008	21876
872.138	21854
872.267	21713
872.397	21530
872.526	21595
872.656	21580
872.785	21641
872.915	21705
873.044	21804
873.173	21739
873.303	21766
873.432	21736
873.561	21857
873.69	21770
873.819	21808
873.948	21850
874.077	21808
874.206	21899
874.335	21766
874.464	21850
874.593	21991
874.722	21945
874.851	22074
874.979	22036
875.108	22124
875.237	21880
875.365	21816
875.494	21956
875.623	22013
875.751	21960
875.88	22067
876.008	22051
876.136	22226
876.265	22436
876.393	22523
876.521	22432
876.65	22455
876.778	22428
876.906	22363
877.034	22341
877.162	22394
877.29	22261
877.418	22333
877.546	22405
877.674	22318
877.802	22367
877.93	22379
878.058	22413
878.185	22154
878.313	22348
878.441	22462
878.568	22207
878.696	22325
878.824	22333
878.951	22500
879.079	22561
879.206	22569
879.333	22508
879.461	22386
879.588	22382
879.715	22500
879.842	22573
879.97	22413
880.097	22215
880.224	22268
880.351	22124
880.478	22211
880.605	22112
880.732	22188
880.859	22386
880.986	22188
881.112	22223
881.239	21964
881.366	21956
881.493	21812
881.619	21812
881.746	21717
881.872	21831
881.999	21728
882.125	21694
882.252	21850
882.378	21827
882.505	21732
882.631	21724
882.757	21458
882.883	21519
883.01	21488
883.136	21401
883.262	21272
883.388	21233
883.514	21466
883.64	21492
883.766	21340
883.892	21222
884.018	21298
884.143	21466
884.269	21481
884.395	21150
884.52	21039
884.646	21116
884.772	21017
884.897	20883
885.023	21009
885.148	21146
885.274	21138
885.399	21100
885.524	21100
885.65	21081
885.775	21104
885.9	20990
886.025	21180
886.15	21218
886.275	20990
886.4	20944
886.525	21161
886.65	21020
886.775	20933
886.9	21237
887.025	21279
887.149	21047
887.274	20982
887.399	20880
887.523	20933
887.648	20861
887.773	20773
887.897	20868
888.021	20994
888.146	20724
888.27	21009
888.395	20975
888.519	20952
888.643	20868
888.767	20876
888.891	20724
889.015	20598
889.139	20708
889.263	20556
889.387	20773
889.511	20891
889.635	20800
889.759	20651
889.883	20568
890.006	20670
890.13	20678
890.254	20579
890.377	20598
890.501	20442
890.624	20396
890.748	20438
890.871	20396
890.995	20252
891.118	20282
891.241	20309
891.364	20301
891.488	20278
891.611	20332
891.734	20248
891.857	20286
891.98	20267
892.103	20313
892.226	20210
892.349	20168
892.471	20065
892.594	20031
892.717	20240
892.839	20111
892.962	20024
893.085	20271
893.207	20092
893.33	19947
893.452	20122
893.575	20183
893.697	20202
893.819	20301
893.941	20434
894.064	20199
894.186	20107
894.308	20005
894.43	20210
894.552	20282
894.674	20214
894.796	19997
894.918	20122
895.04	20065
895.161	20138
895.283	20252
895.405	20020
895.526	20149
895.648	20172
895.769	20088
895.891	20199
896.012	20256
896.134	20164
896.255	20138
896.376	20020
896.498	20126
896.619	20298
896.74	20164
896.861	20218
896.982	20465
897.103	20488
897.224	20381
897.345	20362
897.466	20267
897.587	20374
897.708	20541
897.828	20301
897.949	20202
898.07	20199
898.19	20294
898.311	20362
898.431	20176
898.552	20324
898.672	20393
898.792	20488
898.913	20336
899.033	20305
899.153	20100
899.273	20065
899.393	20096
899.513	20164
899.633	20233
899.753	20065
899.873	19967
899.993	20054
900.113	19978
900.232	20039
900.352	20081
900.472	19932
900.591	19906
900.711	19887
900.83	19715
900.95	19894
901.069	20077
901.189	19772
901.308	19552
901.427	19510
901.546	19468
901.665	19453
901.784	19384
901.904	19415
902.023	19247
902.141	19023
902.26	19072
902.379	19076
902.498	18871
902.617	18966
902.735	18947
902.854	18897
902.973	18897
903.091	18711
903.21	18658
903.328	18635
903.446	18521
903.565	18441
903.683	18448
903.801	18262
903.919	18399
904.038	18334
904.156	18224
904.274	18403
904.392	18186
904.51	18232
904.627	18121
904.745	18216
904.863	18258
904.981	17973
905.098	17935
905.216	17866
905.334	17901
905.451	17882
905.569	17870
905.686	17935
905.803	17889
905.921	17695
906.038	17805
906.155	17684
906.272	17539
906.389	17573
906.506	17528
906.623	17425
906.74	17379
906.857	17231
906.974	17402
907.091	17372
907.208	17589
907.324	17421
907.441	17322
907.557	17121
907.674	17022
907.79	17067
907.907	17090
908.023	17147
908.139	17124
908.256	17071
908.372	17170
908.488	17022
908.604	16881
908.72	16881
908.836	16885
908.952	16892
909.068	16828
909.184	17071
909.3	16862
909.415	16866
909.531	16805
909.647	16668
909.762	16675
909.878	16641
909.993	16634
910.108	16466
910.224	16447
910.339	16504
910.454	16466
910.57	16291
910.685	16291
910.8	16679
910.915	16569
911.03	16284
911.145	16169
911.259	16150
911.374	16147
911.489	16086
911.604	15956
911.718	15899
911.833	15850
911.947	15789
912.062	15789
912.176	15911
912.291	15766
912.405	15793
912.519	16086
912.633	16036
912.748	15911
912.862	15918
912.976	15705
913.09	15610
913.204	15682
913.318	15694
913.431	15793
913.545	15831
913.659	15793
913.772	15576
913.886	15584
914	15481
914.113	15622
914.226	15591
914.34	15515
914.453	15405
914.566	15534
914.68	15348
914.793	15408
914.906	15195
915.019	15169
915.132	15077
915.245	15051
915.358	15112
915.47	15173
915.583	15074
915.696	15131
915.809	15283
915.921	15260
916.034	14956
916.146	15131
916.259	15024
916.371	15123
916.483	15039
916.595	14921
916.708	14982
916.82	14891
916.932	14902
917.044	14857
917.156	14990
917.268	14727
917.38	14792
917.491	14804
917.603	14804
917.715	14853
917.826	14876
917.938	14769
918.049	14488
918.161	14670
918.272	14845
918.384	14773
918.495	14750
918.606	14621
918.717	14488
918.828	14583
918.939	14583
919.05	14473
919.161	14526
919.272	14404
919.383	14385
919.494	14670
919.604	14739
919.715	14454
919.826	14343
919.936	14400
920.047	14484
920.157	14556
920.267	14670
920.378	14495
920.488	14381
920.598	14705
920.708	14800
920.818	14727
920.928	14602
921.038	14800
921.148	14693
921.258	14431
921.368	14400
921.477	14290
921.587	14210
921.697	14126
921.806	14183
921.916	14043
922.025	13959
922.134	13951
922.244	13841
922.353	13791
922.462	13761
922.571	13731
922.68	13552
922.789	13575
922.898	13544
923.007	13533
923.116	13537
923.224	13518
923.333	13533
923.442	13388
923.55	13384
923.659	13316
923.767	13381
923.876	13293
923.984	13377
924.092	13335
924.201	13236
924.309	13232
924.417	13247
924.525	13232
924.633	13247
924.741	13944
924.849	12966
924.956	13088
925.064	12951
925.172	12867
925.279	12890
925.387	12966
925.494	12951
925.602	12970
925.709	12943
925.816	12897
925.924	12833
926.031	12905
926.138	12894
926.245	12958
926.352	12730
926.459	12977
926.566	12981
926.673	12806
926.779	12772
926.886	12711
926.993	12578
927.099	12494
927.206	12407
927.312	12441
927.419	12521
927.525	12544
927.631	12490
927.737	12342
927.843	12308
927.95	12205
928.056	12369
928.162	12350
928.267	12315
928.373	12958
928.479	12422
928.585	12171
928.69	12300
928.796	12243
928.901	12281
929.007	12041
929.112	12194
929.218	12079
929.323	12053
929.428	12057
929.533	12144
929.638	11965
929.743	12003
929.848	12091
929.953	11996
930.058	11805
930.163	11771
930.267	11809
930.372	11946
930.477	11619
930.581	11965
930.685	11729
930.79	11634
930.894	11608
930.998	11543
931.103	11722
931.207	11433
931.311	11288
931.415	11227
931.519	10995
931.623	10995
