Data from test_V78500241_2311.txt Node
Date: Fri Mar 25 15:25:57 CST 2022
User: usil
Spectrometer: V785-0024
Trigger mode: 0
Integration Time (sec): 4.000000E-1
Scans to average: 1
Nonlinearity correction enabled: false
Boxcar width: 0
Storing dark spectrum: false
XAxis mode: Wavelengths
Number of Pixels in Spectrum: 1024
>>>>>Begin Spectral Data<<<<<
801.071	27310
801.214	27203
801.356	27104
801.499	26811
801.641	26720
801.783	26655
801.926	26811
802.068	26891
802.211	26686
802.353	26560
802.496	26484
802.638	26537
802.78	26560
802.923	26199
803.065	26434
803.208	26438
803.35	26358
803.492	26537
803.635	26575
803.777	26492
803.919	26705
804.061	27039
804.204	26655
804.346	26606
804.488	26537
804.63	26530
804.773	26431
804.915	26564
805.057	26689
805.199	26594
805.341	26575
805.483	26644
805.626	26743
805.768	26727
805.91	26625
806.052	26773
806.194	26746
806.336	26861
806.478	26697
806.62	26811
806.762	26944
806.904	27058
807.046	27085
807.188	27100
807.33	27119
807.472	27222
807.614	27093
807.756	27058
807.898	27028
808.04	26902
808.182	26986
808.324	26940
808.465	26975
808.607	27173
808.749	27416
808.891	27329
809.033	27534
809.174	27443
809.316	27256
809.458	27272
809.6	27294
809.741	27420
809.883	27431
810.025	27564
810.166	27610
810.308	27705
810.45	27549
810.591	27519
810.733	27237
810.875	27279
811.016	27161
811.158	27135
811.299	27310
811.441	27447
811.582	27454
811.724	27226
811.865	27382
812.007	27287
812.148	27226
812.29	27340
812.431	27370
812.573	27633
812.714	27648
812.855	27789
812.997	27793
813.138	27945
813.279	28036
813.421	27701
813.562	27709
813.703	27568
813.845	27644
813.986	27222
814.127	27123
814.268	27017
814.41	27062
814.551	27013
814.692	26982
814.833	26891
814.974	26849
815.115	27036
815.256	26705
815.397	26872
815.539	26887
815.68	26743
815.821	26533
815.962	26804
816.103	26678
816.244	26514
816.385	26530
816.526	26453
816.666	26263
816.807	26256
816.948	26244
817.089	26317
817.23	26221
817.371	26298
817.512	26229
817.653	26180
817.793	26168
817.934	26191
818.075	26305
818.216	26347
818.356	26168
818.497	26103
818.638	25997
818.778	25993
818.919	25921
819.06	25902
819.2	26069
819.341	26130
819.481	26237
819.622	26328
819.762	26587
819.903	26495
820.043	26366
820.184	26412
820.324	26343
820.465	26434
820.605	26385
820.746	26301
820.886	26126
821.026	26294
821.167	26180
821.307	26309
821.447	26263
821.588	26046
821.728	26035
821.868	25765
822.008	25765
822.149	25734
822.289	25791
822.429	25628
822.569	25312
822.709	25312
822.849	25175
822.99	25171
823.13	25152
823.27	25072
823.41	25050
823.55	24985
823.69	24890
823.83	24992
823.97	25027
824.11	24817
824.25	24757
824.389	24673
824.529	24897
824.669	24852
824.809	24909
824.949	24886
825.089	24970
825.228	24878
825.368	24540
825.508	24654
825.648	24700
825.787	24639
825.927	24738
826.067	24616
826.206	24566
826.346	24650
826.485	24741
826.625	24726
826.765	24856
826.904	24677
827.044	24452
827.183	24452
827.323	24338
827.462	24490
827.601	24578
827.741	24395
827.88	24410
828.02	24220
828.159	24319
828.298	24380
828.437	24369
828.577	24327
828.716	24380
828.855	24292
828.994	24159
829.134	24247
829.273	24068
829.412	24053
829.551	24041
829.69	24011
829.829	24129
829.968	24060
830.107	24129
830.246	24152
830.385	24091
830.524	24022
830.663	23874
830.802	23809
830.941	23726
831.08	23741
831.219	23760
831.357	23638
831.496	23923
831.635	23699
831.774	23684
831.913	23554
832.051	23398
832.19	23486
832.329	23478
832.467	23490
832.606	23383
832.744	23292
832.883	23349
833.022	23330
833.16	23273
833.299	23429
833.437	23486
833.576	23414
833.714	23334
833.852	23455
833.991	23425
834.129	23562
834.267	23577
834.406	23615
834.544	23463
834.682	23345
834.821	23429
834.959	23676
835.097	23410
835.235	23539
835.373	23497
835.511	23353
835.65	23356
835.788	23372
835.926	23147
836.064	23033
836.202	23071
836.34	23193
836.478	23368
836.615	23151
836.753	23254
836.891	23292
837.029	23269
837.167	23204
837.305	23143
837.443	23216
837.58	23223
837.718	23174
837.856	23159
837.993	23064
838.131	23090
838.269	23018
838.406	22991
838.544	22999
838.681	22740
838.819	22774
838.956	22580
839.094	22508
839.231	22641
839.369	22782
839.506	22923
839.643	22797
839.781	22599
839.918	22554
840.055	22531
840.193	22538
840.33	22561
840.467	22622
840.604	22538
840.742	22793
840.879	22352
841.016	22432
841.153	22421
841.29	22546
841.427	22417
841.564	22519
841.701	22470
841.838	22440
841.975	22314
842.112	22424
842.249	22337
842.385	22268
842.522	22592
842.659	22348
842.796	22303
842.933	22303
843.069	22257
843.206	22268
843.343	22386
843.479	22303
843.616	22322
843.752	22036
843.889	22082
844.025	22238
844.162	22093
844.298	22211
844.435	22059
844.571	22036
844.708	22025
844.844	22181
844.98	22158
845.117	22082
845.253	22025
845.389	21778
845.525	21998
845.661	21941
845.798	21774
845.934	21892
846.07	21770
846.206	21789
846.342	21869
846.478	21747
846.614	21603
846.75	21534
846.886	21515
847.022	21625
847.158	21530
847.294	21408
847.429	21519
847.565	21564
847.701	21778
847.837	21116
847.972	21245
848.108	21393
848.244	21363
848.379	21230
848.515	21157
848.65	21138
848.786	21077
848.921	21142
849.057	21138
849.192	21161
849.328	21218
849.463	21036
849.598	21081
849.734	21039
849.869	20937
850.004	20842
850.14	20826
850.275	20948
850.41	20830
850.545	20834
850.68	20804
850.815	20902
850.95	20849
851.085	20960
851.22	20956
851.355	20971
851.49	20895
851.625	20838
851.76	20857
851.895	20792
852.03	20765
852.165	20746
852.299	20823
852.434	20921
852.569	20800
852.703	20785
852.838	20918
852.973	21032
853.107	20998
853.242	20792
853.376	20674
853.511	20697
853.645	20678
853.78	20823
853.914	20625
854.048	20659
854.183	20587
854.317	20750
854.451	20849
854.585	20682
854.72	20659
854.854	20689
854.988	20648
855.122	20708
855.256	20590
855.39	20705
855.524	20689
855.658	20796
855.792	20678
855.926	20739
856.06	20758
856.194	20796
856.327	20670
856.461	20590
856.595	20537
856.729	20731
856.862	20849
856.996	20686
857.13	20754
857.263	20762
857.397	20788
857.53	20804
857.664	20632
857.797	20765
857.931	20857
858.064	20807
858.197	20800
858.331	20697
858.464	20571
858.597	20651
858.731	20670
858.864	20754
858.997	20636
859.13	20712
859.263	20765
859.396	20781
859.529	20731
859.662	20613
859.795	20640
859.928	20727
860.061	20792
860.194	20918
860.327	20872
860.46	20788
860.592	20731
860.725	20914
860.858	20838
860.99	20758
861.123	20746
861.256	20571
861.388	20819
861.521	21389
861.653	20621
861.786	20465
861.918	20552
862.05	20663
862.183	20556
862.315	20613
862.447	20773
862.58	20587
862.712	20336
862.844	20305
862.976	20434
863.108	20541
863.24	20982
863.372	20374
863.504	20457
863.636	20358
863.768	20575
863.9	20336
864.032	20362
864.164	20434
864.296	20412
864.428	20495
864.559	20568
864.691	20385
864.823	20358
864.954	20434
865.086	20374
865.217	20419
865.349	20229
865.48	20381
865.612	20332
865.743	20442
865.875	20309
866.006	20347
866.137	20393
866.269	20351
866.4	20199
866.531	20309
866.662	20309
866.793	20214
866.924	20164
867.055	20202
867.186	20301
867.317	20202
867.448	20210
867.579	20225
867.71	20282
867.841	20172
867.972	20294
868.103	20206
868.233	20256
868.364	20267
868.495	20434
868.625	20473
868.756	20617
868.886	20412
869.017	20469
869.147	20663
869.278	20617
869.408	20476
869.539	20389
869.669	20533
869.799	20522
869.929	20545
870.06	20560
870.19	20895
870.32	20872
870.45	20918
870.58	20857
870.71	20960
870.84	21047
870.97	20880
871.1	20883
871.23	21066
871.36	21154
871.489	21024
871.619	21058
871.749	21077
871.879	21135
872.008	21207
872.138	21043
872.267	21051
872.397	20857
872.526	20948
872.656	20971
872.785	20998
872.915	21108
873.044	21184
873.173	21123
873.303	21142
873.432	21146
873.561	21176
873.69	21017
873.819	21096
873.948	21252
874.077	21127
874.206	21028
874.335	21089
874.464	21230
874.593	21473
874.722	21344
874.851	21428
874.979	21431
875.108	21428
875.237	21386
875.365	21207
875.494	21405
875.623	21447
875.751	21302
875.88	21462
876.008	21450
876.136	21507
876.265	21739
876.393	21835
876.521	21778
876.65	21865
876.778	21953
876.906	21682
877.034	21781
877.162	21728
877.29	21652
877.418	21690
877.546	21625
877.674	21614
877.802	21656
877.93	21667
878.058	21667
878.185	21751
878.313	21603
878.441	21652
878.568	21504
878.696	21656
878.824	21770
878.951	21747
879.079	21842
879.206	22124
879.333	21827
879.461	21717
879.588	21827
879.715	21968
879.842	21968
879.97	21755
880.097	21564
880.224	21549
880.351	21618
880.478	21511
880.605	21424
880.732	21481
880.859	21812
880.986	21606
881.112	21580
881.239	21492
881.366	21199
881.493	21222
881.619	21108
881.746	21116
881.872	21146
881.999	21085
882.125	20941
882.252	21241
882.378	21142
882.505	21218
882.631	20956
882.757	20872
882.883	20864
883.01	20845
883.136	20838
883.262	20640
883.388	20705
883.514	20762
883.64	20883
883.766	20708
883.892	20602
884.018	20651
884.143	20800
884.269	20823
884.395	20541
884.52	20431
884.646	20442
884.772	20434
884.897	20374
885.023	20438
885.148	20568
885.274	20636
885.399	20648
885.524	20377
885.65	20476
885.775	20385
885.9	20469
886.025	20587
886.15	20663
886.275	20419
886.4	20381
886.525	20465
886.65	20362
886.775	20423
886.9	20560
887.025	20686
887.149	20419
887.274	20218
887.399	20309
887.523	20362
887.648	20149
887.773	20134
887.897	20324
888.021	20225
888.146	20237
888.27	20339
888.395	20400
888.519	20404
888.643	20256
888.767	20332
888.891	20084
889.015	19982
889.139	20248
889.263	19963
889.387	20111
889.511	20180
889.635	20183
889.759	20050
889.883	20088
890.006	20115
890.13	20134
890.254	20005
890.377	20031
890.501	19757
890.624	19712
890.748	19871
890.871	19799
890.995	19681
891.118	19590
891.241	19628
891.364	19597
891.488	19613
891.611	19670
891.734	19677
891.857	19795
891.98	19594
892.103	19753
892.226	19544
892.349	19666
892.471	19457
892.594	19556
892.717	19590
892.839	19537
892.962	19727
893.085	19681
893.207	19575
893.33	19529
893.452	19472
893.575	19647
893.697	19502
893.819	19677
893.941	19772
894.064	19651
894.186	19502
894.308	19480
894.43	19655
894.552	19643
894.674	19590
894.796	19392
894.918	19525
895.04	19480
895.161	19597
895.283	19655
895.405	19499
895.526	19419
895.648	19590
895.769	19597
895.891	19590
896.012	19480
896.134	19586
896.255	19643
896.376	19548
896.498	19609
896.619	19552
896.74	19540
896.861	19533
896.982	19875
897.103	20035
897.224	19898
897.345	19757
897.466	19655
897.587	19719
897.708	19932
897.828	19830
897.949	19715
898.07	19544
898.19	19784
898.311	19830
898.431	19738
898.552	19795
898.672	19822
898.792	19811
898.913	19913
899.033	19734
899.153	19662
899.273	19487
899.393	19567
899.513	19571
899.633	19476
899.753	19586
899.873	19457
899.993	19613
900.113	19483
900.232	19594
900.352	19384
900.472	19415
900.591	19240
900.711	19320
900.83	19198
900.95	19487
901.069	19384
901.189	19221
901.308	19061
901.427	18890
901.546	18905
901.665	18958
901.784	18966
901.904	18867
902.023	18696
902.141	18513
902.26	18517
902.379	18525
902.498	18490
902.617	18422
902.735	18479
902.854	18361
902.973	18285
903.091	18243
903.21	18125
903.328	18083
903.446	18072
903.565	18011
903.683	18057
903.801	17893
903.919	17882
904.038	17836
904.156	17790
904.274	17824
904.392	17642
904.51	17642
904.627	17699
904.745	17745
904.863	17695
904.981	17501
905.098	17455
905.216	17296
905.334	17292
905.451	17360
905.569	17299
905.686	17280
905.803	17372
905.921	17174
906.038	17250
906.155	17102
906.272	17121
906.389	17075
906.506	16976
906.623	16961
906.74	16892
906.857	16793
906.974	16812
907.091	17018
907.208	17041
907.324	16991
907.441	16873
907.557	16733
907.674	16599
907.79	16546
907.907	16569
908.023	16698
908.139	16603
908.256	16573
908.372	16504
908.488	16531
908.604	16287
908.72	16382
908.836	16398
908.952	16280
909.068	16436
909.184	16405
909.3	16367
909.415	16440
909.531	16360
909.647	16154
909.762	16143
909.878	16124
909.993	15987
910.108	16093
910.224	15960
910.339	16025
910.454	15907
910.57	15812
910.685	15823
910.8	16090
910.915	16029
911.03	15804
911.145	15568
911.259	15675
911.374	15656
911.489	15656
911.604	15595
911.718	15401
911.833	15416
911.947	15321
912.062	15199
912.176	15329
912.291	15344
912.405	15336
912.519	15644
912.633	15557
912.748	15443
912.862	15405
912.976	15195
913.09	15146
913.204	15252
913.318	15260
913.431	15256
913.545	15435
913.659	15351
913.772	15203
913.886	15116
914	15097
914.113	15070
914.226	15146
914.34	15161
914.453	14895
914.566	14948
914.68	15024
914.793	15005
914.906	14785
915.019	14636
915.132	14686
915.245	14640
915.358	14693
915.47	14686
915.583	14697
915.696	14587
915.809	14731
915.921	14811
916.034	14541
916.146	14579
916.259	14560
916.371	14606
916.483	14530
916.595	14518
916.708	14488
916.82	14549
916.932	14454
917.044	14526
917.156	14507
917.268	14336
917.38	14336
917.491	14343
917.603	14324
917.715	14408
917.826	14351
917.938	14275
918.049	14233
918.161	14294
918.272	14396
918.384	14412
918.495	14336
918.606	14199
918.717	14081
918.828	14145
918.939	14138
919.05	14058
919.161	14012
919.272	13814
919.383	14016
919.494	14176
919.604	14290
919.715	14088
919.826	13951
919.936	14039
920.047	14134
920.157	14115
920.267	14218
920.378	14088
920.488	14058
920.598	14142
920.708	14347
920.818	14214
920.928	14259
921.038	14347
921.148	14374
921.258	14050
921.368	13982
921.477	13826
921.587	13818
921.697	13639
921.806	13841
921.916	13636
922.025	13658
922.134	13514
922.244	13411
922.353	13552
922.462	13381
922.571	13293
922.68	13244
922.789	13122
922.898	13118
923.007	13084
923.116	13145
923.224	13149
923.333	13076
923.442	13034
923.55	12973
923.659	12932
923.767	13050
923.876	12966
923.984	13069
924.092	12817
924.201	12970
924.309	12848
924.417	12840
924.525	12795
924.633	12779
924.741	13727
924.849	12601
924.956	12734
925.064	12662
925.172	12506
925.279	12582
925.387	12585
925.494	12570
925.602	12662
925.709	12555
925.816	12528
925.924	12532
926.031	12532
926.138	12486
926.245	12540
926.352	12376
926.459	12585
926.566	12669
926.673	12471
926.779	12262
926.886	12292
926.993	12194
927.099	12133
927.206	12133
927.312	12148
927.419	12178
927.525	12175
927.631	12235
927.737	12083
927.843	11996
927.95	11847
928.056	11984
928.162	12038
928.267	12045
928.373	12494
928.479	12095
928.585	11779
928.69	11908
928.796	11874
928.901	11836
929.007	11661
929.112	11809
929.218	11821
929.323	11752
929.428	11695
929.533	11847
929.638	11630
929.743	11710
929.848	11703
929.953	11634
930.058	11585
930.163	11364
930.267	11376
930.372	11520
930.477	11360
930.581	11547
930.685	11501
930.79	11303
930.894	11239
930.998	11341
931.103	11395
931.207	11052
931.311	10961
931.415	10892
931.519	10721
931.623	10683
