Data from test_V78500241_985.txt Node
Date: Fri Mar 25 15:16:43 CST 2022
User: usil
Spectrometer: V785-0024
Trigger mode: 0
Integration Time (sec): 4.000000E-1
Scans to average: 1
Nonlinearity correction enabled: false
Boxcar width: 0
Storing dark spectrum: false
XAxis mode: Wavelengths
Number of Pixels in Spectrum: 1024
>>>>>Begin Spectral Data<<<<<
801.071	28375
801.214	28253
801.356	27926
801.499	27937
801.641	27797
801.783	27778
801.926	27854
802.068	27812
802.211	27736
802.353	27831
802.496	27671
802.638	27523
802.78	27420
802.923	27481
803.065	27393
803.208	27450
803.35	27427
803.492	27618
803.635	27644
803.777	27599
803.919	27720
804.061	27991
804.204	27789
804.346	27557
804.488	27641
804.63	27701
804.773	27587
804.915	27728
805.057	27819
805.199	27603
805.341	27797
805.483	27846
805.626	27911
805.768	27713
805.91	27762
806.052	27865
806.194	27713
806.336	28082
806.478	28002
806.62	27914
806.762	27979
806.904	28173
807.046	28249
807.188	28337
807.33	28249
807.472	28268
807.614	28177
807.756	28169
807.898	28173
808.04	28188
808.182	28112
808.324	28120
808.465	28109
808.607	28303
808.749	28424
808.891	28565
809.033	28618
809.174	28656
809.316	28417
809.458	28379
809.6	28497
809.741	28592
809.883	28653
810.025	28869
810.166	28717
810.308	28862
810.45	28687
810.591	28797
810.733	28519
810.875	28413
811.016	28451
811.158	28447
811.299	28538
811.441	28535
811.582	28721
811.724	28470
811.865	28466
812.007	28660
812.148	28527
812.29	28580
812.431	28649
812.573	28824
812.714	29067
812.855	29048
812.997	29090
813.138	29239
813.279	29098
813.421	29117
813.562	29143
813.703	28828
813.845	28900
813.986	28561
814.127	28504
814.268	28325
814.41	28177
814.551	28211
814.692	28314
814.833	28097
814.974	28329
815.115	28295
815.256	28120
815.397	28070
815.539	28078
815.68	28013
815.821	27918
815.962	28059
816.103	28154
816.244	27922
816.385	27850
816.526	27937
816.666	27652
816.807	27515
816.948	27603
817.089	27679
817.23	27652
817.371	27648
817.512	27656
817.653	27538
817.793	27416
817.934	27564
818.075	27606
818.216	27682
818.356	27572
818.497	27530
818.638	27393
818.778	27317
818.919	27264
819.06	27298
819.2	27466
819.341	27477
819.481	27557
819.622	27679
819.762	27903
819.903	27838
820.043	27778
820.184	27751
820.324	27557
820.465	27785
820.605	27698
820.746	27652
820.886	27485
821.026	27641
821.167	27720
821.307	27698
821.447	27599
821.588	27504
821.728	27340
821.868	27020
822.008	27062
822.149	26971
822.289	27013
822.429	26743
822.569	26625
822.709	26686
822.849	26609
822.99	26667
823.13	26480
823.27	26495
823.41	26290
823.55	26324
823.69	26415
823.83	26317
823.97	26374
824.11	26263
824.25	26134
824.389	26202
824.529	26256
824.669	26206
824.809	26221
824.949	26400
825.089	26301
825.228	26309
825.368	26126
825.508	26005
825.648	26149
825.787	26172
825.927	26134
826.067	26012
826.206	26134
826.346	26183
826.485	25997
826.625	26115
826.765	26278
826.904	26111
827.044	25845
827.183	25864
827.323	25868
827.462	25788
827.601	25765
827.741	25788
827.88	25871
828.02	25776
828.159	25753
828.298	25921
828.437	25837
828.577	25742
828.716	25909
828.855	25685
828.994	25540
829.134	25502
829.273	25624
829.412	25594
829.551	25430
829.69	25514
829.829	25537
829.968	25506
830.107	25590
830.246	25559
830.385	25483
830.524	25422
830.663	25266
830.802	25057
830.941	25152
831.08	25232
831.219	25152
831.357	25228
831.496	25324
831.635	25004
831.774	25042
831.913	25034
832.051	24837
832.19	24856
832.329	24973
832.467	24726
832.606	24734
832.744	24608
832.883	24715
833.022	24757
833.16	24886
833.299	24837
833.437	24844
833.576	24878
833.714	24935
833.852	24973
833.991	24890
834.129	24970
834.267	24882
834.406	24935
834.544	24886
834.682	24867
834.821	24856
834.959	24939
835.097	24897
835.235	24848
835.373	24901
835.511	24928
835.65	24589
835.788	24582
835.926	24589
836.064	24372
836.202	24452
836.34	24642
836.478	24741
836.615	24730
836.753	24726
836.891	24833
837.029	24620
837.167	24646
837.305	24673
837.443	24639
837.58	24623
837.718	24616
837.856	24570
837.993	24525
838.131	24547
838.269	24410
838.406	24418
838.544	24330
838.681	24174
838.819	24171
838.956	24053
839.094	23984
839.231	23939
839.369	24095
839.506	24475
839.643	24197
839.781	23999
839.918	23969
840.055	24064
840.193	23961
840.33	23912
840.467	23897
840.604	23912
840.742	24136
840.879	23699
841.016	23874
841.153	23912
841.29	23992
841.427	23977
841.564	23935
841.701	23969
841.838	23847
841.975	23741
842.112	23870
842.249	23684
842.385	23657
842.522	23984
842.659	23748
842.796	23668
842.933	23668
843.069	23558
843.206	23531
843.343	23851
843.479	23672
843.616	23684
843.752	23414
843.889	23440
844.025	23558
844.162	23455
844.298	23528
844.435	23425
844.571	23273
844.708	23509
844.844	23646
844.98	23547
845.117	23642
845.253	23421
845.389	23307
845.525	23311
845.661	23334
845.798	23204
845.934	23223
846.07	23212
846.206	23265
846.342	23277
846.478	23025
846.614	22946
846.75	22877
846.886	22854
847.022	23025
847.158	23029
847.294	22889
847.429	22949
847.565	22957
847.701	23124
847.837	22694
847.972	22668
848.108	22755
848.244	22721
848.379	22653
848.515	22569
848.65	22519
848.786	22538
848.921	22508
849.057	22660
849.192	22550
849.328	22592
849.463	22424
849.598	22573
849.734	22356
849.869	22413
850.004	22249
850.14	22303
850.275	22287
850.41	22192
850.545	22207
850.68	22375
850.815	22177
850.95	22185
851.085	22405
851.22	22337
851.355	22405
851.49	22284
851.625	22093
851.76	22249
851.895	22200
852.03	22120
852.165	22188
852.299	22291
852.434	22230
852.569	22322
852.703	22158
852.838	22421
852.973	22394
853.107	22390
853.242	22291
853.376	22086
853.511	21918
853.645	22067
853.78	22295
853.914	22112
854.048	22040
854.183	22109
854.317	22215
854.451	22249
854.585	22147
854.72	22200
854.854	22101
854.988	22074
855.122	21991
855.256	22040
855.39	21994
855.524	22188
855.658	22097
855.792	22158
855.926	22082
856.06	22196
856.194	22055
856.327	21964
856.461	21895
856.595	21953
856.729	22120
856.862	22048
856.996	22006
857.13	22192
857.263	22070
857.397	22150
857.53	22116
857.664	22109
857.797	22036
857.931	22177
858.064	22048
858.197	22120
858.331	22124
858.464	21998
858.597	22036
858.731	21968
858.864	22162
858.997	22090
859.13	22078
859.263	21991
859.396	22150
859.529	22116
859.662	21922
859.795	21968
859.928	22074
860.061	22192
860.194	22470
860.327	22215
860.46	22116
860.592	22162
860.725	22257
860.858	22143
860.99	22082
861.123	22124
861.256	22036
861.388	22128
861.521	22755
861.653	21960
861.786	21854
861.918	21937
862.05	21991
862.183	21983
862.315	22044
862.447	22025
862.58	22128
862.712	21816
862.844	21789
862.976	21899
863.108	22029
863.24	22131
863.372	21713
863.504	21808
863.636	21743
863.768	21793
863.9	21770
864.032	21701
864.164	21694
864.296	21838
864.428	21903
864.559	21762
864.691	21865
864.823	21743
864.954	21762
865.086	21831
865.217	21789
865.349	21545
865.48	21739
865.612	21728
865.743	21781
865.875	21682
866.006	21724
866.137	21667
866.269	21686
866.4	21595
866.531	21603
866.662	21576
866.793	21622
866.924	21629
867.055	21599
867.186	21637
867.317	21614
867.448	21466
867.579	21595
867.71	21572
867.841	21614
867.972	21485
868.103	21633
868.233	21641
868.364	21701
868.495	21644
868.625	21892
868.756	21854
868.886	21827
869.017	21861
869.147	21766
869.278	21934
869.408	21918
869.539	21895
869.669	21907
869.799	21892
869.929	21926
870.06	21903
870.19	22021
870.32	22101
870.45	22303
870.58	22230
870.71	22367
870.84	22211
870.97	22265
871.1	22249
871.23	22375
871.36	22413
871.489	22295
871.619	22417
871.749	22455
871.879	22531
872.008	22531
872.138	22462
872.267	22344
872.397	22322
872.526	22242
872.656	22306
872.785	22299
872.915	22493
873.044	22413
873.173	22367
873.303	22462
873.432	22535
873.561	22580
873.69	22504
873.819	22493
873.948	22508
874.077	22405
874.206	22424
874.335	22436
874.464	22649
874.593	22668
874.722	22596
874.851	22713
874.979	22641
875.108	22668
875.237	22580
875.365	22542
875.494	22565
875.623	22721
875.751	22599
875.88	22721
876.008	22797
876.136	22828
876.265	23105
876.393	23143
876.521	23143
876.65	23140
876.778	23075
876.906	23041
877.034	23033
877.162	22984
877.29	23033
877.418	23060
877.546	23079
877.674	22949
877.802	22984
877.93	22915
878.058	22927
878.185	22858
878.313	23022
878.441	23052
878.568	22869
878.696	22904
878.824	22953
878.951	23052
879.079	23292
879.206	23265
879.333	23147
879.461	23029
879.588	23174
879.715	23109
879.842	23364
879.97	22995
880.097	22755
880.224	22744
880.351	22843
880.478	22793
880.605	22717
880.732	22919
880.859	23041
880.986	22942
881.112	22843
881.239	22664
881.366	22542
881.493	22451
881.619	22443
881.746	22455
881.872	22348
881.999	22428
882.125	22261
882.252	22470
882.378	22348
882.505	22474
882.631	22230
882.757	22135
882.883	22124
883.01	21956
883.136	21979
883.262	21934
883.388	21899
883.514	22090
883.64	22204
883.766	21991
883.892	21808
884.018	21941
884.143	21994
884.269	22074
884.395	21812
884.52	21663
884.646	21694
884.772	21713
884.897	21625
885.023	21549
885.148	21785
885.274	21835
885.399	21838
885.524	21812
885.65	21808
885.775	21694
885.9	21663
886.025	21827
886.15	21717
886.275	21648
886.4	21599
886.525	21766
886.65	21736
886.775	21526
886.9	21762
887.025	21918
887.149	21698
887.274	21488
887.399	21515
887.523	21549
887.648	21336
887.773	21329
887.897	21492
888.021	21572
888.146	21389
888.27	21553
888.395	21591
888.519	21412
888.643	21473
888.767	21576
888.891	21412
889.015	21291
889.139	21340
889.263	21173
889.387	21386
889.511	21321
889.635	21382
889.759	21287
889.883	21222
890.006	21340
890.13	21348
890.254	21142
890.377	21104
890.501	21017
890.624	21119
890.748	21123
890.871	20883
890.995	20910
891.118	20800
891.241	20792
891.364	20826
891.488	20918
891.611	20864
891.734	20830
891.857	20823
891.98	20823
892.103	20929
892.226	20925
892.349	20842
892.471	20537
892.594	20712
892.717	20716
892.839	20750
892.962	20743
893.085	20826
893.207	20720
893.33	20651
893.452	20625
893.575	20800
893.697	20746
893.819	20929
893.941	20960
894.064	20773
894.186	20804
894.308	20587
894.43	20720
894.552	20712
894.674	20701
894.796	20659
894.918	20708
895.04	20609
895.161	20815
895.283	20826
895.405	20670
895.526	20731
895.648	20651
895.769	20769
895.891	20663
896.012	20777
896.134	20705
896.255	20838
896.376	20651
896.498	20693
896.619	20689
896.74	20750
896.861	20678
896.982	21058
897.103	21112
897.224	20933
897.345	20933
897.466	20872
897.587	20929
897.708	21051
897.828	20944
897.949	20792
898.07	20674
898.19	20823
898.311	20937
898.431	20815
898.552	20891
898.672	20952
898.792	21024
898.913	20838
899.033	20712
899.153	20629
899.273	20598
899.393	20629
899.513	20716
899.633	20735
899.753	20701
899.873	20663
899.993	20629
900.113	20530
900.232	20583
900.352	20602
900.472	20389
900.591	20385
900.711	20347
900.83	20313
900.95	20530
901.069	20469
901.189	20320
901.308	20069
901.427	20020
901.546	20016
901.665	19982
901.784	19928
901.904	19788
902.023	19689
902.141	19635
902.26	19540
902.379	19571
902.498	19525
902.617	19358
902.735	19415
902.854	19529
902.973	19430
903.091	19198
903.21	19198
903.328	19122
903.446	19012
903.565	18996
903.683	18973
903.801	18844
903.919	18890
904.038	18993
904.156	18810
904.274	18726
904.392	18601
904.51	18654
904.627	18547
904.745	18776
904.863	18772
904.981	18547
905.098	18452
905.216	18479
905.334	18323
905.451	18452
905.569	18460
905.686	18429
905.803	18388
905.921	18289
906.038	18262
906.155	18262
906.272	18087
906.389	18087
906.506	17908
906.623	17988
906.74	17927
906.857	17798
906.974	17790
907.091	17901
907.208	18057
907.324	17843
907.441	17809
907.557	17767
907.674	17691
907.79	17627
907.907	17672
908.023	17733
908.139	17630
908.256	17547
908.372	17493
908.488	17421
908.604	17307
908.72	17296
908.836	17414
908.952	17330
909.068	17353
909.184	17444
909.3	17299
909.415	17356
909.531	17246
909.647	17174
909.762	17018
909.878	17056
909.993	17029
910.108	17018
910.224	17166
910.339	16991
910.454	16889
910.57	16763
910.685	16778
910.8	17124
910.915	16976
911.03	16790
911.145	16717
911.259	16683
911.374	16706
911.489	16626
911.604	16485
911.718	16402
911.833	16379
911.947	16234
912.062	16211
912.176	16344
912.291	16398
912.405	16375
912.519	16569
912.633	16504
912.748	16394
912.862	16341
912.976	16181
913.09	16074
913.204	16181
913.318	16246
913.431	16226
913.545	16333
913.659	16291
913.772	16044
913.886	16032
914	15922
914.113	16105
914.226	16128
914.34	16036
914.453	15915
914.566	15960
914.68	15812
914.793	15850
914.906	15713
915.019	15557
915.132	15473
915.245	15545
915.358	15591
915.47	15507
915.583	15644
915.696	15549
915.809	15739
915.921	15743
916.034	15576
916.146	15504
916.259	15507
916.371	15568
916.483	15496
916.595	15386
916.708	15481
916.82	15378
916.932	15302
917.044	15325
917.156	15283
917.268	15135
917.38	15176
917.491	15169
917.603	15188
917.715	15245
917.826	15260
917.938	15070
918.049	15093
918.161	15203
918.272	15279
918.384	15298
918.495	15245
918.606	14963
918.717	14864
918.828	14967
918.939	14918
919.05	14773
919.161	14895
919.272	14743
919.383	14830
919.494	14899
919.604	15119
919.715	14899
919.826	14849
919.936	14868
920.047	15039
920.157	14902
920.267	15013
920.378	14929
920.488	14834
920.598	15112
920.708	15192
920.818	14967
920.928	15062
921.038	15222
921.148	15195
921.258	14937
921.368	14712
921.477	14727
921.587	14663
921.697	14514
921.806	14663
921.916	14530
922.025	14294
922.134	14313
922.244	14233
922.353	14248
922.462	14126
922.571	14016
922.68	14001
922.789	13818
922.898	13947
923.007	13803
923.116	13871
923.224	13871
923.333	13928
923.442	13693
923.55	13727
923.659	13803
923.767	13811
923.876	13544
923.984	13742
924.092	13575
924.201	13712
924.309	13643
924.417	13613
924.525	13506
924.633	13613
924.741	14564
924.849	13293
924.956	13518
925.064	13460
925.172	13270
925.279	13293
925.387	13403
925.494	13285
925.602	13407
925.709	13320
925.816	13217
925.924	13213
926.031	13278
926.138	13179
926.245	13217
926.352	13137
926.459	13240
926.566	13278
926.673	13240
926.779	12985
926.886	13057
926.993	12901
927.099	12928
927.206	12829
927.312	12764
927.419	12852
927.525	12848
927.631	12878
927.737	12783
927.843	12662
927.95	12658
928.056	12627
928.162	12677
928.267	12639
928.373	13164
928.479	12654
928.585	12502
928.69	12547
928.796	12665
928.901	12525
929.007	12456
929.112	12513
929.218	12448
929.323	12395
929.428	12296
929.533	12479
929.638	12258
929.743	12308
929.848	12418
929.953	12369
930.058	12254
930.163	12034
930.267	12102
930.372	12148
930.477	11946
930.581	12232
930.685	12083
930.79	11939
930.894	12011
930.998	11847
931.103	12049
931.207	11714
931.311	11604
931.415	11497
931.519	11383
931.623	11220
