Data from test_V78500241_228.txt Node
Date: Fri Mar 25 15:11:26 CST 2022
User: usil
Spectrometer: V785-0024
Trigger mode: 0
Integration Time (sec): 4.000000E-1
Scans to average: 1
Nonlinearity correction enabled: false
Boxcar width: 0
Storing dark spectrum: false
XAxis mode: Wavelengths
Number of Pixels in Spectrum: 1024
>>>>>Begin Spectral Data<<<<<
801.071	27979
801.214	27895
801.356	27564
801.499	27542
801.641	27431
801.783	27431
801.926	27454
802.068	27348
802.211	27256
802.353	27131
802.496	27089
802.638	27112
802.78	27138
802.923	26990
803.065	26952
803.208	27039
803.35	26986
803.492	27051
803.635	27150
803.777	26998
803.919	27070
804.061	27466
804.204	27211
804.346	27032
804.488	27074
804.63	27058
804.773	26956
804.915	27112
805.057	27081
805.199	27157
805.341	27146
805.483	27241
805.626	27173
805.768	27077
805.91	27245
806.052	27199
806.194	27108
806.336	27435
806.478	27184
806.62	27154
806.762	27355
806.904	27469
807.046	27648
807.188	27648
807.33	27625
807.472	27698
807.614	27492
807.756	27416
807.898	27348
808.04	27420
808.182	27329
808.324	27424
808.465	27454
808.607	27561
808.749	27785
808.891	27823
809.033	27857
809.174	27964
809.316	27800
809.458	27816
809.6	27739
809.741	27857
809.883	27850
810.025	28002
810.166	28124
810.308	28048
810.45	27819
810.591	27876
810.733	27778
810.875	27759
811.016	27663
811.158	27530
811.299	27846
811.441	27804
811.582	27998
811.724	27629
811.865	27675
812.007	27686
812.148	27656
812.29	27743
812.431	27903
812.573	28002
812.714	28154
812.855	28135
812.997	28280
813.138	28409
813.279	28291
813.421	28265
813.562	28226
813.703	28002
813.845	27956
813.986	27534
814.127	27526
814.268	27355
814.41	27329
814.551	27260
814.692	27317
814.833	27344
814.974	27283
815.115	27298
815.256	27180
815.397	27127
815.539	27264
815.68	27203
815.821	27032
815.962	27207
816.103	27100
816.244	26979
816.385	26948
816.526	26773
816.666	26682
816.807	26533
816.948	26701
817.089	26575
817.23	26575
817.371	26564
817.512	26511
817.653	26457
817.793	26453
817.934	26503
818.075	26579
818.216	26537
818.356	26518
818.497	26400
818.638	26161
818.778	26259
818.919	26210
819.06	26180
819.2	26450
819.341	26556
819.481	26541
819.622	26549
819.762	26853
819.903	26720
820.043	26663
820.184	26644
820.324	26549
820.465	26686
820.605	26594
820.746	26495
820.886	26453
821.026	26697
821.167	26598
821.307	26602
821.447	26560
821.588	26343
821.728	26237
821.868	26100
822.008	25993
822.149	25887
822.289	25871
822.429	25715
822.569	25575
822.709	25559
822.849	25518
822.99	25464
823.13	25381
823.27	25449
823.41	25327
823.55	25126
823.69	25285
823.83	25152
823.97	25240
824.11	24985
824.25	25027
824.389	25012
824.529	24962
824.669	25183
824.809	25133
824.949	25179
825.089	25057
825.228	25050
825.368	24875
825.508	24814
825.648	24848
825.787	24973
825.927	24897
826.067	24776
826.206	24772
826.346	24977
826.485	24905
826.625	24779
826.765	24947
826.904	24962
827.044	24772
827.183	24608
827.323	24414
827.462	24570
827.601	24669
827.741	24407
827.88	24681
828.02	24429
828.159	24540
828.298	24532
828.437	24650
828.577	24388
828.716	24608
828.855	24521
828.994	24079
829.134	24247
829.273	24311
829.412	24235
829.551	24178
829.69	24148
829.829	24285
829.968	24350
830.107	24315
830.246	24174
830.385	24171
830.524	23984
830.663	24015
830.802	23977
830.941	23840
831.08	23741
831.219	24087
831.357	23798
831.496	24140
831.635	23676
831.774	23783
831.913	23627
832.051	23665
832.19	23627
832.329	23687
832.467	23448
832.606	23509
832.744	23440
832.883	23402
833.022	23421
833.16	23448
833.299	23558
833.437	23471
833.576	23512
833.714	23512
833.852	23528
833.991	23562
834.129	23718
834.267	23577
834.406	23570
834.544	23433
834.682	23490
834.821	23531
834.959	23653
835.097	23474
835.235	23497
835.373	23547
835.511	23619
835.65	23299
835.788	23326
835.926	23208
836.064	23155
836.202	23273
836.34	23376
836.478	23387
836.615	23235
836.753	23288
836.891	23372
837.029	23406
837.167	23136
837.305	23223
837.443	23242
837.58	23147
837.718	23239
837.856	23178
837.993	23109
838.131	23170
838.269	22953
838.406	23151
838.544	22930
838.681	22869
838.819	22862
838.956	22660
839.094	22683
839.231	22782
839.369	22869
839.506	23079
839.643	22904
839.781	22713
839.918	22717
840.055	22622
840.193	22729
840.33	22466
840.467	22535
840.604	22649
840.742	22873
840.879	22405
841.016	22565
841.153	22424
841.29	22645
841.427	22516
841.564	22618
841.701	22573
841.838	22436
841.975	22432
842.112	22329
842.249	22276
842.385	22295
842.522	22489
842.659	22432
842.796	22382
842.933	22352
843.069	22287
843.206	22352
843.343	22200
843.479	22306
843.616	22246
843.752	22036
843.889	22101
844.025	22074
844.162	21991
844.298	22063
844.435	21941
844.571	22040
844.708	21975
844.844	22162
844.98	22124
845.117	22215
845.253	21934
845.389	21876
845.525	21915
845.661	21945
845.798	21743
845.934	21728
846.07	21713
846.206	21728
846.342	21789
846.478	21808
846.614	21439
846.75	21545
846.886	21507
847.022	21576
847.158	21549
847.294	21500
847.429	21492
847.565	21580
847.701	21603
847.837	21173
847.972	21150
848.108	21367
848.244	21336
848.379	21096
848.515	21093
848.65	21058
848.786	21070
848.921	21043
849.057	21203
849.192	21100
849.328	21058
849.463	21100
849.598	20982
849.734	20910
849.869	20937
850.004	20902
850.14	20834
850.275	20781
850.41	20762
850.545	20887
850.68	20842
850.815	20739
850.95	20819
851.085	20941
851.22	20887
851.355	20853
851.49	20849
851.625	20765
851.76	20743
851.895	20602
852.03	20689
852.165	20724
852.299	20929
852.434	20876
852.569	20792
852.703	20651
852.838	20826
852.973	20902
853.107	20925
853.242	20739
853.376	20606
853.511	20530
853.645	20602
853.78	20743
853.914	20670
854.048	20545
854.183	20537
854.317	20579
854.451	20838
854.585	20598
854.72	20617
854.854	20598
854.988	20602
855.122	20644
855.256	20396
855.39	20590
855.524	20712
855.658	20659
855.792	20674
855.926	20640
856.06	20632
856.194	20670
856.327	20674
856.461	20530
856.595	20518
856.729	20564
856.862	20777
856.996	20625
857.13	20739
857.263	20750
857.397	20674
857.53	20606
857.664	20503
857.797	20609
857.931	20720
858.064	20693
858.197	20686
858.331	20583
858.464	20541
858.597	20442
858.731	20560
858.864	20564
858.997	20583
859.13	20590
859.263	20564
859.396	20659
859.529	20499
859.662	20632
859.795	20511
859.928	20549
860.061	20724
860.194	20849
860.327	20674
860.46	20617
860.592	20636
860.725	20746
860.858	20648
860.99	20598
861.123	20438
861.256	20469
861.388	20545
861.521	21329
861.653	20476
861.786	20324
861.918	20419
862.05	20434
862.183	20541
862.315	20495
862.447	20674
862.58	20511
862.712	20332
862.844	20309
862.976	20457
863.108	20317
863.24	20826
863.372	20210
863.504	20317
863.636	20305
863.768	20187
863.9	20332
864.032	20126
864.164	20252
864.296	20351
864.428	20328
864.559	20286
864.691	20541
864.823	20237
864.954	20267
865.086	20309
865.217	20145
865.349	20062
865.48	20336
865.612	20130
865.743	20218
865.875	20202
866.006	20187
866.137	20221
866.269	20298
866.4	20134
866.531	20073
866.662	20058
866.793	20077
866.924	20126
867.055	20065
867.186	20168
867.317	20180
867.448	20035
867.579	20145
867.71	20016
867.841	19963
867.972	20096
868.103	20168
868.233	20134
868.364	20103
868.495	20275
868.625	20301
868.756	20541
868.886	20237
869.017	20400
869.147	20412
869.278	20469
869.408	20362
869.539	20305
869.669	20377
869.799	20381
869.929	20393
870.06	20495
870.19	20682
870.32	20670
870.45	20777
870.58	20727
870.71	20834
870.84	20857
870.97	20785
871.1	20857
871.23	20994
871.36	20914
871.489	20819
871.619	20807
871.749	20811
871.879	21001
872.008	21020
872.138	20944
872.267	20872
872.397	20849
872.526	20800
872.656	20613
872.785	20845
872.915	20960
873.044	21062
873.173	20998
873.303	21032
873.432	20960
873.561	21089
873.69	20982
873.819	20986
873.948	21001
874.077	21058
874.206	20853
874.335	21005
874.464	21043
874.593	21283
874.722	21142
874.851	21233
874.979	21154
875.108	21298
875.237	21131
875.365	21119
875.494	21226
875.623	21268
875.751	21260
875.88	21218
876.008	21348
876.136	21515
876.265	21538
876.393	21770
876.521	21671
876.65	21610
876.778	21580
876.906	21576
877.034	21622
877.162	21606
877.29	21561
877.418	21610
877.546	21530
877.674	21507
877.802	21599
877.93	21564
878.058	21603
878.185	21458
878.313	21530
878.441	21587
878.568	21386
878.696	21496
878.824	21614
878.951	21549
879.079	21736
879.206	21827
879.333	21838
879.461	21534
879.588	21808
879.715	21679
879.842	21953
879.97	21606
880.097	21374
880.224	21408
880.351	21496
880.478	21393
880.605	21374
880.732	21359
880.859	21739
880.986	21462
881.112	21382
881.239	21298
881.366	21279
881.493	21146
881.619	21020
881.746	21070
881.872	21055
881.999	20982
882.125	20891
882.252	21020
882.378	21013
882.505	21089
882.631	20883
882.757	20667
882.883	20826
883.01	20762
883.136	20636
883.262	20701
883.388	20583
883.514	20727
883.64	20796
883.766	20625
883.892	20442
884.018	20522
884.143	20632
884.269	20750
884.395	20412
884.52	20199
884.646	20412
884.772	20233
884.897	20324
885.023	20324
885.148	20450
885.274	20530
885.399	20457
885.524	20438
885.65	20423
885.775	20427
885.9	20351
886.025	20545
886.15	20317
886.275	20377
886.4	20218
886.525	20336
886.65	20259
886.775	20214
886.9	20480
887.025	20632
887.149	20370
887.274	20218
887.399	20115
887.523	19959
887.648	20172
887.773	20039
887.897	20168
888.021	20145
888.146	20058
888.27	20161
888.395	20237
888.519	20153
888.643	20096
888.767	20252
888.891	20016
889.015	19864
889.139	19974
889.263	19936
889.387	20016
889.511	20081
889.635	20073
889.759	19898
889.883	19887
890.006	19917
890.13	19959
890.254	19860
890.377	19742
890.501	19628
890.624	19742
890.748	19776
890.871	19537
890.995	19407
891.118	19411
891.241	19582
891.364	19510
891.488	19620
891.611	19525
891.734	19567
891.857	19487
891.98	19487
892.103	19491
892.226	19506
892.349	19453
892.471	19365
892.594	19476
892.717	19556
892.839	19335
892.962	19388
893.085	19392
893.207	19430
893.33	19320
893.452	19438
893.575	19521
893.697	19400
893.819	19559
893.941	19468
894.064	19597
894.186	19266
894.308	19483
894.43	19506
894.552	19556
894.674	19518
894.796	19403
894.918	19369
895.04	19358
895.161	19499
895.283	19548
895.405	19304
895.526	19403
895.648	19396
895.769	19415
895.891	19396
896.012	19563
896.134	19476
896.255	19537
896.376	19362
896.498	19533
896.619	19506
896.74	19373
896.861	19495
896.982	19879
897.103	19936
897.224	19738
897.345	19662
897.466	19643
897.587	19563
897.708	19712
897.828	19666
897.949	19605
898.07	19552
898.19	19586
898.311	19776
898.431	19628
898.552	19616
898.672	19715
898.792	19719
898.913	19647
899.033	19521
899.153	19403
899.273	19297
899.393	19354
899.513	19422
899.633	19434
899.753	19411
899.873	19324
899.993	19472
900.113	19324
900.232	19434
900.352	19278
900.472	19137
900.591	19141
900.711	19148
900.83	19156
900.95	19308
901.069	19179
901.189	19160
901.308	18894
901.427	18730
901.546	18825
901.665	18700
901.784	18677
901.904	18681
902.023	18623
902.141	18372
902.26	18209
902.379	18361
902.498	18403
902.617	18182
902.735	18311
902.854	18216
902.973	18155
903.091	17889
903.21	17954
903.328	17878
903.446	17958
903.565	17798
903.683	17733
903.801	17638
903.919	17783
904.038	17745
904.156	17417
904.274	17634
904.392	17520
904.51	17623
904.627	17532
904.745	17592
904.863	17570
904.981	17360
905.098	17162
905.216	17094
905.334	17284
905.451	17273
905.569	17189
905.686	17269
905.803	17162
905.921	16965
906.038	17151
906.155	17052
906.272	16976
906.389	16892
906.506	16774
906.623	16835
906.74	16801
906.857	16664
906.974	16805
907.091	16694
907.208	16866
907.324	16733
907.441	16698
907.557	16561
907.674	16459
907.79	16409
907.907	16417
908.023	16516
908.139	16402
908.256	16402
908.372	16379
908.488	16272
908.604	16154
908.72	16158
908.836	16150
908.952	16139
909.068	16192
909.184	16276
909.3	16200
909.415	16177
909.531	16120
909.647	15956
909.762	15903
909.878	15835
909.993	15861
910.108	15865
910.224	15903
910.339	15972
910.454	15701
910.57	15774
910.685	15618
910.8	15903
910.915	15812
911.03	15743
911.145	15587
911.259	15557
911.374	15447
911.489	15359
911.604	15291
911.718	15283
911.833	15233
911.947	15024
912.062	15085
912.176	15138
912.291	15317
912.405	15173
912.519	15401
912.633	15306
912.748	15211
912.862	15142
912.976	15077
913.09	14880
913.204	15005
913.318	15074
913.431	15074
913.545	15218
913.659	15074
913.772	14963
913.886	14910
914	14807
914.113	14906
914.226	14948
914.34	14887
914.453	14731
914.566	14834
914.68	14727
914.793	14739
914.906	14587
915.019	14518
915.132	14393
915.245	14450
915.358	14396
915.47	14537
915.583	14476
915.696	14533
915.809	14629
915.921	14640
916.034	14469
916.146	14362
916.259	14343
916.371	14461
916.483	14431
916.595	14298
916.708	14256
916.82	14286
916.932	14313
917.044	14278
917.156	14263
917.268	14187
917.38	14214
917.491	14214
917.603	14218
917.715	14248
917.826	14195
917.938	14096
918.049	14084
918.161	13982
918.272	14278
918.384	14157
918.495	14084
918.606	13841
918.717	13936
918.828	14005
918.939	13936
919.05	13814
919.161	13887
919.272	13708
919.383	13799
919.494	13932
919.604	14069
919.715	13944
919.826	13833
919.936	13830
920.047	13906
920.157	13890
920.267	14065
920.378	13921
920.488	13871
920.598	14016
920.708	14119
920.818	13917
920.928	13932
921.038	14058
921.148	14062
921.258	13814
921.368	13685
921.477	13609
921.587	13674
921.697	13537
921.806	13556
921.916	13415
922.025	13293
922.134	13316
922.244	13190
922.353	13202
922.462	13137
922.571	13042
922.68	12890
922.789	12871
922.898	12924
923.007	12882
923.116	12989
923.224	12878
923.333	12875
923.442	12833
923.55	12730
923.659	12783
923.767	12859
923.876	12757
923.984	12700
924.092	12692
924.201	12635
924.309	12627
924.417	12692
924.525	12635
924.633	12597
924.741	13346
924.849	12486
924.956	12544
925.064	12437
925.172	12197
925.279	12311
925.387	12418
925.494	12426
925.602	12498
925.709	12460
925.816	12277
925.924	12323
926.031	12414
926.138	12353
926.245	12296
926.352	12254
926.459	12300
926.566	12350
926.673	12152
926.779	12136
926.886	12186
926.993	12015
927.099	11992
927.206	11859
927.312	11916
927.419	11923
927.525	11946
927.631	11984
927.737	11809
927.843	11836
927.95	11688
928.056	11726
928.162	11764
928.267	11798
928.373	12350
928.479	11809
928.585	11608
928.69	11718
928.796	11760
928.901	11592
929.007	11455
929.112	11703
929.218	11619
929.323	11535
929.428	11524
929.533	11646
929.638	11490
929.743	11471
929.848	11429
929.953	11532
930.058	11353
930.163	11239
930.267	11185
930.372	11303
930.477	11037
930.581	11334
930.685	11250
930.79	11075
930.894	11136
930.998	11083
931.103	11166
931.207	10869
931.311	10782
931.415	10748
931.519	10512
931.623	10527
