Data from test_V78500241_610.txt Node
Date: Fri Mar 25 15:14:06 CST 2022
User: usil
Spectrometer: V785-0024
Trigger mode: 0
Integration Time (sec): 4.000000E-1
Scans to average: 1
Nonlinearity correction enabled: false
Boxcar width: 0
Storing dark spectrum: false
XAxis mode: Wavelengths
Number of Pixels in Spectrum: 1024
>>>>>Begin Spectral Data<<<<<
801.071	27682
801.214	27587
801.356	27367
801.499	27443
801.641	27272
801.783	27317
801.926	27287
802.068	27188
802.211	27104
802.353	27093
802.496	26933
802.638	26838
802.78	26777
802.923	26883
803.065	26864
803.208	26788
803.35	26933
803.492	27009
803.635	26925
803.777	26899
803.919	26967
804.061	27176
804.204	27146
804.346	26804
804.488	26929
804.63	27051
804.773	26925
804.915	26982
805.057	27211
805.199	27085
805.341	27142
805.483	27195
805.626	27131
805.768	26940
805.91	27131
806.052	27150
806.194	27138
806.336	27211
806.478	27233
806.62	27237
806.762	27313
806.904	27401
807.046	27827
807.188	27739
807.33	27652
807.472	27610
807.614	27408
807.756	27580
807.898	27393
808.04	27348
808.182	27329
808.324	27526
808.465	27462
808.607	27663
808.749	27698
808.891	27800
809.033	27926
809.174	27873
809.316	27823
809.458	27781
809.6	27736
809.741	27804
809.883	28002
810.025	28036
810.166	28010
810.308	28093
810.45	27903
810.591	28032
810.733	28029
810.875	27823
811.016	27736
811.158	27762
811.299	27903
811.441	28051
811.582	27994
811.724	27717
811.865	27709
812.007	27808
812.148	27880
812.29	27785
812.431	27968
812.573	28139
812.714	28215
812.855	28246
812.997	28341
813.138	28588
813.279	28417
813.421	28421
813.562	28428
813.703	28215
813.845	28044
813.986	27812
814.127	27591
814.268	27386
814.41	27469
814.551	27424
814.692	27591
814.833	27511
814.974	27458
815.115	27382
815.256	27321
815.397	27344
815.539	27393
815.68	27275
815.821	27096
815.962	27405
816.103	27237
816.244	27161
816.385	27043
816.526	27047
816.666	26876
816.807	26819
816.948	26823
817.089	26853
817.23	26785
817.371	26895
817.512	26800
817.653	26807
817.793	26842
817.934	26815
818.075	26594
818.216	26804
818.356	26773
818.497	26613
818.638	26465
818.778	26385
818.919	26476
819.06	26674
819.2	26644
819.341	26823
819.481	26617
819.622	26830
819.762	27032
819.903	27017
820.043	26849
820.184	26986
820.324	26861
820.465	27017
820.605	26918
820.746	26731
820.886	26762
821.026	26830
821.167	26811
821.307	26853
821.447	26743
821.588	26640
821.728	26564
821.868	26453
822.008	26275
822.149	26225
822.289	26294
822.429	25936
822.569	25982
822.709	25860
822.849	25849
822.99	25723
823.13	25635
823.27	25601
823.41	25559
823.55	25411
823.69	25499
823.83	25571
823.97	25499
824.11	25479
824.25	25304
824.389	25362
824.529	25422
824.669	25514
824.809	25365
824.949	25571
825.089	25518
825.228	25453
825.368	25247
825.508	25244
825.648	25247
825.787	25270
825.927	25198
826.067	25244
826.206	25061
826.346	25240
826.485	25244
826.625	25217
826.765	25312
826.904	25255
827.044	24939
827.183	25038
827.323	24966
827.462	24951
827.601	24973
827.741	24970
827.88	25012
828.02	24814
828.159	24875
828.298	24943
828.437	24996
828.577	24817
828.716	25103
828.855	24859
828.994	24620
829.134	24707
829.273	24639
829.412	24620
829.551	24650
829.69	24608
829.829	24730
829.968	24772
830.107	24734
830.246	24684
830.385	24582
830.524	24585
830.663	24574
830.802	24319
830.941	24201
831.08	24243
831.219	24403
831.357	24338
831.496	24422
831.635	24334
831.774	24186
831.913	24243
832.051	24034
832.19	24015
832.329	24041
832.467	24129
832.606	23901
832.744	23965
832.883	23775
833.022	23939
833.16	24007
833.299	24041
833.437	24064
833.576	24053
833.714	24140
833.852	24030
833.991	23999
834.129	23996
834.267	24018
834.406	23897
834.544	24007
834.682	24003
834.821	24041
834.959	24091
835.097	23961
835.235	24110
835.373	23946
835.511	24144
835.65	23851
835.788	23775
835.926	23745
836.064	23562
836.202	23695
836.34	23684
836.478	23946
836.615	23832
836.753	23703
836.891	23927
837.029	23958
837.167	23920
837.305	23653
837.443	23676
837.58	23676
837.718	23687
837.856	23577
837.993	23718
838.131	23611
838.269	23478
838.406	23600
838.544	23452
838.681	23398
838.819	23311
838.956	23166
839.094	23117
839.231	23296
839.369	23410
839.506	23562
839.643	23410
839.781	23170
839.918	23086
840.055	23269
840.193	23044
840.33	23014
840.467	23143
840.604	23056
840.742	23402
840.879	23067
841.016	23147
841.153	22968
841.29	23273
841.427	22965
841.564	23086
841.701	23029
841.838	23117
841.975	22873
842.112	22881
842.249	22927
842.385	22767
842.522	23029
842.659	22885
842.796	22915
842.933	22771
843.069	22790
843.206	22771
843.343	22980
843.479	22896
843.616	22767
843.752	22660
843.889	22634
844.025	22736
844.162	22607
844.298	22721
844.435	22592
844.571	22656
844.708	22626
844.844	22858
844.98	22752
845.117	22797
845.253	22660
845.389	22603
845.525	22489
845.661	22516
845.798	22466
845.934	22481
846.07	22181
846.206	22333
846.342	22390
846.478	22287
846.614	22280
846.75	22044
846.886	22021
847.022	22219
847.158	22128
847.294	22105
847.429	22128
847.565	22063
847.701	22398
847.837	21759
847.972	21835
848.108	21907
848.244	21880
848.379	21876
848.515	21728
848.65	21625
848.786	21648
848.921	21755
849.057	21724
849.192	21679
849.328	21812
849.463	21694
849.598	21603
849.734	21488
849.869	21496
850.004	21431
850.14	21511
850.275	21462
850.41	21321
850.545	21321
850.68	21447
850.815	21321
850.95	21420
851.085	21622
851.22	21519
851.355	21496
851.49	21435
851.625	21466
851.76	21431
851.895	21397
852.03	21408
852.165	21469
852.299	21386
852.434	21530
852.569	21462
852.703	21374
852.838	21637
852.973	21561
853.107	21549
853.242	21416
853.376	21416
853.511	21180
853.645	21199
853.78	21477
853.914	21355
854.048	21188
854.183	21272
854.317	21264
854.451	21515
854.585	21325
854.72	21264
854.854	21367
854.988	21233
855.122	21367
855.256	21173
855.39	21264
855.524	21321
855.658	21287
855.792	21332
855.926	21268
856.06	21370
856.194	21374
856.327	21363
856.461	21389
856.595	21348
856.729	21195
856.862	21424
856.996	21298
857.13	21260
857.263	21401
857.397	21435
857.53	21283
857.664	21272
857.797	21435
857.931	21401
858.064	21313
858.197	21317
858.331	21294
858.464	21173
858.597	21222
858.731	21302
858.864	21389
858.997	21256
859.13	21249
859.263	21268
859.396	21294
859.529	21321
859.662	21260
859.795	21256
859.928	21306
860.061	21515
860.194	21515
860.327	21256
860.46	21302
860.592	21393
860.725	21431
860.858	21325
860.99	21195
861.123	21245
861.256	21294
861.388	21393
861.521	22234
861.653	21180
861.786	21195
861.918	21104
862.05	21222
862.183	21264
862.315	21268
862.447	21184
862.58	21249
862.712	20975
862.844	20975
862.976	20994
863.108	21154
863.24	21412
863.372	20895
863.504	20982
863.636	20971
863.768	21047
863.9	20960
864.032	21024
864.164	21020
864.296	20952
864.428	21036
864.559	20986
864.691	21074
864.823	21093
864.954	20967
865.086	20948
865.217	20910
865.349	20842
865.48	20899
865.612	20872
865.743	21066
865.875	20941
866.006	21028
866.137	20838
866.269	20998
866.4	20925
866.531	20899
866.662	20739
866.793	20872
866.924	20868
867.055	20956
867.186	20895
867.317	20743
867.448	20739
867.579	20864
867.71	20739
867.841	20769
867.972	20891
868.103	20838
868.233	20807
868.364	20769
868.495	20990
868.625	21157
868.756	21192
868.886	20963
869.017	21070
869.147	21161
869.278	21142
869.408	21180
869.539	21123
869.669	21176
869.799	21123
869.929	21161
870.06	21165
870.19	21306
870.32	21351
870.45	21393
870.58	21534
870.71	21538
870.84	21507
870.97	21481
871.1	21557
871.23	21622
871.36	21675
871.489	21587
871.619	21618
871.749	21690
871.879	21603
872.008	21804
872.138	21618
872.267	21488
872.397	21549
872.526	21428
872.656	21473
872.785	21595
872.915	21660
873.044	21785
873.173	21751
873.303	21842
873.432	21656
873.561	21835
873.69	21717
873.819	21663
873.948	21857
874.077	21713
874.206	21580
874.335	21686
874.464	21873
874.593	21876
874.722	21964
874.851	22010
874.979	21895
875.108	22021
875.237	21884
875.365	21778
875.494	21945
875.623	21987
875.751	21774
875.88	21953
876.008	22063
876.136	22006
876.265	22348
876.393	22409
876.521	22272
876.65	22382
876.778	22303
876.906	22234
877.034	22265
877.162	22291
877.29	22226
877.418	22261
877.546	22276
877.674	22150
877.802	22344
877.93	22284
878.058	22211
878.185	22158
878.313	22238
878.441	22249
878.568	22051
878.696	22215
878.824	22257
878.951	22352
879.079	22421
879.206	22580
879.333	22421
879.461	22318
879.588	22303
879.715	22447
879.842	22497
879.97	22538
880.097	22074
880.224	22032
880.351	22044
880.478	22154
880.605	21960
880.732	22249
880.859	22299
880.986	22025
881.112	22086
881.239	21926
881.366	21804
881.493	21797
881.619	21660
881.746	21713
881.872	21564
881.999	21663
882.125	21618
882.252	21705
882.378	21717
882.505	21701
882.631	21591
882.757	21332
882.883	21389
883.01	21332
883.136	21260
883.262	21188
883.388	21317
883.514	21374
883.64	21538
883.766	21321
883.892	21013
884.018	21192
884.143	21363
884.269	21435
884.395	21055
884.52	20971
884.646	21051
884.772	20971
884.897	20956
885.023	21157
885.148	21123
885.274	21131
885.399	21157
885.524	21085
885.65	20952
885.775	20994
885.9	21020
886.025	21066
886.15	21089
886.275	21028
886.4	20925
886.525	20975
886.65	20921
886.775	21001
886.9	21043
887.025	21169
887.149	20990
887.274	20830
887.399	20781
887.523	20792
887.648	20632
887.773	20689
887.897	20807
888.021	20838
888.146	20697
888.27	20811
888.395	20948
888.519	20807
888.643	20838
888.767	20750
888.891	20712
889.015	20609
889.139	20609
889.263	20522
889.387	20602
889.511	20758
889.635	20590
889.759	20549
889.883	20495
890.006	20476
890.13	20731
890.254	20385
890.377	20655
890.501	20328
890.624	20313
890.748	20446
890.871	20214
890.995	20054
891.118	20138
891.241	20122
891.364	20164
891.488	20176
891.611	20221
891.734	20202
891.857	20187
891.98	20111
892.103	20202
892.226	20092
892.349	20027
892.471	19894
892.594	20058
892.717	19978
892.839	19993
892.962	20084
893.085	20084
893.207	20115
893.33	19974
893.452	19883
893.575	19928
893.697	20020
893.819	20195
893.941	20240
894.064	20130
894.186	20069
894.308	19997
894.43	20122
894.552	20100
894.674	20168
894.796	19974
894.918	20180
895.04	20012
895.161	20130
895.283	20122
895.405	19909
895.526	19887
895.648	20008
895.769	20225
895.891	20058
896.012	20142
896.134	20001
896.255	20122
896.376	20054
896.498	20092
896.619	20020
896.74	20016
896.861	20096
896.982	20199
897.103	20400
897.224	20290
897.345	20248
897.466	20214
897.587	20324
897.708	20282
897.828	20355
897.949	20214
898.07	20084
898.19	20210
898.311	20225
898.431	20142
898.552	20229
898.672	20339
898.792	20298
898.913	20336
899.033	20115
899.153	20001
899.273	19982
899.393	19928
899.513	20149
899.633	20161
899.753	20035
899.873	19864
899.993	20073
900.113	19974
900.232	19944
900.352	20024
900.472	19837
900.591	19826
900.711	19795
900.83	19734
900.95	19879
901.069	19913
901.189	19776
901.308	19487
901.427	19400
901.546	19324
901.665	19350
901.784	19438
901.904	19213
902.023	19228
902.141	18905
902.26	18924
902.379	18935
902.498	18878
902.617	18890
902.735	18802
902.854	18932
902.973	18875
903.091	18589
903.21	18582
903.328	18471
903.446	18410
903.565	18296
903.683	18369
903.801	18273
903.919	18304
904.038	18239
904.156	18159
904.274	18129
904.392	18186
904.51	17992
904.627	18095
904.745	18209
904.863	18117
904.981	17901
905.098	17859
905.216	17874
905.334	17874
905.451	17760
905.569	17760
905.686	17863
905.803	17859
905.921	17695
906.038	17661
906.155	17676
906.272	17509
906.389	17448
906.506	17433
906.623	17311
906.74	17318
906.857	17318
906.974	17265
907.091	17436
907.208	17467
907.324	17425
907.441	17181
907.557	17151
907.674	17109
907.79	16987
907.907	17083
908.023	17071
908.139	17166
908.256	17014
908.372	16900
908.488	17010
908.604	16847
908.72	16755
908.836	16847
908.952	16809
909.068	16805
909.184	16885
909.3	16877
909.415	16873
909.531	16710
909.647	16550
909.762	16512
909.878	16451
909.993	16432
910.108	16451
910.224	16497
910.339	16455
910.454	16432
910.57	16249
910.685	16272
910.8	16481
910.915	16493
911.03	16261
911.145	16067
911.259	16116
911.374	16147
911.489	15972
911.604	16040
911.718	15915
911.833	15842
911.947	15785
912.062	15705
912.176	15797
912.291	15747
912.405	15808
912.519	15964
912.633	15968
912.748	15831
912.862	15759
912.976	15679
913.09	15637
913.204	15561
913.318	15667
913.431	15732
913.545	15690
913.659	15816
913.772	15641
913.886	15526
914	15401
914.113	15553
914.226	15576
914.34	15439
914.453	15226
914.566	15466
914.68	15363
914.793	15348
914.906	15165
915.019	15089
915.132	15047
915.245	15089
915.358	15093
915.47	15032
915.583	15108
915.696	15104
915.809	15123
915.921	15146
916.034	14952
916.146	14975
916.259	14929
916.371	15089
916.483	14975
916.595	14823
916.708	14864
916.82	14956
916.932	14845
917.044	14834
917.156	14838
917.268	14659
917.38	14716
917.491	14678
917.603	14678
917.715	14785
917.826	14800
917.938	14625
918.049	14518
918.161	14682
918.272	14788
918.384	14849
918.495	14648
918.606	14469
918.717	14457
918.828	14415
918.939	14511
919.05	14374
919.161	14400
919.272	14244
919.383	14332
919.494	14457
919.604	14754
919.715	14427
919.826	14202
919.936	14393
920.047	14575
920.157	14461
920.267	14674
920.378	14404
920.488	14370
920.598	14667
920.708	14750
920.818	14590
920.928	14602
921.038	14708
921.148	14697
921.258	14290
921.368	14309
921.477	14214
921.587	14206
921.697	14020
921.806	14164
921.916	14077
922.025	13879
922.134	13909
922.244	13677
922.353	13830
922.462	13712
922.571	13662
922.68	13480
922.789	13480
922.898	13441
923.007	13377
923.116	13525
923.224	13438
923.333	13434
923.442	13308
923.55	13236
923.659	13221
923.767	13449
923.876	13232
923.984	13316
924.092	13133
924.201	13213
924.309	13217
924.417	13236
924.525	13080
924.633	13122
924.741	13887
924.849	12916
924.956	13133
925.064	12928
925.172	12871
925.279	12894
925.387	12905
925.494	12856
925.602	13004
925.709	12882
925.816	12795
925.924	12779
926.031	12973
926.138	12817
926.245	12894
926.352	12764
926.459	12878
926.566	12837
926.673	12719
926.779	12578
926.886	12654
926.993	12578
927.099	12426
927.206	12323
927.312	12380
927.419	12410
927.525	12521
927.631	12464
927.737	12319
927.843	12353
927.95	12144
928.056	12315
928.162	12281
928.267	12365
928.373	12981
928.479	12251
928.585	12102
928.69	12239
928.796	12194
928.901	12163
929.007	11973
929.112	12110
929.218	12106
929.323	12038
929.428	12068
929.533	12083
929.638	11927
929.743	11901
929.848	11996
929.953	11958
930.058	11779
930.163	11707
930.267	11790
930.372	11813
930.477	11657
930.581	11855
930.685	11714
930.79	11535
930.894	11695
930.998	11573
931.103	11691
931.207	11303
931.311	11326
931.415	11128
931.519	10984
931.623	10927
