Data from test_V78500241_1683.txt Node
Date: Fri Mar 25 15:21:34 CST 2022
User: usil
Spectrometer: V785-0024
Trigger mode: 0
Integration Time (sec): 4.000000E-1
Scans to average: 1
Nonlinearity correction enabled: false
Boxcar width: 0
Storing dark spectrum: false
XAxis mode: Wavelengths
Number of Pixels in Spectrum: 1024
>>>>>Begin Spectral Data<<<<<
801.071	28051
801.214	27949
801.356	27774
801.499	27572
801.641	27496
801.783	27583
801.926	27633
802.068	27606
802.211	27549
802.353	27504
802.496	27306
802.638	27291
802.78	27192
802.923	27192
803.065	27203
803.208	27294
803.35	27249
803.492	27321
803.635	27393
803.777	27306
803.919	27427
804.061	27743
804.204	27348
804.346	27351
804.488	27256
804.63	27378
804.773	27252
804.915	27260
805.057	27526
805.199	27378
805.341	27667
805.483	27705
805.626	27466
805.768	27477
805.91	27553
806.052	27553
806.194	27511
806.336	27656
806.478	27515
806.62	27496
806.762	27656
806.904	27766
807.046	28135
807.188	27922
807.33	27941
807.472	27934
807.614	27964
807.756	27930
807.898	27895
808.04	27694
808.182	27766
808.324	27835
808.465	28017
808.607	28044
808.749	28166
808.891	28329
809.033	28261
809.174	28173
809.316	28097
809.458	28173
809.6	28173
809.741	28325
809.883	28348
810.025	28417
810.166	28371
810.308	28516
810.45	28421
810.591	28436
810.733	28322
810.875	28135
811.016	28306
811.158	28215
811.299	28090
811.441	28154
811.582	28352
811.724	28242
811.865	28207
812.007	28143
812.148	28185
812.29	28303
812.431	28398
812.573	28557
812.714	28763
812.855	28744
812.997	28839
813.138	29025
813.279	28843
813.421	28744
813.562	28706
813.703	28428
813.845	28451
813.986	28204
814.127	27934
814.268	27880
814.41	28074
814.551	27797
814.692	27876
814.833	27770
814.974	27831
815.115	27907
815.256	27892
815.397	27797
815.539	27880
815.68	27789
815.821	27580
815.962	27625
816.103	27713
816.244	27557
816.385	27595
816.526	27485
816.666	27488
816.807	27055
816.948	27161
817.089	27359
817.23	27222
817.371	27340
817.512	27001
817.653	27093
817.793	27150
817.934	27279
818.075	27165
818.216	27184
818.356	27051
818.497	27043
818.638	26956
818.778	26933
818.919	26940
819.06	27009
819.2	27074
819.341	27192
819.481	27211
819.622	27306
819.762	27549
819.903	27348
820.043	27397
820.184	27325
820.324	27165
820.465	27427
820.605	27363
820.746	27226
820.886	27157
821.026	27237
821.167	27195
821.307	27355
821.447	27173
821.588	27226
821.728	26967
821.868	26746
822.008	26815
822.149	26731
822.289	26792
822.429	26362
822.569	26301
822.709	26263
822.849	26229
822.99	26149
823.13	26225
823.27	26244
823.41	25997
823.55	25845
823.69	26016
823.83	26024
823.97	26020
824.11	25860
824.25	25814
824.389	25837
824.529	25849
824.669	25970
824.809	25902
824.949	25799
825.089	25944
825.228	25807
825.368	25635
825.508	25750
825.648	25647
825.787	25883
825.927	25689
826.067	25674
826.206	25628
826.346	25712
826.485	25693
826.625	25643
826.765	25719
826.904	25685
827.044	25658
827.183	25426
827.323	25324
827.462	25403
827.601	25575
827.741	25381
827.88	25457
828.02	25236
828.159	25381
828.298	25354
828.437	25403
828.577	25350
828.716	25434
828.855	25365
828.994	25107
829.134	25118
829.273	25198
829.412	25126
829.551	25065
829.69	25190
829.829	25118
829.968	25156
830.107	25122
830.246	25050
830.385	25076
830.524	24905
830.663	24840
830.802	24840
830.941	24757
831.08	24658
831.219	24776
831.357	24852
831.496	24863
831.635	24669
831.774	24654
831.913	24582
832.051	24407
832.19	24475
832.329	24467
832.467	24426
832.606	24403
832.744	24338
832.883	24357
833.022	24353
833.16	24456
833.299	24304
833.437	24365
833.576	24403
833.714	24486
833.852	24517
833.991	24407
834.129	24570
834.267	24585
834.406	24513
834.544	24502
834.682	24498
834.821	24437
834.959	24642
835.097	24422
835.235	24517
835.373	24391
835.511	24388
835.65	24334
835.788	24304
835.926	24292
836.064	23999
836.202	24125
836.34	24296
836.478	24380
836.615	24201
836.753	24209
836.891	24380
837.029	24205
837.167	24323
837.305	24110
837.443	24182
837.58	24174
837.718	24174
837.856	24144
837.993	24102
838.131	24125
838.269	23961
838.406	23958
838.544	23832
838.681	23691
838.819	23703
838.956	23566
839.094	23699
839.231	23726
839.369	23843
839.506	23866
839.643	23855
839.781	23573
839.918	23463
840.055	23535
840.193	23531
840.33	23474
840.467	23463
840.604	23554
840.742	23722
840.879	23417
841.016	23440
841.153	23417
841.29	23585
841.427	23528
841.564	23707
841.701	23562
841.838	23356
841.975	23425
842.112	23326
842.249	23398
842.385	23330
842.522	23406
842.659	23360
842.796	23269
842.933	23410
843.069	23204
843.206	23185
843.343	23242
843.479	23231
843.616	23261
843.752	23086
843.889	23181
844.025	23128
844.162	23033
844.298	23071
844.435	23102
844.571	22889
844.708	23223
844.844	23220
844.98	23265
845.117	23136
845.253	23098
845.389	22911
845.525	22991
845.661	22896
845.798	22927
845.934	22900
846.07	22759
846.206	22793
846.342	22942
846.478	22824
846.614	22607
846.75	22554
846.886	22360
847.022	22474
847.158	22485
847.294	22615
847.429	22554
847.565	22432
847.701	22694
847.837	22363
847.972	22234
848.108	22272
848.244	22390
848.379	22025
848.515	22063
848.65	22055
848.786	22169
848.921	22139
849.057	22200
849.192	22215
849.328	22139
849.463	22112
849.598	22010
849.734	22044
849.869	21945
850.004	21907
850.14	21975
850.275	21816
850.41	21701
850.545	21766
850.68	21850
850.815	21918
850.95	21747
851.085	22093
851.22	21922
851.355	21884
851.49	21842
851.625	21941
851.76	21873
851.895	21838
852.03	21804
852.165	21736
852.299	21747
852.434	21907
852.569	21778
852.703	21880
852.838	21945
852.973	21972
853.107	21831
853.242	21857
853.376	21823
853.511	21485
853.645	21660
853.78	21869
853.914	21789
854.048	21686
854.183	21774
854.317	21816
854.451	21857
854.585	21778
854.72	21690
854.854	21831
854.988	21591
855.122	21614
855.256	21511
855.39	21572
855.524	21629
855.658	21793
855.792	21755
855.926	21770
856.06	21656
856.194	21736
856.327	21789
856.461	21705
856.595	21492
856.729	21701
856.862	21778
856.996	21690
857.13	21739
857.263	21762
857.397	21675
857.53	21660
857.664	21736
857.797	21690
857.931	21759
858.064	21679
858.197	21747
858.331	21713
858.464	21580
858.597	21603
858.731	21705
858.864	21610
858.997	21629
859.13	21682
859.263	21800
859.396	21694
859.529	21530
859.662	21724
859.795	21736
859.928	21641
860.061	21892
860.194	21835
860.327	21709
860.46	21770
860.592	21751
860.725	21880
860.858	21808
860.99	21633
861.123	21526
861.256	21667
861.388	21667
861.521	22325
861.653	21538
861.786	21507
861.918	21469
862.05	21660
862.183	21564
862.315	21572
862.447	21557
862.58	21545
862.712	21431
862.844	21393
862.976	21466
863.108	21443
863.24	21831
863.372	21420
863.504	21378
863.636	21382
863.768	21473
863.9	21348
864.032	21291
864.164	21329
864.296	21393
864.428	21424
864.559	21466
864.691	21420
864.823	21450
864.954	21370
865.086	21279
865.217	21203
865.349	21275
865.48	21405
865.612	21355
865.743	21488
865.875	21325
866.006	21233
866.137	21169
866.269	21184
866.4	21245
866.531	21192
866.662	21184
866.793	21192
866.924	21123
867.055	21260
867.186	21313
867.317	21192
867.448	21192
867.579	21169
867.71	21089
867.841	21119
867.972	21146
868.103	21165
868.233	21233
868.364	21173
868.495	21192
868.625	21500
868.756	21500
868.886	21389
869.017	21488
869.147	21553
869.278	21545
869.408	21332
869.539	21542
869.669	21671
869.799	21561
869.929	21534
870.06	21568
870.19	21682
870.32	21713
870.45	21701
870.58	21732
870.71	21903
870.84	22078
870.97	21747
871.1	21823
871.23	22002
871.36	22036
871.489	22059
871.619	21987
871.749	21991
871.879	22044
872.008	22006
872.138	22078
872.267	21960
872.397	21941
872.526	21838
872.656	21915
872.785	21857
872.915	22063
873.044	22082
873.173	22093
873.303	22276
873.432	21983
873.561	22109
873.69	22036
873.819	21926
873.948	22044
874.077	21975
874.206	21983
874.335	22021
874.464	22101
874.593	22253
874.722	22116
874.851	22337
874.979	22375
875.108	22371
875.237	22124
875.365	22219
875.494	22314
875.623	22341
875.751	22306
875.88	22344
876.008	22348
876.136	22550
876.265	22729
876.393	22771
876.521	22786
876.65	22752
876.778	22565
876.906	22653
877.034	22497
877.162	22706
877.29	22596
877.418	22557
877.546	22683
877.674	22653
877.802	22668
877.93	22565
878.058	22474
878.185	22402
878.313	22516
878.441	22599
878.568	22432
878.696	22573
878.824	22668
878.951	22706
879.079	22824
879.206	22923
879.333	22691
879.461	22573
879.588	22866
879.715	22869
879.842	22889
879.97	22717
880.097	22367
880.224	22443
880.351	22478
880.478	22478
880.605	22459
880.732	22360
880.859	22702
880.986	22470
881.112	22436
881.239	22276
881.366	22139
881.493	22036
881.619	22101
881.746	22143
881.872	22135
881.999	21975
882.125	21918
882.252	21983
882.378	21937
882.505	22162
882.631	21861
882.757	21743
882.883	21720
883.01	21724
883.136	21679
883.262	21660
883.388	21515
883.514	21732
883.64	21812
883.766	21663
883.892	21519
884.018	21545
884.143	21808
884.269	21694
884.395	21416
884.52	21218
884.646	21340
884.772	21386
884.897	21245
885.023	21367
885.148	21435
885.274	21542
885.399	21428
885.524	21332
885.65	21321
885.775	21351
885.9	21359
886.025	21488
886.15	21420
886.275	21241
886.4	21199
886.525	21355
886.65	21287
886.775	21268
886.9	21504
887.025	21458
887.149	21226
887.274	21119
887.399	21241
887.523	21180
887.648	21058
887.773	21039
887.897	21252
888.021	21108
888.146	21028
888.27	21199
888.395	21074
888.519	21237
888.643	21169
888.767	21169
888.891	20975
889.015	20933
889.139	20948
889.263	21013
889.387	20845
889.511	21146
889.635	21127
889.759	20910
889.883	20880
890.006	20788
890.13	21062
890.254	20807
890.377	20861
890.501	20689
890.624	20693
890.748	20693
890.871	20499
890.995	20381
891.118	20545
891.241	20465
891.364	20313
891.488	20648
891.611	20533
891.734	20450
891.857	20560
891.98	20438
892.103	20313
892.226	20492
892.349	20358
892.471	20290
892.594	20385
892.717	20431
892.839	20145
892.962	20332
893.085	20408
893.207	20271
893.33	20164
893.452	20305
893.575	20385
893.697	20275
893.819	20442
893.941	20530
894.064	20518
894.186	20339
894.308	20263
894.43	20419
894.552	20450
894.674	20423
894.796	20275
894.918	20298
895.04	20233
895.161	20446
895.283	20377
895.405	20309
895.526	20362
895.648	20294
895.769	20450
895.891	20480
896.012	20408
896.134	20396
896.255	20393
896.376	20271
896.498	20320
896.619	20309
896.74	20461
896.861	20427
896.982	20655
897.103	20720
897.224	20613
897.345	20552
897.466	20423
897.587	20579
897.708	20716
897.828	20686
897.949	20556
898.07	20484
898.19	20511
898.311	20746
898.431	20484
898.552	20530
898.672	20571
898.792	20613
898.913	20446
899.033	20476
899.153	20492
899.273	20328
899.393	20218
899.513	20377
899.633	20286
899.753	20446
899.873	20183
899.993	20282
900.113	20339
900.232	20180
900.352	20161
900.472	20168
900.591	20164
900.711	20069
900.83	19970
900.95	20142
901.069	20138
901.189	20050
901.308	19753
901.427	19666
901.546	19753
901.665	19590
901.784	19677
901.904	19506
902.023	19373
902.141	19247
902.26	19171
902.379	19301
902.498	19164
902.617	19148
902.735	19160
902.854	19076
902.973	19232
903.091	18935
903.21	18878
903.328	18821
903.446	18760
903.565	18620
903.683	18570
903.801	18483
903.919	18715
904.038	18563
904.156	18441
904.274	18559
904.392	18532
904.51	18346
904.627	18403
904.745	18437
904.863	18551
904.981	18407
905.098	18041
905.216	18133
905.334	18190
905.451	17992
905.569	18053
905.686	18087
905.803	18060
905.921	17916
906.038	17980
906.155	17847
906.272	17775
906.389	17737
906.506	17657
906.623	17718
906.74	17554
906.857	17516
906.974	17532
907.091	17672
907.208	17722
907.324	17619
907.441	17577
907.557	17429
907.674	17398
907.79	17356
907.907	17280
908.023	17307
908.139	17288
908.256	17315
908.372	17303
908.488	17220
908.604	17064
908.72	17029
908.836	17029
908.952	16934
909.068	17079
909.184	17159
909.3	17071
909.415	17022
909.531	17071
909.647	16801
909.762	16778
909.878	16786
909.993	16748
910.108	16736
910.224	16694
910.339	16729
910.454	16679
910.57	16588
910.685	16428
910.8	16721
910.915	16622
911.03	16512
911.145	16398
911.259	16382
911.374	16386
911.489	16318
911.604	16265
911.718	16029
911.833	16135
911.947	16055
912.062	15857
912.176	16021
912.291	16071
912.405	16025
912.519	16261
912.633	16162
912.748	16158
912.862	16002
912.976	15922
913.09	15804
913.204	15876
913.318	15785
913.431	15911
913.545	15987
913.659	15987
913.772	15838
913.886	15724
914	15660
914.113	15770
914.226	15751
914.34	15713
914.453	15675
914.566	15679
914.68	15523
914.793	15515
914.906	15363
915.019	15386
915.132	15268
915.245	15291
915.358	15245
915.47	15325
915.583	15294
915.696	15283
915.809	15424
915.921	15447
916.034	15180
916.146	15169
916.259	15226
916.371	15245
916.483	15161
916.595	15157
916.708	15123
916.82	15142
916.932	15070
917.044	15036
917.156	15112
917.268	14895
917.38	15104
917.491	14937
917.603	14902
917.715	15020
917.826	15020
917.938	14925
918.049	14868
918.161	14891
918.272	15024
918.384	15009
918.495	14853
918.606	14678
918.717	14602
918.828	14807
918.939	14743
919.05	14556
919.161	14678
919.272	14476
919.383	14568
919.494	14617
919.604	14887
919.715	14617
919.826	14598
919.936	14663
920.047	14823
920.157	14682
920.267	14849
920.378	14659
920.488	14587
920.598	14765
920.708	14941
920.818	14701
920.928	14727
921.038	14902
921.148	14902
921.258	14594
921.368	14446
921.477	14446
921.587	14408
921.697	14244
921.806	14423
921.916	14271
922.025	14012
922.134	14111
922.244	13974
922.353	14050
922.462	13959
922.571	13807
922.68	13757
922.789	13628
922.898	13685
923.007	13594
923.116	13689
923.224	13647
923.333	13518
923.442	13510
923.55	13533
923.659	13533
923.767	13559
923.876	13415
923.984	13510
924.092	13354
924.201	13381
924.309	13373
924.417	13419
924.525	13312
924.633	13320
924.741	14081
924.849	13057
924.956	13285
925.064	13103
925.172	13027
925.279	13156
925.387	13091
925.494	13133
925.602	13168
925.709	13053
925.816	12958
925.924	13046
926.031	13103
926.138	12996
926.245	13027
926.352	13057
926.459	13000
926.566	13000
926.673	13015
926.779	12928
926.886	12859
926.993	12749
927.099	12593
927.206	12604
927.312	12578
927.419	12677
927.525	12620
927.631	12585
927.737	12528
927.843	12540
927.95	12342
928.056	12388
928.162	12464
928.267	12525
928.373	12993
928.479	12604
928.585	12296
928.69	12330
928.796	12513
928.901	12285
929.007	12209
929.112	12308
929.218	12175
929.323	12319
929.428	12190
929.533	12251
929.638	12155
929.743	12098
929.848	12064
929.953	12186
930.058	12110
930.163	11836
930.267	12026
930.372	12007
930.477	11866
930.581	12057
930.685	11923
930.79	11733
930.894	11764
930.998	11665
931.103	11843
931.207	11512
931.311	11417
931.415	11277
931.519	11181
931.623	11124
