Data from test_V78500241_499.txt Node
Date: Fri Mar 25 15:13:20 CST 2022
User: usil
Spectrometer: V785-0024
Trigger mode: 0
Integration Time (sec): 4.000000E-1
Scans to average: 1
Nonlinearity correction enabled: false
Boxcar width: 0
Storing dark spectrum: false
XAxis mode: Wavelengths
Number of Pixels in Spectrum: 1024
>>>>>Begin Spectral Data<<<<<
801.071	27477
801.214	27477
801.356	27291
801.499	27214
801.641	27085
801.783	27150
801.926	27135
802.068	27108
802.211	27176
802.353	26990
802.496	26853
802.638	26811
802.78	26762
802.923	26678
803.065	26720
803.208	26811
803.35	26735
803.492	26830
803.635	26910
803.777	26868
803.919	27009
804.061	27154
804.204	26849
804.346	26769
804.488	26910
804.63	26804
804.773	26804
804.915	26960
805.057	27093
805.199	27028
805.341	27001
805.483	26998
805.626	26876
805.768	26830
805.91	26982
806.052	27154
806.194	26979
806.336	27127
806.478	27154
806.62	26929
806.762	27119
806.904	27397
807.046	27500
807.188	27496
807.33	27332
807.472	27553
807.614	27530
807.756	27367
807.898	27150
808.04	27252
808.182	27260
808.324	27260
808.465	27252
808.607	27648
808.749	27515
808.891	27637
809.033	27835
809.174	27747
809.316	27599
809.458	27671
809.6	27618
809.741	27823
809.883	27785
810.025	27953
810.166	28010
810.308	28013
810.45	27918
810.591	27812
810.733	27770
810.875	27576
811.016	27572
811.158	27622
811.299	27713
811.441	27835
811.582	27785
811.724	27561
811.865	27755
812.007	27492
812.148	27606
812.29	27603
812.431	27846
812.573	28013
812.714	28093
812.855	28139
812.997	28333
813.138	28443
813.279	28310
813.421	28154
813.562	28246
813.703	28086
813.845	27907
813.986	27583
814.127	27545
814.268	27287
814.41	27412
814.551	27184
814.692	27359
814.833	27283
814.974	27294
815.115	27260
815.256	27272
815.397	27268
815.539	27192
815.68	27093
815.821	27089
815.962	27131
816.103	27207
816.244	27001
816.385	26918
816.526	26853
816.666	26781
816.807	26716
816.948	26583
817.089	26785
817.23	26731
817.371	26617
817.512	26530
817.653	26621
817.793	26598
817.934	26518
818.075	26750
818.216	26689
818.356	26514
818.497	26423
818.638	26442
818.778	26343
818.919	26419
819.06	26438
819.2	26495
819.341	26461
819.481	26644
819.622	26644
819.762	26929
819.903	26830
820.043	26697
820.184	26739
820.324	26819
820.465	26906
820.605	26655
820.746	26746
820.886	26651
821.026	26769
821.167	26746
821.307	26788
821.447	26594
821.588	26507
821.728	26526
821.868	26290
822.008	26062
822.149	26035
822.289	25986
822.429	25841
822.569	25719
822.709	25814
822.849	25559
822.99	25632
823.13	25563
823.27	25506
823.41	25415
823.55	25297
823.69	25381
823.83	25331
823.97	25354
824.11	25350
824.25	25156
824.389	25217
824.529	25202
824.669	25232
824.809	25358
824.949	25266
825.089	25293
825.228	25392
825.368	25126
825.508	25129
825.648	25164
825.787	25148
825.927	25091
826.067	25008
826.206	25095
826.346	25114
826.485	24970
826.625	25141
826.765	25099
826.904	25061
827.044	24920
827.183	24871
827.323	24806
827.462	24837
827.601	24711
827.741	24825
827.88	24795
828.02	24768
828.159	24745
828.298	24681
828.437	24962
828.577	24749
828.716	24905
828.855	24715
828.994	24486
829.134	24601
829.273	24612
829.412	24505
829.551	24429
829.69	24574
829.829	24540
829.968	24578
830.107	24616
830.246	24521
830.385	24509
830.524	24289
830.663	24456
830.802	24327
830.941	24060
831.08	24152
831.219	24144
831.357	24266
831.496	24296
831.635	24102
831.774	24026
831.913	24011
832.051	23977
832.19	23863
832.329	23977
832.467	23843
832.606	23722
832.744	23794
832.883	23885
833.022	23764
833.16	23783
833.299	23733
833.437	23832
833.576	23828
833.714	23916
833.852	24053
833.991	23893
834.129	24011
834.267	23916
834.406	23874
834.544	23832
834.682	23870
834.821	23904
834.959	23863
835.097	23866
835.235	23889
835.373	23942
835.511	23923
835.65	23786
835.788	23695
835.926	23543
836.064	23433
836.202	23585
836.34	23592
836.478	23824
836.615	23722
836.753	23729
836.891	23722
837.029	23691
837.167	23608
837.305	23520
837.443	23528
837.58	23600
837.718	23649
837.856	23592
837.993	23566
838.131	23619
838.269	23543
838.406	23566
838.544	23341
838.681	23170
838.819	23136
838.956	23018
839.094	23022
839.231	23075
839.369	23159
839.506	23429
839.643	23227
839.781	22968
839.918	22915
840.055	23052
840.193	22904
840.33	22961
840.467	22976
840.604	23071
840.742	23223
840.879	22904
841.016	22850
841.153	22839
841.29	23029
841.427	22782
841.564	22900
841.701	22824
841.838	22877
841.975	22790
842.112	22881
842.249	22687
842.385	22679
842.522	22999
842.659	22672
842.796	22668
842.933	22706
843.069	22675
843.206	22599
843.343	22790
843.479	22797
843.616	22588
843.752	22519
843.889	22462
844.025	22649
844.162	22535
844.298	22580
844.435	22557
844.571	22440
844.708	22436
844.844	22580
844.98	22637
845.117	22565
845.253	22417
845.389	22455
845.525	22348
845.661	22166
845.798	22268
845.934	22276
846.07	22268
846.206	22276
846.342	22348
846.478	22158
846.614	21998
846.75	21975
846.886	21949
847.022	21972
847.158	21994
847.294	21838
847.429	22040
847.565	21926
847.701	22177
847.837	21770
847.972	21694
848.108	21789
848.244	21778
848.379	21561
848.515	21523
848.65	21545
848.786	21507
848.921	21679
849.057	21660
849.192	21679
849.328	21572
849.463	21572
849.598	21591
849.734	21428
849.869	21382
850.004	21374
850.14	21272
850.275	21336
850.41	21325
850.545	21329
850.68	21340
850.815	21252
850.95	21405
851.085	21450
851.22	21519
851.355	21351
851.49	21260
851.625	21279
851.76	21317
851.895	21310
852.03	21211
852.165	21348
852.299	21416
852.434	21363
852.569	21272
852.703	21317
852.838	21336
852.973	21424
853.107	21462
853.242	21313
853.376	21169
853.511	21104
853.645	21127
853.78	21260
853.914	21207
854.048	20998
854.183	21218
854.317	21226
854.451	21252
854.585	21161
854.72	21249
854.854	21329
854.988	21123
855.122	21058
855.256	20918
855.39	21036
855.524	21146
855.658	21348
855.792	21203
855.926	21112
856.06	21184
856.194	21176
856.327	21157
856.461	21112
856.595	21180
856.729	21070
856.862	21218
856.996	21207
857.13	21157
857.263	21272
857.397	21245
857.53	21112
857.664	21184
857.797	21123
857.931	21180
858.064	21165
858.197	21294
858.331	21150
858.464	21116
858.597	21032
858.731	21043
858.864	21074
858.997	21093
859.13	21112
859.263	21066
859.396	21241
859.529	21047
859.662	21142
859.795	21085
859.928	21070
860.061	21306
860.194	21348
860.327	21252
860.46	21161
860.592	21294
860.725	21355
860.858	21351
860.99	21123
861.123	21112
861.256	21001
861.388	21199
861.521	21762
861.653	20994
861.786	20929
861.918	20998
862.05	20994
862.183	21032
862.315	21100
862.447	21211
862.58	21066
862.712	20868
862.844	20804
862.976	20899
863.108	20933
863.24	21203
863.372	20811
863.504	20921
863.636	20853
863.768	20887
863.9	20853
864.032	20758
864.164	20842
864.296	20948
864.428	20975
864.559	20891
864.691	20895
864.823	20883
864.954	20845
865.086	20845
865.217	20807
865.349	20648
865.48	20796
865.612	20823
865.743	20872
865.875	20754
866.006	20773
866.137	20781
866.269	20648
866.4	20682
866.531	20636
866.662	20575
866.793	20587
866.924	20754
867.055	20750
867.186	20621
867.317	20724
867.448	20667
867.579	20598
867.71	20663
867.841	20606
867.972	20712
868.103	20648
868.233	20735
868.364	20739
868.495	20857
868.625	20933
868.756	21017
868.886	20781
869.017	20883
869.147	20986
869.278	20982
869.408	20944
869.539	20906
869.669	20948
869.799	21024
869.929	21154
870.06	21074
870.19	21275
870.32	21203
870.45	21233
870.58	21313
870.71	21401
870.84	21485
870.97	21370
871.1	21332
871.23	21481
871.36	21690
871.489	21447
871.619	21454
871.749	21439
871.879	21545
872.008	21622
872.138	21507
872.267	21488
872.397	21386
872.526	21416
872.656	21321
872.785	21351
872.915	21587
873.044	21583
873.173	21587
873.303	21519
873.432	21576
873.561	21679
873.69	21530
873.819	21511
873.948	21671
874.077	21473
874.206	21530
874.335	21504
874.464	21447
874.593	21804
874.722	21831
874.851	21747
874.979	21724
875.108	21785
875.237	21701
875.365	21682
875.494	21755
875.623	21854
875.751	21618
875.88	21865
876.008	21945
876.136	21911
876.265	22139
876.393	22204
876.521	22207
876.65	22230
876.778	22090
876.906	22105
877.034	22154
877.162	22120
877.29	22162
877.418	22131
877.546	22090
877.674	22070
877.802	22185
877.93	22074
878.058	22135
878.185	22006
878.313	22158
878.441	22086
878.568	21949
878.696	22093
878.824	22181
878.951	22162
879.079	22367
879.206	22352
879.333	22291
879.461	22116
879.588	22329
879.715	22306
879.842	22382
879.97	22154
880.097	21915
880.224	21907
880.351	21937
880.478	22032
880.605	21903
880.732	21880
880.859	22139
880.986	21941
881.112	21960
881.239	21781
881.366	21667
881.493	21557
881.619	21481
881.746	21557
881.872	21595
881.999	21466
882.125	21355
882.252	21412
882.378	21397
882.505	21538
882.631	21386
882.757	21287
882.883	21332
883.01	21222
883.136	21233
883.262	21108
883.388	21089
883.514	21325
883.64	21313
883.766	21112
883.892	21020
884.018	20982
884.143	21108
884.269	21348
884.395	21074
884.52	20838
884.646	21001
884.772	20830
884.897	20773
885.023	20952
885.148	20781
885.274	20994
885.399	20929
885.524	20842
885.65	20834
885.775	20887
885.9	20910
886.025	21066
886.15	20853
886.275	20849
886.4	20800
886.525	20883
886.65	20705
886.775	20792
886.9	20910
887.025	20994
887.149	20743
887.274	20674
887.399	20594
887.523	20598
887.648	20587
887.773	20530
887.897	20659
888.021	20606
888.146	20655
888.27	20781
888.395	20800
888.519	20720
888.643	20644
888.767	20682
888.891	20613
889.015	20476
889.139	20465
889.263	20461
889.387	20617
889.511	20655
889.635	20526
889.759	20457
889.883	20499
890.006	20389
890.13	20488
890.254	20381
890.377	20358
890.501	20130
890.624	20088
890.748	20218
890.871	20107
890.995	19967
891.118	19974
891.241	19978
891.364	20096
891.488	20138
891.611	20043
891.734	19932
891.857	20130
891.98	20020
892.103	19902
892.226	20016
892.349	20016
892.471	19788
892.594	19932
892.717	19890
892.839	19955
892.962	19951
893.085	20027
893.207	19845
893.33	19723
893.452	19849
893.575	19944
893.697	19940
893.819	19997
893.941	20069
894.064	20035
894.186	19791
894.308	19811
894.43	19970
894.552	19974
894.674	20012
894.796	19830
894.918	19978
895.04	19852
895.161	20054
895.283	20065
895.405	19852
895.526	19940
895.648	19982
895.769	19970
895.891	19917
896.012	20161
896.134	20012
896.255	20054
896.376	19940
896.498	19734
896.619	19959
896.74	19925
896.861	20046
896.982	20252
897.103	20362
897.224	20058
897.345	20176
897.466	20062
897.587	20180
897.708	20252
897.828	20199
897.949	20039
898.07	20016
898.19	20005
898.311	20218
898.431	19959
898.552	20164
898.672	20191
898.792	20168
898.913	20248
899.033	20016
899.153	19894
899.273	19879
899.393	19894
899.513	19974
899.633	19993
899.753	19883
899.873	19776
899.993	19830
900.113	19799
900.232	19921
900.352	19791
900.472	19643
900.591	19647
900.711	19655
900.83	19544
900.95	19814
901.069	19761
901.189	19582
901.308	19396
901.427	19331
901.546	19232
901.665	19270
901.784	19217
901.904	19122
902.023	19046
902.141	18833
902.26	18840
902.379	18867
902.498	18795
902.617	18757
902.735	18810
902.854	18654
902.973	18589
903.091	18578
903.21	18464
903.328	18494
903.446	18338
903.565	18247
903.683	18334
903.801	18133
903.919	18273
904.038	18091
904.156	18102
904.274	18064
904.392	17973
904.51	18022
904.627	17965
904.745	18064
904.863	18060
904.981	17942
905.098	17733
905.216	17695
905.334	17779
905.451	17737
905.569	17745
905.686	17638
905.803	17611
905.921	17505
906.038	17623
906.155	17474
906.272	17349
906.389	17326
906.506	17166
906.623	17204
906.74	17239
906.857	17143
906.974	17048
907.091	17318
907.208	17376
907.324	17284
907.441	17083
907.557	17071
907.674	16999
907.79	16938
907.907	16904
908.023	16942
908.139	16866
908.256	16885
908.372	16835
908.488	16767
908.604	16691
908.72	16634
908.836	16828
908.952	16683
909.068	16584
909.184	16771
909.3	16694
909.415	16702
909.531	16508
909.647	16413
909.762	16333
909.878	16386
909.993	16474
910.108	16352
910.224	16394
910.339	16363
910.454	16207
910.57	16196
910.685	16219
910.8	16451
910.915	16428
911.03	16173
911.145	15987
911.259	16013
911.374	15964
911.489	15895
911.604	15873
911.718	15732
911.833	15728
911.947	15614
912.062	15523
912.176	15732
912.291	15679
912.405	15660
912.519	15975
912.633	15922
912.748	15789
912.862	15625
912.976	15568
913.09	15469
913.204	15595
913.318	15496
913.431	15660
913.545	15591
913.659	15572
913.772	15488
913.886	15405
914	15294
914.113	15431
914.226	15515
914.34	15306
914.453	15203
914.566	15336
914.68	15256
914.793	15203
914.906	15081
915.019	14914
915.132	15009
915.245	14849
915.358	14998
915.47	14975
915.583	14986
915.696	15085
915.809	15024
915.921	15119
916.034	14937
916.146	14834
916.259	14769
916.371	14880
916.483	14921
916.595	14826
916.708	14826
916.82	14773
916.932	14746
917.044	14758
917.156	14678
917.268	14655
917.38	14640
917.491	14575
917.603	14568
917.715	14701
917.826	14765
917.938	14511
918.049	14438
918.161	14552
918.272	14644
918.384	14674
918.495	14484
918.606	14442
918.717	14332
918.828	14355
918.939	14465
919.05	14404
919.161	14347
919.272	14107
919.383	14240
919.494	14343
919.604	14583
919.715	14328
919.826	14377
919.936	14248
920.047	14438
920.157	14275
920.267	14499
920.378	14362
920.488	14393
920.598	14438
920.708	14644
920.818	14450
920.928	14404
921.038	14636
921.148	14560
921.258	14362
921.368	14157
921.477	14149
921.587	14024
921.697	13921
921.806	14168
921.916	14001
922.025	13784
922.134	13734
922.244	13715
922.353	13803
922.462	13620
922.571	13525
922.68	13441
922.789	13426
922.898	13316
923.007	13335
923.116	13324
923.224	13388
923.333	13316
923.442	13213
923.55	13107
923.659	13206
923.767	13297
923.876	13190
923.984	13221
924.092	13114
924.201	13145
924.309	13122
924.417	13133
924.525	13050
924.633	13046
924.741	13769
924.849	12768
924.956	12977
925.064	12738
925.172	12753
925.279	12711
925.387	12852
925.494	12810
925.602	12920
925.709	12958
925.816	12738
925.924	12798
926.031	12817
926.138	12730
926.245	12715
926.352	12688
926.459	12776
926.566	12810
926.673	12741
926.779	12589
926.886	12566
926.993	12384
927.099	12403
927.206	12346
927.312	12357
927.419	12391
927.525	12372
927.631	12292
927.737	12254
927.843	12201
927.95	12121
928.056	12194
928.162	12254
928.267	12292
928.373	12734
928.479	12292
928.585	11996
928.69	12178
928.796	12136
928.901	12083
929.007	11893
929.112	12087
929.218	12003
929.323	11965
929.428	11954
929.533	12038
929.638	11885
929.743	11813
929.848	11942
929.953	11874
930.058	11748
930.163	11646
930.267	11596
930.372	11695
930.477	11638
930.581	11866
930.685	11714
930.79	11425
930.894	11551
930.998	11436
931.103	11646
931.207	11204
931.311	11197
931.415	11083
931.519	10896
931.623	10881
