Data from test_V78500241_2864.txt Node
Date: Fri Mar 25 15:29:48 CST 2022
User: usil
Spectrometer: V785-0024
Trigger mode: 0
Integration Time (sec): 4.000000E-1
Scans to average: 1
Nonlinearity correction enabled: false
Boxcar width: 0
Storing dark spectrum: false
XAxis mode: Wavelengths
Number of Pixels in Spectrum: 1024
>>>>>Begin Spectral Data<<<<<
801.071	27184
801.214	27135
801.356	26815
801.499	26853
801.641	26689
801.783	26678
801.926	26781
802.068	26663
802.211	26541
802.353	26579
802.496	26313
802.638	26259
802.78	26282
802.923	26157
803.065	26252
803.208	26164
803.35	26168
803.492	26438
803.635	26442
803.777	26362
803.919	26453
804.061	26807
804.204	26427
804.346	26358
804.488	26240
804.63	26355
804.773	26244
804.915	26393
805.057	26492
805.199	26423
805.341	26602
805.483	26583
805.626	26438
805.768	26469
805.91	26590
806.052	26514
806.194	26476
806.336	26739
806.478	26518
806.62	26465
806.762	26651
806.904	26979
807.046	27093
807.188	26948
807.33	26933
807.472	27024
807.614	26971
807.756	27017
807.898	26800
808.04	26743
808.182	26731
808.324	26804
808.465	26948
808.607	27028
808.749	27287
808.891	27355
809.033	27393
809.174	27195
809.316	27142
809.458	27207
809.6	27116
809.741	27146
809.883	27249
810.025	27389
810.166	27458
810.308	27287
810.45	27283
810.591	27268
810.733	27203
810.875	27028
811.016	27070
811.158	27085
811.299	27310
811.441	27363
811.582	27264
811.724	27089
811.865	27226
812.007	26994
812.148	27081
812.29	27283
812.431	27287
812.573	27412
812.714	27466
812.855	27667
812.997	27717
813.138	27838
813.279	27671
813.421	27663
813.562	27580
813.703	27477
813.845	27264
813.986	27077
814.127	26857
814.268	26693
814.41	26819
814.551	26731
814.692	26861
814.833	26773
814.974	26670
815.115	26838
815.256	26682
815.397	26705
815.539	26655
815.68	26568
815.821	26488
815.962	26560
816.103	26533
816.244	26419
816.385	26259
816.526	26366
816.666	26210
816.807	25963
816.948	26142
817.089	26214
817.23	25974
817.371	26077
817.512	26145
817.653	25925
817.793	25947
817.934	26073
818.075	26046
818.216	26008
818.356	25940
818.497	25936
818.638	25822
818.778	25868
818.919	25822
819.06	25974
819.2	25963
819.341	26100
819.481	25932
819.622	26069
819.762	26412
819.903	26278
820.043	26199
820.184	26252
820.324	26142
820.465	26210
820.605	26153
820.746	26142
820.886	25955
821.026	26176
821.167	26046
821.307	26168
821.447	26088
821.588	25852
821.728	25814
821.868	25780
822.008	25499
822.149	25559
822.289	25476
822.429	25282
822.569	25080
822.709	25259
822.849	24932
822.99	25168
823.13	24977
823.27	25004
823.41	24905
823.55	24646
823.69	24844
823.83	24882
823.97	24700
824.11	24608
824.25	24608
824.389	24597
824.529	24722
824.669	24692
824.809	24696
824.949	24814
825.089	24753
825.228	24589
825.368	24623
825.508	24559
825.648	24566
825.787	24551
825.927	24620
826.067	24422
826.206	24517
826.346	24646
826.485	24502
826.625	24627
826.765	24745
826.904	24570
827.044	24399
827.183	24327
827.323	24114
827.462	24327
827.601	24129
827.741	24159
827.88	24243
828.02	24232
828.159	24258
828.298	24178
828.437	24194
828.577	24220
828.716	24334
828.855	24098
828.994	23954
829.134	23912
829.273	23916
829.412	23908
829.551	23950
829.69	23954
829.829	24049
829.968	23920
830.107	24022
830.246	23832
830.385	23851
830.524	23695
830.663	23707
830.802	23646
830.941	23577
831.08	23493
831.219	23649
831.357	23566
831.496	23672
831.635	23531
831.774	23406
831.913	23334
832.051	23273
832.19	23398
832.329	23387
832.467	23254
832.606	23181
832.744	23090
832.883	23132
833.022	23204
833.16	23124
833.299	23159
833.437	23223
833.576	23216
833.714	23315
833.852	23227
833.991	23258
834.129	23307
834.267	23474
834.406	23239
834.544	23322
834.682	23250
834.821	23261
834.959	23497
835.097	23330
835.235	23239
835.373	23227
835.511	23223
835.65	22949
835.788	23197
835.926	22991
836.064	22869
836.202	23090
836.34	22999
836.478	23067
836.615	23109
836.753	23075
836.891	23174
837.029	23083
837.167	22976
837.305	22923
837.443	23048
837.58	22767
837.718	22953
837.856	22995
837.993	22938
838.131	22908
838.269	22904
838.406	22847
838.544	22759
838.681	22584
838.819	22542
838.956	22341
839.094	22356
839.231	22542
839.369	22603
839.506	22752
839.643	22637
839.781	22455
839.918	22462
840.055	22402
840.193	22535
840.33	22299
840.467	22299
840.604	22504
840.742	22664
840.879	22188
841.016	22238
841.153	22360
841.29	22371
841.427	22318
841.564	22341
841.701	22344
841.838	22303
841.975	22177
842.112	22257
842.249	22097
842.385	22158
842.522	22398
842.659	22238
842.796	21987
842.933	22048
843.069	21979
843.206	22055
843.343	22188
843.479	22173
843.616	22086
843.752	21899
843.889	21941
844.025	22063
844.162	21762
844.298	22002
844.435	21953
844.571	21857
844.708	21838
844.844	22040
844.98	21941
845.117	21884
845.253	21827
845.389	21808
845.525	21781
845.661	21755
845.798	21587
845.934	21549
846.07	21641
846.206	21633
846.342	21701
846.478	21644
846.614	21458
846.75	21310
846.886	21382
847.022	21378
847.158	21241
847.294	21268
847.429	21359
847.565	21367
847.701	21485
847.837	21062
847.972	21089
848.108	21169
848.244	21093
848.379	20994
848.515	21024
848.65	20975
848.786	20960
848.921	20952
849.057	20929
849.192	20982
849.328	20929
849.463	20994
849.598	20830
849.734	20792
849.869	20781
850.004	20636
850.14	20712
850.275	20727
850.41	20701
850.545	20594
850.68	20686
850.815	20731
850.95	20648
851.085	20906
851.22	20918
851.355	20689
851.49	20640
851.625	20727
851.76	20659
851.895	20518
852.03	20648
852.165	20777
852.299	20720
852.434	20807
852.569	20792
852.703	20697
852.838	20686
852.973	20826
853.107	20849
853.242	20518
853.376	20636
853.511	20564
853.645	20465
853.78	20644
853.914	20583
854.048	20518
854.183	20488
854.317	20613
854.451	20705
854.585	20457
854.72	20518
854.854	20541
854.988	20499
855.122	20541
855.256	20431
855.39	20484
855.524	20640
855.658	20522
855.792	20492
855.926	20469
856.06	20552
856.194	20674
856.327	20499
856.461	20533
856.595	20450
856.729	20484
856.862	20659
856.996	20522
857.13	20488
857.263	20670
857.397	20587
857.53	20518
857.664	20495
857.797	20450
857.931	20686
858.064	20617
858.197	20533
858.331	20454
858.464	20457
858.597	20370
858.731	20412
858.864	20503
858.997	20499
859.13	20556
859.263	20541
859.396	20564
859.529	20419
859.662	20385
859.795	20412
859.928	20568
860.061	20716
860.194	20686
860.327	20606
860.46	20590
860.592	20632
860.725	20651
860.858	20560
860.99	20457
861.123	20507
861.256	20484
861.388	20385
861.521	21142
861.653	20328
861.786	20267
861.918	20320
862.05	20396
862.183	20465
862.315	20438
862.447	20514
862.58	20290
862.712	20309
862.844	20248
862.976	20320
863.108	20229
863.24	20708
863.372	20275
863.504	20275
863.636	20267
863.768	20240
863.9	20282
864.032	20248
864.164	20195
864.296	20210
864.428	20393
864.559	20412
864.691	20339
864.823	20324
864.954	20263
865.086	20259
865.217	20115
865.349	20149
865.48	20252
865.612	20187
865.743	20381
865.875	20206
866.006	20199
866.137	20084
866.269	20107
866.4	20096
866.531	20054
866.662	19928
866.793	20008
866.924	20103
867.055	20065
867.186	20149
867.317	20142
867.448	19967
867.579	20016
867.71	20012
867.841	20016
867.972	20161
868.103	20096
868.233	19997
868.364	20073
868.495	20153
868.625	20225
868.756	20446
868.886	20256
869.017	20347
869.147	20526
869.278	20358
869.408	20278
869.539	20484
869.669	20446
869.799	20282
869.929	20473
870.06	20339
870.19	20606
870.32	20549
870.45	20724
870.58	20781
870.71	20929
870.84	20826
870.97	20735
871.1	20758
871.23	20857
871.36	20819
871.489	20876
871.619	20963
871.749	20864
871.879	20880
872.008	21036
872.138	20990
872.267	20910
872.397	20883
872.526	20674
872.656	20800
872.785	20788
872.915	20982
873.044	21017
873.173	20880
873.303	21032
873.432	20998
873.561	21093
873.69	20933
873.819	20921
873.948	21108
874.077	20906
874.206	20807
874.335	20967
874.464	20994
874.593	21142
874.722	21138
874.851	21176
874.979	21157
875.108	21222
875.237	21169
875.365	21005
875.494	21226
875.623	21176
875.751	21184
875.88	21233
876.008	21291
876.136	21332
876.265	21595
876.393	21660
876.521	21652
876.65	21576
876.778	21526
876.906	21580
877.034	21526
877.162	21618
877.29	21424
877.418	21515
877.546	21443
877.674	21462
877.802	21504
877.93	21576
878.058	21405
878.185	21462
878.313	21443
878.441	21397
878.568	21367
878.696	21553
878.824	21542
878.951	21587
879.079	21755
879.206	21827
879.333	21709
879.461	21606
879.588	21545
879.715	21622
879.842	21838
879.97	21587
880.097	21351
880.224	21378
880.351	21431
880.478	21481
880.605	21275
880.732	21355
880.859	21572
880.986	21355
881.112	21500
881.239	21268
881.366	21131
881.493	21051
881.619	21062
881.746	20998
881.872	20998
881.999	20853
882.125	20849
882.252	21096
882.378	20883
882.505	21009
882.631	20746
882.757	20750
882.883	20758
883.01	20560
883.136	20625
883.262	20693
883.388	20473
883.514	20682
883.64	20830
883.766	20480
883.892	20450
884.018	20438
884.143	20636
884.269	20807
884.395	20480
884.52	20362
884.646	20309
884.772	20275
884.897	20206
885.023	20358
885.148	20492
885.274	20317
885.399	20541
885.524	20309
885.65	20305
885.775	20278
885.9	20237
886.025	20263
886.15	20419
886.275	20225
886.4	20161
886.525	20351
886.65	20313
886.775	20309
886.9	20324
887.025	20533
887.149	20248
887.274	20043
887.399	20050
887.523	20107
887.648	20065
887.773	19967
887.897	20153
888.021	20138
888.146	19974
888.27	20145
888.395	20206
888.519	20122
888.643	20145
888.767	20153
888.891	20039
889.015	20043
889.139	19841
889.263	19822
889.387	19917
889.511	20088
889.635	19989
889.759	19761
889.883	19791
890.006	19826
890.13	19967
890.254	19818
890.377	19795
890.501	19727
890.624	19628
890.748	19742
890.871	19609
890.995	19567
891.118	19331
891.241	19502
891.364	19582
891.488	19518
891.611	19601
891.734	19502
891.857	19499
891.98	19449
892.103	19495
892.226	19529
892.349	19396
892.471	19240
892.594	19411
892.717	19384
892.839	19369
892.962	19419
893.085	19472
893.207	19453
893.33	19202
893.452	19346
893.575	19529
893.697	19354
893.819	19499
893.941	19696
894.064	19567
894.186	19415
894.308	19331
894.43	19441
894.552	19540
894.674	19582
894.796	19335
894.918	19377
895.04	19308
895.161	19491
895.283	19430
895.405	19362
895.526	19396
895.648	19377
895.769	19384
895.891	19472
896.012	19434
896.134	19441
896.255	19426
896.376	19346
896.498	19293
896.619	19407
896.74	19335
896.861	19449
896.982	19761
897.103	19772
897.224	19696
897.345	19712
897.466	19514
897.587	19594
897.708	19616
897.828	19689
897.949	19559
898.07	19449
898.19	19521
898.311	19590
898.431	19548
898.552	19704
898.672	19734
898.792	19883
898.913	19696
899.033	19537
899.153	19502
899.273	19403
899.393	19449
899.513	19422
899.633	19540
899.753	19445
899.873	19407
899.993	19510
900.113	19335
900.232	19350
900.352	19460
900.472	19369
900.591	19099
900.711	19301
900.83	19175
900.95	19365
901.069	19289
901.189	19206
901.308	18837
901.427	18760
901.546	18753
901.665	18856
901.784	18757
901.904	18616
902.023	18612
902.141	18380
902.26	18319
902.379	18365
902.498	18254
902.617	18292
902.735	18273
902.854	18327
902.973	18201
903.091	18041
903.21	18072
903.328	17912
903.446	17931
903.565	17927
903.683	17813
903.801	17623
903.919	17866
904.038	17741
904.156	17668
904.274	17722
904.392	17532
904.51	17493
904.627	17497
904.745	17653
904.863	17695
904.981	17311
905.098	17250
905.216	17383
905.334	17178
905.451	17223
905.569	17208
905.686	17273
905.803	17246
905.921	16995
906.038	17159
906.155	16980
906.272	16923
906.389	16927
906.506	16812
906.623	16809
906.74	16801
906.857	16656
906.974	16683
907.091	16839
907.208	16839
907.324	16763
907.441	16816
907.557	16565
907.674	16535
907.79	16398
907.907	16462
908.023	16550
908.139	16550
908.256	16371
908.372	16360
908.488	16360
908.604	16253
908.72	16124
908.836	16185
908.952	16185
909.068	16280
909.184	16325
909.3	16238
909.415	16192
909.531	16196
909.647	15937
909.762	15918
909.878	15831
909.993	16006
910.108	15865
910.224	15831
910.339	15991
910.454	15720
910.57	15724
910.685	15686
910.8	15926
910.915	15785
911.03	15728
911.145	15606
911.259	15564
911.374	15564
911.489	15405
911.604	15405
911.718	15306
911.833	15374
911.947	15298
912.062	15252
912.176	15344
912.291	15351
912.405	15370
912.519	15519
912.633	15545
912.748	15256
912.862	15260
912.976	15116
913.09	15055
913.204	15013
913.318	15051
913.431	15211
913.545	15089
913.659	15214
913.772	15119
913.886	14990
914	14925
914.113	14979
914.226	15013
914.34	14963
914.453	14826
914.566	14982
914.68	14773
914.793	14785
914.906	14564
915.019	14575
915.132	14457
915.245	14533
915.358	14636
915.47	14575
915.583	14629
915.696	14526
915.809	14526
915.921	14594
916.034	14495
916.146	14511
916.259	14415
916.371	14560
916.483	14537
916.595	14366
916.708	14412
916.82	14400
916.932	14298
917.044	14385
917.156	14294
917.268	14126
917.38	14240
917.491	14206
917.603	14221
917.715	14244
917.826	14332
917.938	14191
918.049	14054
918.161	14039
918.272	14237
918.384	14256
918.495	14115
918.606	13963
918.717	14024
918.828	13982
918.939	14142
919.05	13879
919.161	13959
919.272	13704
919.383	13913
919.494	13986
919.604	14229
919.715	13894
919.826	13967
919.936	13887
920.047	14096
920.157	13963
920.267	14256
920.378	14024
920.488	13909
920.598	14138
920.708	14233
920.818	14123
920.928	14050
921.038	14290
921.148	14145
921.258	13986
921.368	13803
921.477	13712
921.587	13704
921.697	13658
921.806	13761
921.916	13601
922.025	13403
922.134	13415
922.244	13392
922.353	13377
922.462	13266
922.571	13061
922.68	13099
922.789	12996
922.898	13088
923.007	12993
923.116	13057
923.224	13057
923.333	12985
923.442	12875
923.55	12817
923.659	12814
923.767	12943
923.876	12821
923.984	12863
924.092	12631
924.201	12802
924.309	12776
924.417	12757
924.525	12760
924.633	12635
924.741	13666
924.849	12490
924.956	12646
925.064	12563
925.172	12365
925.279	12460
925.387	12452
925.494	12536
925.602	12620
925.709	12422
925.816	12399
925.924	12407
926.031	12467
926.138	12403
926.245	12445
926.352	12319
926.459	12521
926.566	12471
926.673	12296
926.779	12270
926.886	12190
926.993	12057
927.099	12034
927.206	12015
927.312	11992
927.419	11965
927.525	12049
927.631	12022
927.737	11961
927.843	11786
927.95	11737
928.056	11764
928.162	12022
928.267	11931
928.373	12555
928.479	12011
928.585	11661
928.69	11847
928.796	11866
928.901	11733
929.007	11649
929.112	11756
929.218	11703
929.323	11691
929.428	11573
929.533	11760
929.638	11558
929.743	11646
929.848	11604
929.953	11608
930.058	11402
930.163	11288
930.267	11353
930.372	11444
930.477	11269
930.581	11501
930.685	11395
930.79	11212
930.894	11269
930.998	11212
931.103	11364
931.207	10991
931.311	10908
931.415	10866
931.519	10599
931.623	10565
