Data from test_V78500241_1339.txt Node
Date: Fri Mar 25 15:19:10 CST 2022
User: usil
Spectrometer: V785-0024
Trigger mode: 0
Integration Time (sec): 4.000000E-1
Scans to average: 1
Nonlinearity correction enabled: false
Boxcar width: 0
Storing dark spectrum: false
XAxis mode: Wavelengths
Number of Pixels in Spectrum: 1024
>>>>>Begin Spectral Data<<<<<
801.071	28086
801.214	28006
801.356	27812
801.499	27778
801.641	27545
801.783	27572
801.926	27507
802.068	27633
802.211	27511
802.353	27515
802.496	27291
802.638	27199
802.78	27199
802.923	27237
803.065	27123
803.208	27100
803.35	27195
803.492	27294
803.635	27542
803.777	27386
803.919	27542
804.061	27720
804.204	27477
804.346	27466
804.488	27348
804.63	27443
804.773	27165
804.915	27549
805.057	27568
805.199	27469
805.341	27549
805.483	27549
805.626	27507
805.768	27473
805.91	27564
806.052	27511
806.194	27530
806.336	27888
806.478	27599
806.62	27663
806.762	27732
806.904	27797
807.046	28204
807.188	27991
807.33	27994
807.472	28086
807.614	28067
807.756	28059
807.898	27857
808.04	27785
808.182	27953
808.324	27823
808.465	27930
808.607	28120
808.749	28413
808.891	28287
809.033	28379
809.174	28257
809.316	28204
809.458	28246
809.6	28337
809.741	28390
809.883	28512
810.025	28485
810.166	28512
810.308	28554
810.45	28428
810.591	28500
810.733	28341
810.875	28135
811.016	28131
811.158	28051
811.299	28261
811.441	28341
811.582	28162
811.724	28265
811.865	28246
812.007	28173
812.148	28188
812.29	28299
812.431	28493
812.573	28577
812.714	28694
812.855	28736
812.997	28767
813.138	29056
813.279	28854
813.421	28596
813.562	28801
813.703	28546
813.845	28428
813.986	28303
814.127	28086
814.268	27975
814.41	27937
814.551	27842
814.692	28048
814.833	27968
814.974	27846
815.115	27884
815.256	27766
815.397	27819
815.539	27759
815.68	27641
815.821	27644
815.962	27736
816.103	27663
816.244	27629
816.385	27618
816.526	27603
816.666	27469
816.807	27211
816.948	27252
817.089	27561
817.23	27329
817.371	27363
817.512	27138
817.653	27287
817.793	27207
817.934	27275
818.075	27252
818.216	27382
818.356	27268
818.497	27055
818.638	26921
818.778	26986
818.919	26963
819.06	27009
819.2	27211
819.341	27233
819.481	27367
819.622	27336
819.762	27485
819.903	27454
820.043	27378
820.184	27397
820.324	27302
820.465	27439
820.605	27203
820.746	27249
820.886	27028
821.026	27264
821.167	27268
821.307	27504
821.447	27123
821.588	27180
821.728	27043
821.868	26838
822.008	26678
822.149	26674
822.289	26670
822.429	26351
822.569	26355
822.709	26412
822.849	26252
822.99	26267
823.13	26199
823.27	26115
823.41	25936
823.55	25936
823.69	26016
823.83	26107
823.97	25989
824.11	25731
824.25	25818
824.389	25890
824.529	25909
824.669	25898
824.809	26046
824.949	25830
825.089	25890
825.228	25826
825.368	25651
825.508	25700
825.648	25700
825.787	25803
825.927	25750
826.067	25651
826.206	25761
826.346	25757
826.485	25689
826.625	25700
826.765	25700
826.904	25818
827.044	25540
827.183	25700
827.323	25438
827.462	25510
827.601	25445
827.741	25324
827.88	25479
828.02	25415
828.159	25518
828.298	25483
828.437	25457
828.577	25346
828.716	25582
828.855	25506
828.994	25171
829.134	25137
829.273	25137
829.412	25202
829.551	25126
829.69	25209
829.829	24905
829.968	25240
830.107	25194
830.246	25110
830.385	25118
830.524	25076
830.663	24992
830.802	24966
830.941	24654
831.08	24688
831.219	24760
831.357	24837
831.496	25091
831.635	24783
831.774	24703
831.913	24688
832.051	24589
832.19	24521
832.329	24536
832.467	24452
832.606	24460
832.744	24304
832.883	24384
833.022	24391
833.16	24403
833.299	24563
833.437	24536
833.576	24544
833.714	24460
833.852	24517
833.991	24540
834.129	24513
834.267	24563
834.406	24509
834.544	24494
834.682	24544
834.821	24391
834.959	24563
835.097	24433
835.235	24665
835.373	24448
835.511	24502
835.65	24410
835.788	24426
835.926	24144
836.064	24194
836.202	24076
836.34	24182
836.478	24365
836.615	24338
836.753	24251
836.891	24376
837.029	24163
837.167	24194
837.305	24243
837.443	24285
837.58	24163
837.718	24342
837.856	24228
837.993	24060
838.131	24194
838.269	23999
838.406	24030
838.544	23980
838.681	23828
838.819	23733
838.956	23619
839.094	23562
839.231	23687
839.369	23821
839.506	24041
839.643	23939
839.781	23554
839.918	23528
840.055	23589
840.193	23611
840.33	23539
840.467	23611
840.604	23596
840.742	23847
840.879	23417
841.016	23448
841.153	23448
841.29	23554
841.427	23509
841.564	23543
841.701	23433
841.838	23452
841.975	23379
842.112	23311
842.249	23463
842.385	23246
842.522	23505
842.659	23341
842.796	23311
842.933	23326
843.069	23258
843.206	23269
843.343	23296
843.479	23337
843.616	23326
843.752	23022
843.889	23094
844.025	23223
844.162	22961
844.298	23254
844.435	22976
844.571	23117
844.708	23200
844.844	23322
844.98	23117
845.117	23258
845.253	22927
845.389	22919
845.525	23029
845.661	22961
845.798	22858
845.934	22854
846.07	22854
846.206	22771
846.342	22869
846.478	22793
846.614	22615
846.75	22599
846.886	22436
847.022	22634
847.158	22500
847.294	22687
847.429	22630
847.565	22443
847.701	22736
847.837	22405
847.972	22192
848.108	22322
848.244	22352
848.379	22101
848.515	22204
848.65	22082
848.786	22067
848.921	22166
849.057	22284
849.192	22204
849.328	22188
849.463	22002
849.598	21994
849.734	21983
849.869	22109
850.004	21994
850.14	21774
850.275	21930
850.41	21907
850.545	21846
850.68	21789
850.815	21804
850.95	21720
851.085	22093
851.22	22048
851.355	21899
851.49	21895
851.625	21873
851.76	21850
851.895	21724
852.03	21850
852.165	21854
852.299	21850
852.434	21991
852.569	21903
852.703	21930
852.838	21953
852.973	22032
853.107	22006
853.242	21819
853.376	21755
853.511	21629
853.645	21789
853.78	21728
853.914	21728
854.048	21583
854.183	21595
854.317	21717
854.451	21899
854.585	21755
854.72	21709
854.854	21690
854.988	21675
855.122	21724
855.256	21595
855.39	21633
855.524	21770
855.658	21701
855.792	21618
855.926	21728
856.06	21694
856.194	21804
856.327	21606
856.461	21686
856.595	21545
856.729	21698
856.862	21747
856.996	21770
857.13	21899
857.263	21907
857.397	21736
857.53	21675
857.664	21823
857.797	21812
857.931	21781
858.064	21701
858.197	21808
858.331	21705
858.464	21739
858.597	21698
858.731	21538
858.864	21595
858.997	21603
859.13	21606
859.263	21671
859.396	21823
859.529	21610
859.662	21637
859.795	21675
859.928	21641
860.061	21873
860.194	21842
860.327	21793
860.46	21717
860.592	21797
860.725	21850
860.858	21861
860.99	21701
861.123	21618
861.256	21614
861.388	21755
861.521	22242
861.653	21420
861.786	21382
861.918	21450
862.05	21587
862.183	21583
862.315	21625
862.447	21838
862.58	21656
862.712	21435
862.844	21416
862.976	21492
863.108	21553
863.24	21812
863.372	21408
863.504	21272
863.636	21329
863.768	21549
863.9	21408
864.032	21351
864.164	21397
864.296	21439
864.428	21454
864.559	21420
864.691	21458
864.823	21485
864.954	21378
865.086	21526
865.217	21283
865.349	21222
865.48	21329
865.612	21298
865.743	21473
865.875	21233
866.006	21393
866.137	21317
866.269	21249
866.4	21245
866.531	21249
866.662	21036
866.793	21169
866.924	21272
867.055	21256
867.186	21249
867.317	21298
867.448	21058
867.579	21207
867.71	21131
867.841	21283
867.972	21184
868.103	21116
868.233	21283
868.364	21313
868.495	21355
868.625	21466
868.756	21450
868.886	21370
869.017	21610
869.147	21507
869.278	21641
869.408	21492
869.539	21469
869.669	21504
869.799	21595
869.929	21675
870.06	21637
870.19	21709
870.32	21774
870.45	21774
870.58	21835
870.71	21975
870.84	21808
870.97	21880
871.1	21823
871.23	22032
871.36	22059
871.489	21915
871.619	22010
871.749	22139
871.879	22162
872.008	22177
872.138	21945
872.267	22067
872.397	21808
872.526	21793
872.656	21857
872.785	21953
872.915	22109
873.044	22158
873.173	22124
873.303	22097
873.432	22101
873.561	22177
873.69	22051
873.819	22185
873.948	22173
874.077	22116
874.206	21998
874.335	21998
874.464	22059
874.593	22356
874.722	22207
874.851	22261
874.979	22310
875.108	22318
875.237	22124
875.365	22219
875.494	22276
875.623	22322
875.751	22272
875.88	22314
876.008	22531
876.136	22421
876.265	22580
876.393	22702
876.521	22713
876.65	22694
876.778	22782
876.906	22668
877.034	22577
877.162	22664
877.29	22615
877.418	22618
877.546	22694
877.674	22729
877.802	22675
877.93	22569
878.058	22634
878.185	22523
878.313	22573
878.441	22588
878.568	22424
878.696	22550
878.824	22626
878.951	22790
879.079	22839
879.206	22904
879.333	22858
879.461	22664
879.588	22740
879.715	22923
879.842	22866
879.97	22733
880.097	22535
880.224	22443
880.351	22618
880.478	22531
880.605	22382
880.732	22322
880.859	22809
880.986	22478
881.112	22607
881.239	22219
881.366	22150
881.493	22070
881.619	22074
881.746	22109
881.872	22173
881.999	22006
882.125	21934
882.252	22192
882.378	21918
882.505	22032
882.631	21850
882.757	21842
882.883	21823
883.01	21637
883.136	21652
883.262	21568
883.388	21580
883.514	21686
883.64	21827
883.766	21580
883.892	21481
884.018	21378
884.143	21663
884.269	21656
884.395	21389
884.52	21291
884.646	21367
884.772	21298
884.897	21275
885.023	21283
885.148	21454
885.274	21462
885.399	21447
885.524	21329
885.65	21359
885.775	21332
885.9	21389
886.025	21405
886.15	21420
886.275	21325
886.4	21355
886.525	21272
886.65	21283
886.775	21245
886.9	21519
887.025	21507
887.149	21348
887.274	21108
887.399	21051
887.523	21154
887.648	21043
887.773	21047
887.897	21184
888.021	21093
888.146	21214
888.27	21203
888.395	21100
888.519	21302
888.643	21123
888.767	21142
888.891	21100
889.015	20956
889.139	20921
889.263	20906
889.387	21024
889.511	21108
889.635	20998
889.759	20975
889.883	20826
890.006	20887
890.13	20960
890.254	20838
890.377	20891
890.501	20644
890.624	20689
890.748	20651
890.871	20514
890.995	20511
891.118	20404
891.241	20465
891.364	20537
891.488	20621
891.611	20541
891.734	20533
891.857	20537
891.98	20381
892.103	20587
892.226	20480
892.349	20454
892.471	20377
892.594	20427
892.717	20358
892.839	20408
892.962	20309
893.085	20442
893.207	20389
893.33	20225
893.452	20218
893.575	20381
893.697	20343
893.819	20461
893.941	20602
894.064	20518
894.186	20256
894.308	20271
894.43	20564
894.552	20503
894.674	20469
894.796	20347
894.918	20336
895.04	20461
895.161	20450
895.283	20469
895.405	20351
895.526	20298
895.648	20309
895.769	20393
895.891	20564
896.012	20396
896.134	20415
896.255	20393
896.376	20294
896.498	20427
896.619	20419
896.74	20355
896.861	20457
896.982	20674
897.103	20902
897.224	20579
897.345	20575
897.466	20549
897.587	20598
897.708	20651
897.828	20594
897.949	20560
898.07	20457
898.19	20469
898.311	20617
898.431	20625
898.552	20590
898.672	20632
898.792	20617
898.913	20545
899.033	20385
899.153	20362
899.273	20320
899.393	20339
899.513	20370
899.633	20320
899.753	20396
899.873	20332
899.993	20415
900.113	20290
900.232	20240
900.352	20229
900.472	20187
900.591	20122
900.711	20107
900.83	20043
900.95	20206
901.069	20191
901.189	20001
901.308	19681
901.427	19578
901.546	19723
901.665	19639
901.784	19715
901.904	19544
902.023	19453
902.141	19251
902.26	19095
902.379	19282
902.498	19206
902.617	19137
902.735	19289
902.854	19187
902.973	19008
903.091	18890
903.21	18749
903.328	18867
903.446	18719
903.565	18688
903.683	18741
903.801	18528
903.919	18601
904.038	18597
904.156	18483
904.274	18551
904.392	18407
904.51	18391
904.627	18342
904.745	18403
904.863	18467
904.981	18315
905.098	18083
905.216	18232
905.334	18155
905.451	18167
905.569	18095
905.686	18057
905.803	18083
905.921	17843
906.038	18045
906.155	17923
906.272	17847
906.389	17870
906.506	17570
906.623	17623
906.74	17581
906.857	17532
906.974	17589
907.091	17741
907.208	17691
907.324	17581
907.441	17539
907.557	17463
907.674	17421
907.79	17265
907.907	17326
908.023	17216
908.139	17429
908.256	17220
908.372	17292
908.488	17231
908.604	17136
908.72	17094
908.836	17083
908.952	17010
909.068	17090
909.184	17151
909.3	16995
909.415	17010
909.531	17006
909.647	16873
909.762	16774
909.878	16774
909.993	16725
910.108	16759
910.224	16683
910.339	16767
910.454	16493
910.57	16607
910.685	16558
910.8	16721
910.915	16771
911.03	16615
911.145	16348
911.259	16375
911.374	16230
911.489	16314
911.604	16257
911.718	16078
911.833	16177
911.947	15975
912.062	15960
912.176	16048
912.291	16143
912.405	16067
912.519	16272
912.633	16284
912.748	16226
912.862	16025
912.976	15918
913.09	15854
913.204	15926
913.318	15880
913.431	15953
913.545	15930
913.659	16025
913.772	15846
913.886	15709
914	15656
914.113	15808
914.226	15922
914.34	15705
914.453	15618
914.566	15705
914.68	15504
914.793	15568
914.906	15370
915.019	15325
915.132	15321
915.245	15382
915.358	15313
915.47	15310
915.583	15359
915.696	15302
915.809	15363
915.921	15416
916.034	15241
916.146	15230
916.259	15123
916.371	15294
916.483	15218
916.595	15108
916.708	15192
916.82	15123
916.932	15093
917.044	15108
917.156	15043
917.268	14941
917.38	14906
917.491	14925
917.603	14933
917.715	14925
917.826	15036
917.938	14941
918.049	14739
918.161	14948
918.272	15039
918.384	15039
918.495	14899
918.606	14750
918.717	14678
918.828	14769
918.939	14663
919.05	14670
919.161	14670
919.272	14545
919.383	14594
919.494	14758
919.604	14826
919.715	14743
919.826	14678
919.936	14625
920.047	14724
920.157	14571
920.267	14845
920.378	14689
920.488	14667
920.598	14872
920.708	14921
920.818	14765
920.928	14804
921.038	14960
921.148	14868
921.258	14613
921.368	14492
921.477	14457
921.587	14415
921.697	14248
921.806	14370
921.916	14278
922.025	14096
922.134	14043
922.244	13982
922.353	13993
922.462	13879
922.571	13841
922.68	13689
922.789	13643
922.898	13666
923.007	13552
923.116	13742
923.224	13734
923.333	13658
923.442	13616
923.55	13468
923.659	13533
923.767	13643
923.876	13518
923.984	13597
924.092	13320
924.201	13464
924.309	13476
924.417	13495
924.525	13343
924.633	13343
924.741	14370
924.849	13084
924.956	13324
925.064	13126
925.172	12966
925.279	13084
925.387	13061
925.494	13129
925.602	13232
925.709	13156
925.816	12977
925.924	13019
926.031	13160
926.138	13019
926.245	13091
926.352	12958
926.459	13034
926.566	13110
926.673	12947
926.779	12833
926.886	12829
926.993	12745
927.099	12700
927.206	12585
927.312	12608
927.419	12669
927.525	12597
927.631	12654
927.737	12506
927.843	12559
927.95	12372
928.056	12464
928.162	12528
928.267	12506
928.373	13084
928.479	12509
928.585	12281
928.69	12471
928.796	12490
928.901	12308
929.007	12213
929.112	12391
929.218	12235
929.323	12270
929.428	12182
929.533	12410
929.638	12209
929.743	12155
929.848	12190
929.953	12114
930.058	11977
930.163	11920
930.267	11870
930.372	12041
930.477	11733
930.581	12034
930.685	11863
930.79	11783
930.894	11760
930.998	11771
931.103	11916
931.207	11444
931.311	11486
931.415	11360
931.519	11204
931.623	11117
