Data from test_V78500241_1836.txt Node
Date: Fri Mar 25 15:22:38 CST 2022
User: usil
Spectrometer: V785-0024
Trigger mode: 0
Integration Time (sec): 4.000000E-1
Scans to average: 1
Nonlinearity correction enabled: false
Boxcar width: 0
Storing dark spectrum: false
XAxis mode: Wavelengths
Number of Pixels in Spectrum: 1024
>>>>>Begin Spectral Data<<<<<
801.071	27850
801.214	27755
801.356	27466
801.499	27507
801.641	27370
801.783	27321
801.926	27401
802.068	27321
802.211	27268
802.353	27233
802.496	27096
802.638	26937
802.78	27096
802.923	27093
803.065	27047
803.208	26960
803.35	27066
803.492	27081
803.635	27214
803.777	27039
803.919	27180
804.061	27447
804.204	27241
804.346	27135
804.488	27260
804.63	27192
804.773	27100
804.915	27146
805.057	27317
805.199	27203
805.341	27268
805.483	27249
805.626	27211
805.768	27298
805.91	27233
806.052	27279
806.194	27306
806.336	27553
806.478	27275
806.62	27245
806.762	27492
806.904	27526
807.046	27781
807.188	27876
807.33	27728
807.472	27747
807.614	27553
807.756	27595
807.898	27648
808.04	27481
808.182	27572
808.324	27759
808.465	27690
808.607	27899
808.749	27914
808.891	28139
809.033	28029
809.174	28219
809.316	27701
809.458	27926
809.6	27918
809.741	28036
809.883	28082
810.025	28124
810.166	28314
810.308	28185
810.45	28169
810.591	28188
810.733	28006
810.875	27865
811.016	27835
811.158	27698
811.299	28074
811.441	27907
811.582	28211
811.724	27865
811.865	27907
812.007	27922
812.148	27800
812.29	27953
812.431	28173
812.573	28314
812.714	28261
812.855	28504
812.997	28508
813.138	28607
813.279	28508
813.421	28554
813.562	28318
813.703	28363
813.845	28116
813.986	27842
814.127	27717
814.268	27686
814.41	27652
814.551	27542
814.692	27762
814.833	27652
814.974	27717
815.115	27641
815.256	27511
815.397	27568
815.539	27523
815.68	27420
815.821	27302
815.962	27496
816.103	27348
816.244	27336
816.385	27287
816.526	27192
816.666	26982
816.807	26811
816.948	26914
817.089	27077
817.23	26769
817.371	26914
817.512	27001
817.653	26849
817.793	26838
817.934	26834
818.075	26960
818.216	26918
818.356	26838
818.497	26804
818.638	26545
818.778	26526
818.919	26693
819.06	26632
819.2	26735
819.341	26940
819.481	26929
819.622	27173
819.762	27275
819.903	27176
820.043	27146
820.184	27039
820.324	26982
820.465	27233
820.605	27093
820.746	27028
820.886	26880
821.026	26956
821.167	26944
821.307	27013
821.447	26902
821.588	26785
821.728	26678
821.868	26571
822.008	26476
822.149	26294
822.289	26396
822.429	26054
822.569	26092
822.709	26202
822.849	25940
822.99	25898
823.13	25959
823.27	25890
823.41	25769
823.55	25548
823.69	25803
823.83	25723
823.97	25719
824.11	25479
824.25	25586
824.389	25632
824.529	25594
824.669	25632
824.809	25647
824.949	25639
825.089	25590
825.228	25666
825.368	25324
825.508	25362
825.648	25483
825.787	25358
825.927	25533
826.067	25384
826.206	25479
826.346	25468
826.485	25422
826.625	25445
826.765	25487
826.904	25514
827.044	25175
827.183	25244
827.323	25133
827.462	25228
827.601	25213
827.741	25240
827.88	25206
828.02	25171
828.159	25107
828.298	25122
828.437	25255
828.577	25091
828.716	25156
828.855	24966
828.994	24859
829.134	24829
829.273	24753
829.412	24890
829.551	24757
829.69	24901
829.829	24882
829.968	24913
830.107	24901
830.246	24901
830.385	24779
830.524	24688
830.663	24669
830.802	24646
830.941	24490
831.08	24471
831.219	24498
831.357	24563
831.496	24795
831.635	24433
831.774	24509
831.913	24399
832.051	24353
832.19	24304
832.329	24129
832.467	24129
832.606	24015
832.744	24117
832.883	24083
833.022	24079
833.16	24083
833.299	24121
833.437	24277
833.576	24300
833.714	24174
833.852	24342
833.991	24239
834.129	24281
834.267	24350
834.406	24159
834.544	24140
834.682	24106
834.821	24194
834.959	24334
835.097	24155
835.235	24205
835.373	24148
835.511	24213
835.65	24060
835.788	24003
835.926	23999
836.064	23885
836.202	23851
836.34	24041
836.478	24174
836.615	23927
836.753	24098
836.891	24239
837.029	24072
837.167	24057
837.305	23958
837.443	23885
837.58	23840
837.718	24087
837.856	23980
837.993	23859
838.131	23904
838.269	23710
838.406	23771
838.544	23726
838.681	23482
838.819	23570
838.956	23436
839.094	23402
839.231	23417
839.369	23547
839.506	23805
839.643	23558
839.781	23406
839.918	23334
840.055	23364
840.193	23261
840.33	23265
840.467	23220
840.604	23459
840.742	23467
840.879	23071
841.016	23174
841.153	23231
841.29	23471
841.427	23235
841.564	23387
841.701	23273
841.838	23280
841.975	23075
842.112	23113
842.249	23132
842.385	23121
842.522	23193
842.659	23105
842.796	23075
842.933	23003
843.069	23105
843.206	22938
843.343	23098
843.479	23090
843.616	23094
843.752	22847
843.889	22873
844.025	22862
844.162	22755
844.298	22896
844.435	22862
844.571	22828
844.708	22881
844.844	22919
844.98	22885
845.117	22957
845.253	22679
845.389	22721
845.525	22824
845.661	22618
845.798	22565
845.934	22592
846.07	22550
846.206	22527
846.342	22679
846.478	22584
846.614	22440
846.75	22211
846.886	22265
847.022	22394
847.158	22398
847.294	22306
847.429	22306
847.565	22379
847.701	22615
847.837	22059
847.972	21975
848.108	22032
848.244	22021
848.379	21941
848.515	22032
848.65	21850
848.786	21945
848.921	21876
849.057	21918
849.192	21895
849.328	22025
849.463	21949
849.598	21736
849.734	21739
849.869	21690
850.004	21679
850.14	21743
850.275	21682
850.41	21622
850.545	21633
850.68	21496
850.815	21873
850.95	21660
851.085	21823
851.22	21808
851.355	21679
851.49	21606
851.625	21637
851.76	21652
851.895	21736
852.03	21633
852.165	21690
852.299	21663
852.434	21641
852.569	21698
852.703	21701
852.838	21705
852.973	21800
853.107	21766
853.242	21572
853.376	21458
853.511	21393
853.645	21454
853.78	21591
853.914	21447
854.048	21428
854.183	21416
854.317	21439
854.451	21633
854.585	21526
854.72	21526
854.854	21553
854.988	21389
855.122	21454
855.256	21469
855.39	21545
855.524	21496
855.658	21515
855.792	21424
855.926	21538
856.06	21450
856.194	21545
856.327	21572
856.461	21485
856.595	21473
856.729	21412
856.862	21618
856.996	21443
857.13	21614
857.263	21545
857.397	21583
857.53	21431
857.664	21526
857.797	21564
857.931	21496
858.064	21542
858.197	21622
858.331	21466
858.464	21313
858.597	21389
858.731	21549
858.864	21443
858.997	21519
859.13	21439
859.263	21405
859.396	21534
859.529	21374
859.662	21454
859.795	21439
859.928	21401
860.061	21549
860.194	21629
860.327	21416
860.46	21431
860.592	21564
860.725	21698
860.858	21701
860.99	21473
861.123	21469
861.256	21374
861.388	21488
861.521	22143
861.653	21241
861.786	21275
861.918	21241
862.05	21374
862.183	21386
862.315	21408
862.447	21386
862.58	21435
862.712	21272
862.844	21142
862.976	21275
863.108	21184
863.24	21545
863.372	21039
863.504	21214
863.636	21226
863.768	21207
863.9	21165
864.032	21009
864.164	21138
864.296	21154
864.428	21306
864.559	21252
864.691	21230
864.823	21207
864.954	21184
865.086	21058
865.217	21051
865.349	20944
865.48	21074
865.612	21051
865.743	21214
865.875	21112
866.006	21020
866.137	21058
866.269	21020
866.4	21051
866.531	21001
866.662	20899
866.793	20963
866.924	21062
867.055	21096
867.186	21028
867.317	20990
867.448	20994
867.579	21001
867.71	20864
867.841	21036
867.972	21032
868.103	21024
868.233	21104
868.364	20994
868.495	21062
868.625	21351
868.756	21241
868.886	21104
869.017	21176
869.147	21367
869.278	21332
869.408	21321
869.539	21252
869.669	21203
869.799	21211
869.929	21507
870.06	21363
870.19	21572
870.32	21511
870.45	21606
870.58	21690
870.71	21751
870.84	21751
870.97	21797
871.1	21671
871.23	21846
871.36	21869
871.489	21751
871.619	21698
871.749	21876
871.879	21888
872.008	21983
872.138	21945
872.267	21854
872.397	21641
872.526	21694
872.656	21667
872.785	21610
872.915	21903
873.044	21983
873.173	21819
873.303	21831
873.432	22006
873.561	21918
873.69	21762
873.819	21892
873.948	21880
874.077	21854
874.206	21808
874.335	21812
874.464	21930
874.593	22112
874.722	22021
874.851	22055
874.979	22093
875.108	22093
875.237	22070
875.365	22025
875.494	22090
875.623	22109
875.751	22025
875.88	22013
876.008	22257
876.136	22394
876.265	22481
876.393	22554
876.521	22683
876.65	22607
876.778	22596
876.906	22519
877.034	22405
877.162	22428
877.29	22421
877.418	22371
877.546	22519
877.674	22508
877.802	22303
877.93	22421
878.058	22337
878.185	22402
878.313	22360
878.441	22462
878.568	22268
878.696	22360
878.824	22459
878.951	22607
879.079	22615
879.206	22755
879.333	22561
879.461	22447
879.588	22535
879.715	22565
879.842	22683
879.97	22432
880.097	22272
880.224	22230
880.351	22428
880.478	22287
880.605	22280
880.732	22268
880.859	22577
880.986	22219
881.112	22299
881.239	22185
881.366	22048
881.493	21899
881.619	21873
881.746	21827
881.872	21808
881.999	21850
882.125	21800
882.252	21838
882.378	21907
882.505	21949
882.631	21667
882.757	21542
882.883	21682
883.01	21557
883.136	21553
883.262	21386
883.388	21233
883.514	21545
883.64	21511
883.766	21523
883.892	21416
884.018	21424
884.143	21568
884.269	21595
884.395	21203
884.52	21279
884.646	21245
884.772	21081
884.897	21085
885.023	21161
885.148	21207
885.274	21252
885.399	21112
885.524	21123
885.65	21119
885.775	21146
885.9	21024
886.025	21294
886.15	21150
886.275	21211
886.4	21081
886.525	21192
886.65	21077
886.775	21085
886.9	21275
887.025	21397
887.149	21051
887.274	21032
887.399	20937
887.523	20823
887.648	20929
887.773	20834
887.897	21066
888.021	21077
888.146	20944
888.27	21024
888.395	20998
888.519	20906
888.643	20975
888.767	21058
888.891	20887
889.015	20743
889.139	20663
889.263	20617
889.387	20861
889.511	20937
889.635	20830
889.759	20720
889.883	20716
890.006	20807
890.13	20830
890.254	20640
890.377	20727
890.501	20374
890.624	20511
890.748	20533
890.871	20355
890.995	20336
891.118	20256
891.241	20267
891.364	20286
891.488	20499
891.611	20298
891.734	20328
891.857	20385
891.98	20332
892.103	20343
892.226	20271
892.349	20221
892.471	20069
892.594	20271
892.717	20126
892.839	20153
892.962	20191
893.085	20271
893.207	20221
893.33	20153
893.452	20275
893.575	20176
893.697	20115
893.819	20324
893.941	20415
894.064	20206
894.186	20164
894.308	20065
894.43	20298
894.552	20305
894.674	20233
894.796	20062
894.918	20149
895.04	20134
895.161	20252
895.283	20183
895.405	20164
895.526	20225
895.648	20206
895.769	20248
895.891	20252
896.012	20187
896.134	20282
896.255	20263
896.376	20115
896.498	20282
896.619	20206
896.74	20172
896.861	20267
896.982	20476
897.103	20659
897.224	20533
897.345	20511
897.466	20339
897.587	20339
897.708	20575
897.828	20404
897.949	20434
898.07	20237
898.19	20366
898.311	20473
898.431	20328
898.552	20431
898.672	20415
898.792	20438
898.913	20374
899.033	20358
899.153	20157
899.273	20046
899.393	20157
899.513	20145
899.633	20183
899.753	20069
899.873	20115
899.993	20149
900.113	20073
900.232	20130
900.352	19940
900.472	19932
900.591	19925
900.711	19898
900.83	19936
900.95	20073
901.069	19947
901.189	19841
901.308	19674
901.427	19457
901.546	19445
901.665	19628
901.784	19483
901.904	19373
902.023	19266
902.141	19084
902.26	19099
902.379	19042
902.498	19042
902.617	18970
902.735	19000
902.854	19065
902.973	18867
903.091	18810
903.21	18719
903.328	18707
903.446	18456
903.565	18517
903.683	18467
903.801	18384
903.919	18441
904.038	18391
904.156	18205
904.274	18289
904.392	18205
904.51	18182
904.627	18190
904.745	18197
904.863	18254
904.981	18121
905.098	17958
905.216	18060
905.334	17920
905.451	17988
905.569	17973
905.686	17958
905.803	18019
905.921	17752
906.038	17882
906.155	17813
906.272	17566
906.389	17657
906.506	17440
906.623	17444
906.74	17566
906.857	17364
906.974	17349
907.091	17467
907.208	17463
907.324	17535
907.441	17341
907.557	17239
907.674	17254
907.79	17140
907.907	17094
908.023	17197
908.139	17147
908.256	17102
908.372	17128
908.488	17071
908.604	16980
908.72	16885
908.836	16927
908.952	16850
909.068	16847
909.184	17041
909.3	16942
909.415	16911
909.531	16885
909.647	16713
909.762	16542
909.878	16637
909.993	16607
910.108	16500
910.224	16519
910.339	16493
910.454	16489
910.57	16489
910.685	16436
910.8	16611
910.915	16538
911.03	16390
911.145	16211
911.259	16211
911.374	16120
911.489	16173
911.604	15991
911.718	15972
911.833	15850
911.947	15789
912.062	15838
912.176	15956
912.291	15949
912.405	15987
912.519	16078
912.633	16131
912.748	16006
912.862	15979
912.976	15701
913.09	15770
913.204	15724
913.318	15762
913.431	15880
913.545	15804
913.659	15850
913.772	15747
913.886	15648
914	15663
914.113	15679
914.226	15747
914.34	15625
914.453	15439
914.566	15610
914.68	15454
914.793	15416
914.906	15192
915.019	15207
915.132	15100
915.245	15180
915.358	15218
915.47	15176
915.583	15085
915.696	15127
915.809	15218
915.921	15260
916.034	15180
916.146	15062
916.259	14975
916.371	15169
916.483	15161
916.595	15070
916.708	15081
916.82	15009
916.932	14937
917.044	14921
917.156	14834
917.268	14826
917.38	14872
917.491	14826
917.603	14743
917.715	14842
917.826	14899
917.938	14868
918.049	14663
918.161	14785
918.272	14853
918.384	14910
918.495	14705
918.606	14674
918.717	14560
918.828	14613
918.939	14644
919.05	14488
919.161	14530
919.272	14412
919.383	14419
919.494	14602
919.604	14712
919.715	14621
919.826	14423
919.936	14461
920.047	14545
920.157	14560
920.267	14670
920.378	14488
920.488	14507
920.598	14697
920.708	14872
920.818	14598
920.928	14724
921.038	14842
921.148	14720
921.258	14450
921.368	14328
921.477	14328
921.587	14225
921.697	14073
921.806	14206
921.916	14123
922.025	13940
922.134	13807
922.244	13856
922.353	14016
922.462	13845
922.571	13689
922.68	13559
922.789	13559
922.898	13628
923.007	13453
923.116	13521
923.224	13533
923.333	13537
923.442	13403
923.55	13343
923.659	13373
923.767	13384
923.876	13422
923.984	13453
924.092	13278
924.201	13324
924.309	13285
924.417	13312
924.525	13164
924.633	13308
924.741	14161
924.849	13118
924.956	13107
925.064	12981
925.172	12947
925.279	12977
925.387	13012
925.494	13050
925.602	13084
925.709	13046
925.816	12901
925.924	12958
926.031	12913
926.138	12867
926.245	12932
926.352	12791
926.459	12958
926.566	12943
926.673	12882
926.779	12700
926.886	12715
926.993	12509
927.099	12467
927.206	12498
927.312	12483
927.419	12627
927.525	12502
927.631	12582
927.737	12361
927.843	12452
927.95	12372
928.056	12372
928.162	12403
928.267	12384
928.373	12970
928.479	12433
928.585	12205
928.69	12350
928.796	12323
928.901	12292
929.007	12053
929.112	12235
929.218	12209
929.323	12102
929.428	12076
929.533	12106
929.638	11942
929.743	12076
929.848	12045
929.953	11950
930.058	11897
930.163	11775
930.267	11821
930.372	11893
930.477	11748
930.581	12095
930.685	11775
930.79	11657
930.894	11748
930.998	11600
931.103	11756
931.207	11356
931.311	11284
931.415	11280
931.519	11060
931.623	11045
