Data from test_V78500241_2232.txt Node
Date: Fri Mar 25 15:25:24 CST 2022
User: usil
Spectrometer: V785-0024
Trigger mode: 0
Integration Time (sec): 4.000000E-1
Scans to average: 1
Nonlinearity correction enabled: false
Boxcar width: 0
Storing dark spectrum: false
XAxis mode: Wavelengths
Number of Pixels in Spectrum: 1024
>>>>>Begin Spectral Data<<<<<
801.071	27812
801.214	27713
801.356	27367
801.499	27363
801.641	27332
801.783	27184
801.926	27351
802.068	27256
802.211	27104
802.353	27173
802.496	26944
802.638	26921
802.78	26971
802.923	26914
803.065	26712
803.208	26902
803.35	26975
803.492	27039
803.635	27104
803.777	26891
803.919	27062
804.061	27378
804.204	27188
804.346	27077
804.488	26925
804.63	27146
804.773	26933
804.915	27024
805.057	27279
805.199	27165
805.341	27176
805.483	27279
805.626	27226
805.768	27066
805.91	27207
806.052	27336
806.194	27184
806.336	27378
806.478	27332
806.62	27317
806.762	27382
806.904	27511
807.046	27641
807.188	27656
807.33	27591
807.472	27732
807.614	27431
807.756	27663
807.898	27553
808.04	27416
808.182	27412
808.324	27614
808.465	27553
808.607	27720
808.749	27918
808.891	28051
809.033	28013
809.174	28074
809.316	27717
809.458	27873
809.6	27804
809.741	27987
809.883	28070
810.025	28093
810.166	28162
810.308	28143
810.45	28070
810.591	28059
810.733	27968
810.875	27751
811.016	27679
811.158	27603
811.299	28090
811.441	28082
811.582	28063
811.724	27800
811.865	27842
812.007	27854
812.148	27835
812.29	27770
812.431	27991
812.573	28124
812.714	28322
812.855	28466
812.997	28531
813.138	28634
813.279	28489
813.421	28386
813.562	28268
813.703	28192
813.845	28086
813.986	27808
814.127	27572
814.268	27511
814.41	27667
814.551	27370
814.692	27591
814.833	27397
814.974	27538
815.115	27564
815.256	27386
815.397	27519
815.539	27511
815.68	27336
815.821	27260
815.962	27313
816.103	27268
816.244	27184
816.385	27066
816.526	26910
816.666	26956
816.807	26708
816.948	26720
817.089	26883
817.23	26750
817.371	26743
817.512	26735
817.653	26857
817.793	26693
817.934	26807
818.075	26895
818.216	26830
818.356	26773
818.497	26754
818.638	26480
818.778	26476
818.919	26522
819.06	26461
819.2	26769
819.341	26727
819.481	26720
819.622	26929
819.762	27135
819.903	27028
820.043	26960
820.184	26902
820.324	26804
820.465	27051
820.605	26857
820.746	26948
820.886	26785
821.026	26857
821.167	26804
821.307	26853
821.447	26834
821.588	26613
821.728	26583
821.868	26476
822.008	26351
822.149	26240
822.289	26355
822.429	26103
822.569	25947
822.709	25803
822.849	25772
822.99	25822
823.13	25791
823.27	25750
823.41	25556
823.55	25499
823.69	25613
823.83	25643
823.97	25594
824.11	25304
824.25	25293
824.389	25331
824.529	25426
824.669	25502
824.809	25544
824.949	25491
825.089	25506
825.228	25354
825.368	25327
825.508	25221
825.648	25304
825.787	25324
825.927	25365
826.067	25183
826.206	25270
826.346	25324
826.485	25297
826.625	25327
826.765	25419
826.904	25266
827.044	25034
827.183	25160
827.323	24973
827.462	25042
827.601	25034
827.741	24981
827.88	25004
828.02	24897
828.159	24939
828.298	24939
828.437	25126
828.577	24905
828.716	25053
828.855	24844
828.994	24604
829.134	24681
829.273	24810
829.412	24707
829.551	24642
829.69	24661
829.829	24589
829.968	24692
830.107	24749
830.246	24635
830.385	24486
830.524	24563
830.663	24422
830.802	24407
830.941	24266
831.08	24334
831.219	24403
831.357	24380
831.496	24536
831.635	24338
831.774	24194
831.913	24247
832.051	24117
832.19	24079
832.329	24174
832.467	24018
832.606	24026
832.744	23882
832.883	23931
833.022	23958
833.16	23984
833.299	23893
833.437	23927
833.576	23996
833.714	23984
833.852	23908
833.991	24030
834.129	24171
834.267	24129
834.406	24057
834.544	24011
834.682	24083
834.821	24011
834.959	24201
835.097	23992
835.235	24064
835.373	23969
835.511	24003
835.65	23897
835.788	23859
835.926	23722
836.064	23630
836.202	23752
836.34	23908
836.478	23901
836.615	23741
836.753	23897
836.891	23889
837.029	23718
837.167	23767
837.305	23737
837.443	23836
837.58	23611
837.718	23752
837.856	23714
837.993	23668
838.131	23745
838.269	23585
838.406	23642
838.544	23547
838.681	23349
838.819	23345
838.956	23124
839.094	23113
839.231	23250
839.369	23277
839.506	23547
839.643	23421
839.781	23140
839.918	23189
840.055	23170
840.193	23159
840.33	23102
840.467	23048
840.604	23102
840.742	23318
840.879	22957
841.016	23083
841.153	23117
841.29	23105
841.427	23033
841.564	23136
841.701	23056
841.838	23041
841.975	22881
842.112	23029
842.249	22812
842.385	22938
842.522	23033
842.659	22866
842.796	22733
842.933	22656
843.069	22828
843.206	22713
843.343	22904
843.479	22881
843.616	22702
843.752	22618
843.889	22634
844.025	22767
844.162	22493
844.298	22637
844.435	22588
844.571	22706
844.708	22691
844.844	22725
844.98	22710
845.117	22771
845.253	22443
845.389	22523
845.525	22371
845.661	22497
845.798	22318
845.934	22303
846.07	22261
846.206	22459
846.342	22497
846.478	22272
846.614	22029
846.75	21991
846.886	22040
847.022	22051
847.158	22223
847.294	22067
847.429	21991
847.565	21945
847.701	22284
847.837	21766
847.972	21743
848.108	21915
848.244	21755
848.379	21709
848.515	21739
848.65	21572
848.786	21595
848.921	21561
849.057	21694
849.192	21705
849.328	21629
849.463	21660
849.598	21606
849.734	21564
849.869	21443
850.004	21370
850.14	21458
850.275	21340
850.41	21355
850.545	21298
850.68	21302
850.815	21458
850.95	21431
851.085	21454
851.22	21542
851.355	21401
851.49	21359
851.625	21283
851.76	21386
851.895	21260
852.03	21412
852.165	21279
852.299	21523
852.434	21466
852.569	21370
852.703	21447
852.838	21466
852.973	21614
853.107	21507
853.242	21317
853.376	21310
853.511	21154
853.645	21222
853.78	21344
853.914	21264
854.048	21161
854.183	21203
854.317	21302
854.451	21526
854.585	21329
854.72	21237
854.854	21291
854.988	21199
855.122	21264
855.256	21142
855.39	21112
855.524	21306
855.658	21260
855.792	21321
855.926	21176
856.06	21203
856.194	21351
856.327	21184
856.461	21249
856.595	21127
856.729	21081
856.862	21382
856.996	21310
857.13	21260
857.263	21329
857.397	21367
857.53	21173
857.664	21249
857.797	21294
857.931	21443
858.064	21260
858.197	21355
858.331	21218
858.464	21218
858.597	21093
858.731	21233
858.864	21207
858.997	21233
859.13	21237
859.263	21195
859.396	21272
859.529	21142
859.662	21176
859.795	21195
859.928	21268
860.061	21344
860.194	21515
860.327	21260
860.46	21272
860.592	21340
860.725	21367
860.858	21287
860.99	21237
861.123	21207
861.256	21264
861.388	21317
861.521	21892
861.653	21058
861.786	21089
861.918	21017
862.05	21157
862.183	21116
862.315	21131
862.447	21192
862.58	21074
862.712	20868
862.844	20868
862.976	21009
863.108	21119
863.24	21363
863.372	20845
863.504	20845
863.636	20921
863.768	21142
863.9	20982
864.032	20819
864.164	20887
864.296	20967
864.428	21020
864.559	21055
864.691	21055
864.823	20891
864.954	20952
865.086	20842
865.217	20891
865.349	20845
865.48	20807
865.612	20914
865.743	20971
865.875	20853
866.006	20788
866.137	20727
866.269	20743
866.4	20804
866.531	20724
866.662	20727
866.793	20769
866.924	20807
867.055	20796
867.186	20701
867.317	20785
867.448	20571
867.579	20720
867.71	20720
867.841	20632
867.972	20804
868.103	20640
868.233	20815
868.364	20731
868.495	20762
868.625	20979
868.756	21093
868.886	20967
869.017	20880
869.147	21081
869.278	21085
869.408	21055
869.539	20979
869.669	21116
869.799	21157
869.929	21157
870.06	21211
870.19	21283
870.32	21275
870.45	21374
870.58	21424
870.71	21454
870.84	21504
870.97	21443
871.1	21389
871.23	21545
871.36	21576
871.489	21519
871.619	21526
871.749	21568
871.879	21633
872.008	21762
872.138	21553
872.267	21599
872.397	21496
872.526	21378
872.656	21447
872.785	21393
872.915	21663
873.044	21739
873.173	21603
873.303	21751
873.432	21686
873.561	21625
873.69	21599
873.819	21568
873.948	21720
874.077	21637
874.206	21561
874.335	21732
874.464	21793
874.593	21766
874.722	21869
874.851	21926
874.979	21823
875.108	21972
875.237	21766
875.365	21694
875.494	21797
875.623	21808
875.751	21937
875.88	21789
876.008	21922
876.136	21941
876.265	22314
876.393	22272
876.521	22314
876.65	22314
876.778	22177
876.906	22181
877.034	22242
877.162	22249
877.29	22158
877.418	22173
877.546	22287
877.674	22211
877.802	22177
877.93	22158
878.058	22166
878.185	22048
878.313	22143
878.441	22246
878.568	22010
878.696	22044
878.824	22226
878.951	22242
879.079	22223
879.206	22462
879.333	22402
879.461	22207
879.588	22306
879.715	22291
879.842	22481
879.97	22166
880.097	22010
880.224	21934
880.351	22078
880.478	22059
880.605	21991
880.732	21949
880.859	22169
880.986	21941
881.112	22097
881.239	21755
881.366	21808
881.493	21778
881.619	21618
881.746	21591
881.872	21625
881.999	21595
882.125	21488
882.252	21648
882.378	21580
882.505	21766
882.631	21557
882.757	21507
882.883	21313
883.01	21374
883.136	21192
883.262	21180
883.388	21005
883.514	21306
883.64	21370
883.766	21268
883.892	21032
884.018	21051
884.143	21176
884.269	21344
884.395	20971
884.52	20785
884.646	20918
884.772	20868
884.897	20819
885.023	21074
885.148	21009
885.274	21017
885.399	21104
885.524	20883
885.65	20918
885.775	20906
885.9	21085
886.025	21001
886.15	20967
886.275	20880
886.4	20849
886.525	20941
886.65	20857
886.775	20941
886.9	21036
887.025	21173
887.149	21032
887.274	20708
887.399	20674
887.523	20602
887.648	20640
887.773	20606
887.897	20746
888.021	20598
888.146	20648
888.27	20842
888.395	20864
888.519	20693
888.643	20693
888.767	20678
888.891	20632
889.015	20617
889.139	20670
889.263	20480
889.387	20606
889.511	20693
889.635	20648
889.759	20480
889.883	20507
890.006	20556
890.13	20735
890.254	20488
890.377	20396
890.501	20221
890.624	20347
890.748	20259
890.871	20191
890.995	20142
891.118	20043
891.241	20031
891.364	20084
891.488	20256
891.611	19967
891.734	20092
891.857	20100
891.98	20039
892.103	20096
892.226	20111
892.349	20126
892.471	19894
892.594	20024
892.717	20046
892.839	20012
892.962	19993
893.085	20016
893.207	20024
893.33	19803
893.452	19921
893.575	20016
893.697	19940
893.819	20138
893.941	20191
894.064	20027
894.186	19917
894.308	19921
894.43	20077
894.552	20153
894.674	20103
894.796	19902
894.918	19970
895.04	19887
895.161	20157
895.283	20031
895.405	19913
895.526	19986
895.648	19959
895.769	20130
895.891	20084
896.012	20058
896.134	20065
896.255	20031
896.376	19940
896.498	19947
896.619	20027
896.74	20088
896.861	19997
896.982	20248
897.103	20408
897.224	20370
897.345	20195
897.466	20168
897.587	20180
897.708	20351
897.828	20233
897.949	20145
898.07	20012
898.19	20145
898.311	20248
898.431	20035
898.552	20221
898.672	20313
898.792	20301
898.913	20240
899.033	20084
899.153	19982
899.273	19890
899.393	20046
899.513	19932
899.633	19909
899.753	19894
899.873	19856
899.993	20138
900.113	19883
900.232	19902
900.352	19925
900.472	19833
900.591	19719
900.711	19814
900.83	19666
900.95	19902
901.069	19932
901.189	19655
901.308	19312
901.427	19384
901.546	19365
901.665	19362
901.784	19358
901.904	19198
902.023	19027
902.141	18962
902.26	18894
902.379	18859
902.498	18776
902.617	18863
902.735	18928
902.854	18798
902.973	18734
903.091	18509
903.21	18566
903.328	18486
903.446	18494
903.565	18308
903.683	18308
903.801	18197
903.919	18369
904.038	18251
904.156	18140
904.274	18076
904.392	18072
904.51	18045
904.627	18102
904.745	18186
904.863	18148
904.981	17923
905.098	17771
905.216	17703
905.334	17764
905.451	17866
905.569	17764
905.686	17767
905.803	17783
905.921	17547
906.038	17695
906.155	17558
906.272	17501
906.389	17478
906.506	17337
906.623	17326
906.74	17398
906.857	17204
906.974	17117
907.091	17299
907.208	17452
907.324	17345
907.441	17258
907.557	17098
907.674	16980
907.79	16965
907.907	17041
908.023	17083
908.139	17170
908.256	17041
908.372	16965
908.488	17045
908.604	16854
908.72	16774
908.836	16839
908.952	16733
909.068	16839
909.184	16824
909.3	16831
909.415	16733
909.531	16725
909.647	16596
909.762	16554
909.878	16516
909.993	16508
910.108	16451
910.224	16382
910.339	16558
910.454	16318
910.57	16322
910.685	16261
910.8	16569
910.915	16402
911.03	16280
911.145	16124
911.259	16067
911.374	16128
911.489	15987
911.604	15922
911.718	15812
911.833	15831
911.947	15743
912.062	15679
912.176	15766
912.291	15842
912.405	15698
912.519	15960
912.633	16013
912.748	15911
912.862	15778
912.976	15690
913.09	15656
913.204	15557
913.318	15648
913.431	15724
913.545	15675
913.659	15778
913.772	15526
913.886	15412
914	15382
914.113	15504
914.226	15519
914.34	15466
914.453	15397
914.566	15405
914.68	15332
914.793	15291
914.906	15112
915.019	15074
915.132	14906
915.245	15127
915.358	15043
915.47	15047
915.583	15112
915.696	15116
915.809	15127
915.921	15142
916.034	15013
916.146	14979
916.259	14944
916.371	14998
916.483	14990
916.595	14788
916.708	14838
916.82	14880
916.932	14739
917.044	14857
917.156	14716
917.268	14731
917.38	14629
917.491	14667
917.603	14758
917.715	14735
917.826	14765
917.938	14720
918.049	14568
918.161	14678
918.272	14781
918.384	14762
918.495	14492
918.606	14522
918.717	14446
918.828	14518
918.939	14442
919.05	14400
919.161	14381
919.272	14298
919.383	14282
919.494	14457
919.604	14594
919.715	14484
919.826	14313
919.936	14362
920.047	14522
920.157	14423
920.267	14514
920.378	14446
920.488	14317
920.598	14610
920.708	14716
920.818	14552
920.928	14476
921.038	14712
921.148	14648
921.258	14313
921.368	14313
921.477	14263
921.587	14134
921.697	14100
921.806	14123
921.916	13997
922.025	13978
922.134	13814
922.244	13727
922.353	13856
922.462	13674
922.571	13670
922.68	13460
922.789	13369
922.898	13438
923.007	13457
923.116	13449
923.224	13339
923.333	13316
923.442	13350
923.55	13240
923.659	13346
923.767	13438
923.876	13209
923.984	13346
924.092	13206
924.201	13168
924.309	13194
924.417	13251
924.525	13061
924.633	13103
924.741	13871
924.849	12901
924.956	13080
925.064	12905
925.172	12833
925.279	12787
925.387	13015
925.494	12939
925.602	12993
925.709	12829
925.816	12791
925.924	12837
926.031	12928
926.138	12852
926.245	12897
926.352	12741
926.459	12932
926.566	12840
926.673	12665
926.779	12646
926.886	12673
926.993	12494
927.099	12448
927.206	12433
927.312	12403
927.419	12509
927.525	12494
927.631	12407
927.737	12277
927.843	12289
927.95	12216
928.056	12304
928.162	12350
928.267	12403
928.373	12913
928.479	12304
928.585	12079
928.69	12232
928.796	12300
928.901	12163
929.007	11935
929.112	12083
929.218	12110
929.323	12106
929.428	12015
929.533	12155
929.638	11965
929.743	11980
929.848	11999
929.953	12026
930.058	11863
930.163	11695
930.267	11688
930.372	11893
930.477	11668
930.581	11840
930.685	11775
930.79	11581
930.894	11646
930.998	11615
931.103	11604
931.207	11379
931.311	11254
931.415	11132
931.519	10984
931.623	10991
