Data from test_V78500241_3398.txt Node
Date: Fri Mar 25 15:33:31 CST 2022
User: usil
Spectrometer: V785-0024
Trigger mode: 0
Integration Time (sec): 4.000000E-1
Scans to average: 1
Nonlinearity correction enabled: false
Boxcar width: 0
Storing dark spectrum: false
XAxis mode: Wavelengths
Number of Pixels in Spectrum: 1024
>>>>>Begin Spectral Data<<<<<
801.071	27173
801.214	27226
801.356	26937
801.499	27028
801.641	26891
801.783	26823
801.926	26845
802.068	26815
802.211	26765
802.353	26678
802.496	26492
802.638	26423
802.78	26564
802.923	26282
803.065	26259
803.208	26259
803.35	26484
803.492	26674
803.635	26663
803.777	26549
803.919	26632
804.061	27024
804.204	26590
804.346	26431
804.488	26545
804.63	26465
804.773	26480
804.915	26644
805.057	26880
805.199	26522
805.341	26731
805.483	26697
805.626	26674
805.768	26625
805.91	26823
806.052	26765
806.194	26667
806.336	26819
806.478	26800
806.62	26720
806.762	26826
806.904	26899
807.046	27100
807.188	27146
807.33	27127
807.472	27154
807.614	27085
807.756	27005
807.898	26952
808.04	26868
808.182	26937
808.324	26887
808.465	26933
808.607	27146
808.749	27329
808.891	27447
809.033	27389
809.174	27325
809.316	27287
809.458	27233
809.6	27245
809.741	27340
809.883	27370
810.025	27618
810.166	27591
810.308	27641
810.45	27542
810.591	27427
810.733	27450
810.875	27233
811.016	27203
811.158	27176
811.299	27393
811.441	27416
811.582	27382
811.724	27321
811.865	27249
812.007	27203
812.148	27169
812.29	27291
812.431	27408
812.573	27606
812.714	27667
812.855	27751
812.997	27819
813.138	27926
813.279	28055
813.421	27736
813.562	27724
813.703	27603
813.845	27519
813.986	27245
814.127	26986
814.268	26842
814.41	26872
814.551	26990
814.692	27005
814.833	26910
814.974	26933
815.115	27001
815.256	26887
815.397	26686
815.539	26823
815.68	26804
815.821	26590
815.962	26800
816.103	26727
816.244	26651
816.385	26533
816.526	26438
816.666	26244
816.807	26233
816.948	26324
817.089	26355
817.23	26271
817.371	26294
817.512	26202
817.653	26263
817.793	26206
817.934	25997
818.075	26172
818.216	26328
818.356	26199
818.497	26145
818.638	26020
818.778	26005
818.919	25978
819.06	26005
819.2	26206
819.341	26244
819.481	26195
819.622	26298
819.762	26415
819.903	26480
820.043	26415
820.184	26278
820.324	26256
820.465	26473
820.605	26381
820.746	26351
820.886	26103
821.026	26248
821.167	26149
821.307	26298
821.447	26161
821.588	26088
821.728	25917
821.868	25811
822.008	25750
822.149	25750
822.289	25658
822.429	25537
822.569	25415
822.709	25304
822.849	25232
822.99	25213
823.13	25194
823.27	25107
823.41	24932
823.55	24928
823.69	25034
823.83	25027
823.97	24977
824.11	24817
824.25	24741
824.389	24814
824.529	24810
824.669	24760
824.809	24848
824.949	24814
825.089	24943
825.228	24886
825.368	24772
825.508	24787
825.648	24692
825.787	24791
825.927	24738
826.067	24677
826.206	24604
826.346	24787
826.485	24859
826.625	24692
826.765	24741
826.904	24719
827.044	24517
827.183	24388
827.323	24426
827.462	24544
827.601	24350
827.741	24308
827.88	24540
828.02	24232
828.159	24323
828.298	24410
828.437	24403
828.577	24251
828.716	24464
828.855	24213
828.994	24144
829.134	24232
829.273	24220
829.412	24114
829.551	23980
829.69	24190
829.829	24117
829.968	24114
830.107	24152
830.246	24178
830.385	24072
830.524	24057
830.663	24003
830.802	23927
830.941	23729
831.08	23767
831.219	23813
831.357	23927
831.496	24011
831.635	23699
831.774	23767
831.913	23684
832.051	23436
832.19	23467
832.329	23611
832.467	23440
832.606	23273
832.744	23490
832.883	23467
833.022	23501
833.16	23402
833.299	23478
833.437	23406
833.576	23474
833.714	23505
833.852	23570
833.991	23558
834.129	23562
834.267	23729
834.406	23478
834.544	23406
834.682	23429
834.821	23558
834.959	23691
835.097	23303
835.235	23543
835.373	23573
835.511	23303
835.65	23303
835.788	23258
835.926	23231
836.064	23121
836.202	23197
836.34	23387
836.478	23368
836.615	23410
836.753	23334
836.891	23467
837.029	23402
837.167	23231
837.305	23220
837.443	23239
837.58	23117
837.718	23208
837.856	23155
837.993	23143
838.131	23102
838.269	23174
838.406	23071
838.544	22968
838.681	22900
838.819	22812
838.956	22626
839.094	22592
839.231	22634
839.369	22915
839.506	23178
839.643	22968
839.781	22729
839.918	22474
840.055	22656
840.193	22588
840.33	22607
840.467	22634
840.604	22634
840.742	22923
840.879	22531
841.016	22527
841.153	22596
841.29	22634
841.427	22462
841.564	22702
841.701	22634
841.838	22588
841.975	22565
842.112	22485
842.249	22341
842.385	22299
842.522	22588
842.659	22462
842.796	22318
842.933	22341
843.069	22276
843.206	22375
843.343	22504
843.479	22398
843.616	22371
843.752	22101
843.889	22173
844.025	22284
844.162	22158
844.298	22276
844.435	22124
844.571	22128
844.708	22097
844.844	22238
844.98	22276
845.117	22169
845.253	22234
845.389	22010
845.525	21972
845.661	21994
845.798	21812
845.934	21941
846.07	21930
846.206	21934
846.342	22036
846.478	21823
846.614	21675
846.75	21660
846.886	21549
847.022	21694
847.158	21656
847.294	21690
847.429	21618
847.565	21595
847.701	21850
847.837	21310
847.972	21298
848.108	21526
848.244	21378
848.379	21241
848.515	21230
848.65	21180
848.786	21260
848.921	21195
849.057	21310
849.192	21291
849.328	21237
849.463	21241
849.598	21249
849.734	21070
849.869	21089
850.004	20929
850.14	20891
850.275	21142
850.41	21024
850.545	20944
850.68	20823
850.815	20990
850.95	20967
851.085	21245
851.22	21062
851.355	21112
851.49	20868
851.625	20910
851.76	20944
851.895	20918
852.03	20994
852.165	20937
852.299	20994
852.434	21131
852.569	21066
852.703	20960
852.838	21001
852.973	21005
853.107	21013
853.242	20807
853.376	20788
853.511	20655
853.645	20792
853.78	20823
853.914	20807
854.048	20811
854.183	20724
854.317	20861
854.451	21005
854.585	20762
854.72	20834
854.854	20876
854.988	20834
855.122	20750
855.256	20720
855.39	20667
855.524	20872
855.658	20842
855.792	20811
855.926	20785
856.06	20864
856.194	20982
856.327	20826
856.461	20830
856.595	20807
856.729	20663
856.862	20941
856.996	20823
857.13	20895
857.263	20914
857.397	20758
857.53	20830
857.664	20838
857.797	20769
857.931	20876
858.064	20796
858.197	20891
858.331	20758
858.464	20727
858.597	20632
858.731	20861
858.864	20731
858.997	20743
859.13	20762
859.263	20929
859.396	20731
859.529	20777
859.662	20632
859.795	20648
859.928	20807
860.061	20967
860.194	21058
860.327	20906
860.46	20754
860.592	20864
860.725	20914
860.858	21036
860.99	20868
861.123	20739
861.256	20708
861.388	20819
861.521	21466
861.653	20762
861.786	20663
861.918	20564
862.05	20701
862.183	20689
862.315	20746
862.447	20781
862.58	20693
862.712	20545
862.844	20427
862.976	20598
863.108	20606
863.24	21039
863.372	20537
863.504	20488
863.636	20507
863.768	20644
863.9	20511
864.032	20469
864.164	20412
864.296	20556
864.428	20602
864.559	20575
864.691	20526
864.823	20450
864.954	20469
865.086	20457
865.217	20507
865.349	20355
865.48	20366
865.612	20431
865.743	20549
865.875	20355
866.006	20339
866.137	20427
866.269	20320
866.4	20294
866.531	20408
866.662	20328
866.793	20324
866.924	20328
867.055	20434
867.186	20396
867.317	20366
867.448	20358
867.579	20488
867.71	20309
867.841	20332
867.972	20454
868.103	20286
868.233	20412
868.364	20423
868.495	20518
868.625	20613
868.756	20594
868.886	20571
869.017	20583
869.147	20705
869.278	20769
869.408	20674
869.539	20587
869.669	20739
869.799	20583
869.929	20804
870.06	20617
870.19	20952
870.32	20853
870.45	20967
870.58	20868
870.71	21001
870.84	21207
870.97	21112
871.1	21005
871.23	21192
871.36	21237
871.489	20975
871.619	21192
871.749	21237
871.879	21291
872.008	21256
872.138	21233
872.267	21279
872.397	21157
872.526	20967
872.656	21093
872.785	21047
872.915	21233
873.044	21283
873.173	21104
873.303	21275
873.432	21176
873.561	21462
873.69	21283
873.819	21382
873.948	21249
874.077	21279
874.206	21249
874.335	21161
874.464	21310
874.593	21469
874.722	21348
874.851	21458
874.979	21481
875.108	21443
875.237	21496
875.365	21306
875.494	21386
875.623	21610
875.751	21599
875.88	21515
876.008	21614
876.136	21682
876.265	21869
876.393	21987
876.521	21888
876.65	21983
876.778	21732
876.906	21838
877.034	21690
877.162	21827
877.29	21941
877.418	21915
877.546	21846
877.674	21804
877.802	21770
877.93	21865
878.058	21838
878.185	21720
878.313	21770
878.441	21835
878.568	21641
878.696	21774
878.824	21869
878.951	21876
879.079	22032
879.206	22051
879.333	21953
879.461	21899
879.588	21884
879.715	22021
879.842	22013
879.97	21876
880.097	21671
880.224	21564
880.351	21644
880.478	21656
880.605	21622
880.732	21686
880.859	21892
880.986	21618
881.112	21667
881.239	21519
881.366	21367
881.493	21249
881.619	21291
881.746	21214
881.872	21203
881.999	21085
882.125	21199
882.252	21218
882.378	21237
882.505	21306
882.631	21112
882.757	21066
882.883	20967
883.01	20857
883.136	20975
883.262	20735
883.388	20636
883.514	20918
883.64	20910
883.766	20819
883.892	20693
884.018	20682
884.143	20899
884.269	20914
884.395	20621
884.52	20575
884.646	20575
884.772	20568
884.897	20366
885.023	20648
885.148	20670
885.274	20701
885.399	20651
885.524	20507
885.65	20587
885.775	20545
885.9	20594
886.025	20640
886.15	20602
886.275	20552
886.4	20393
886.525	20507
886.65	20454
886.775	20571
886.9	20644
887.025	20765
887.149	20606
887.274	20431
887.399	20313
887.523	20495
887.648	20252
887.773	20271
887.897	20389
888.021	20362
888.146	20400
888.27	20530
888.395	20518
888.519	20396
888.643	20355
888.767	20351
888.891	20259
889.015	20202
889.139	20252
889.263	20111
889.387	20423
889.511	20503
889.635	20191
889.759	20092
889.883	20153
890.006	20233
890.13	20210
890.254	20058
890.377	20088
890.501	19921
890.624	19799
890.748	19902
890.871	19845
890.995	19670
891.118	19719
891.241	19715
891.364	19871
891.488	19780
891.611	19765
891.734	19807
891.857	19803
891.98	19738
892.103	19822
892.226	19681
892.349	19674
892.471	19556
892.594	19613
892.717	19715
892.839	19616
892.962	19708
893.085	19757
893.207	19670
893.33	19529
893.452	19601
893.575	19708
893.697	19613
893.819	19887
893.941	19890
894.064	19731
894.186	19552
894.308	19582
894.43	19693
894.552	19940
894.674	19685
894.796	19533
894.918	19670
895.04	19666
895.161	19712
895.283	19655
895.405	19651
895.526	19616
895.648	19632
895.769	19689
895.891	19807
896.012	19738
896.134	19578
896.255	19795
896.376	19662
896.498	19647
896.619	19772
896.74	19605
896.861	19632
896.982	19932
897.103	20119
897.224	19894
897.345	19936
897.466	19830
897.587	19811
897.708	20020
897.828	19913
897.949	19750
898.07	19628
898.19	19746
898.311	19986
898.431	19769
898.552	19879
898.672	20035
898.792	19928
898.913	19875
899.033	19704
899.153	19586
899.273	19559
899.393	19533
899.513	19624
899.633	19624
899.753	19685
899.873	19521
899.993	19620
900.113	19620
900.232	19605
900.352	19540
900.472	19350
900.591	19297
900.711	19384
900.83	19320
900.95	19487
901.069	19514
901.189	19289
901.308	19110
901.427	18996
901.546	18970
901.665	19000
901.784	18977
901.904	18810
902.023	18829
902.141	18623
902.26	18570
902.379	18635
902.498	18601
902.617	18437
902.735	18486
902.854	18555
902.973	18506
903.091	18213
903.21	18213
903.328	18243
903.446	18144
903.565	18034
903.683	18015
903.801	17779
903.919	17859
904.038	17882
904.156	17847
904.274	17866
904.392	17760
904.51	17794
904.627	17661
904.745	17752
904.863	17794
904.981	17577
905.098	17490
905.216	17391
905.334	17398
905.451	17376
905.569	17402
905.686	17406
905.803	17387
905.921	17337
906.038	17353
906.155	17242
906.272	17117
906.389	17216
906.506	17064
906.623	17018
906.74	16968
906.857	16900
906.974	16831
907.091	16961
907.208	17235
907.324	17132
907.441	16869
907.557	16801
907.674	16675
907.79	16535
907.907	16721
908.023	16668
908.139	16736
908.256	16634
908.372	16580
908.488	16641
908.604	16611
908.72	16493
908.836	16493
908.952	16352
909.068	16466
909.184	16459
909.3	16382
909.415	16523
909.531	16409
909.647	16150
909.762	16162
909.878	16040
909.993	16261
910.108	16215
910.224	16116
910.339	15964
910.454	15998
910.57	15998
910.685	15907
910.8	16166
910.915	16025
911.03	15934
911.145	15778
911.259	15819
911.374	15667
911.489	15656
911.604	15564
911.718	15507
911.833	15530
911.947	15367
912.062	15401
912.176	15492
912.291	15477
912.405	15507
912.519	15762
912.633	15606
912.748	15652
912.862	15450
912.976	15378
913.09	15169
913.204	15310
913.318	15283
913.431	15469
913.545	15401
913.659	15351
913.772	15218
913.886	15036
914	15131
914.113	15184
914.226	15287
914.34	15161
914.453	15032
914.566	15199
914.68	15017
914.793	15009
914.906	14758
915.019	14769
915.132	14746
915.245	14727
915.358	14716
915.47	14701
915.583	14750
915.696	14769
915.809	14933
915.921	14830
916.034	14670
916.146	14686
916.259	14545
916.371	14743
916.483	14727
916.595	14549
916.708	14568
916.82	14564
916.932	14446
917.044	14552
917.156	14511
917.268	14374
917.38	14377
917.491	14454
917.603	14423
917.715	14499
917.826	14541
917.938	14313
918.049	14237
918.161	14351
918.272	14423
918.384	14503
918.495	14324
918.606	14298
918.717	14069
918.828	14225
918.939	14248
919.05	14126
919.161	14176
919.272	13967
919.383	14008
919.494	14176
919.604	14366
919.715	14107
919.826	14138
919.936	14084
920.047	14229
920.157	14119
920.267	14362
920.378	14145
920.488	14225
920.598	14267
920.708	14400
920.818	14320
920.928	14271
921.038	14469
921.148	14389
921.258	14123
921.368	14103
921.477	13890
921.587	13906
921.697	13761
921.806	13928
921.916	13788
922.025	13605
922.134	13582
922.244	13567
922.353	13586
922.462	13518
922.571	13316
922.68	13232
922.789	13221
922.898	13240
923.007	13095
923.116	13285
923.224	13164
923.333	13152
923.442	13065
923.55	13031
923.659	13012
923.767	13084
923.876	12996
923.984	13015
924.092	12924
924.201	13023
924.309	12973
924.417	12920
924.525	12894
924.633	12848
924.741	13791
924.849	12688
924.956	12760
925.064	12669
925.172	12521
925.279	12521
925.387	12597
925.494	12544
925.602	12760
925.709	12616
925.816	12563
925.924	12551
926.031	12681
926.138	12620
926.245	12654
926.352	12433
926.459	12627
926.566	12589
926.673	12509
926.779	12414
926.886	12369
926.993	12315
927.099	12232
927.206	12235
927.312	12129
927.419	12209
927.525	12175
927.631	12239
927.737	12049
927.843	12045
927.95	12007
928.056	12057
928.162	12019
928.267	12117
928.373	12528
928.479	12003
928.585	11931
928.69	11988
928.796	12015
928.901	11992
929.007	11843
929.112	11973
929.218	11843
929.323	11741
929.428	11767
929.533	11908
929.638	11707
929.743	11794
929.848	11775
929.953	11760
930.058	11672
930.163	11463
930.267	11490
930.372	11516
930.477	11463
930.581	11646
930.685	11581
930.79	11288
930.894	11337
930.998	11296
931.103	11452
931.207	11128
931.311	10965
931.415	10934
931.519	10820
931.623	10740
