Data from test_V78500241_738.txt Node
Date: Fri Mar 25 15:14:59 CST 2022
User: usil
Spectrometer: V785-0024
Trigger mode: 0
Integration Time (sec): 4.000000E-1
Scans to average: 1
Nonlinearity correction enabled: false
Boxcar width: 0
Storing dark spectrum: false
XAxis mode: Wavelengths
Number of Pixels in Spectrum: 1024
>>>>>Begin Spectral Data<<<<<
801.071	27880
801.214	27755
801.356	27587
801.499	27504
801.641	27374
801.783	27408
801.926	27416
802.068	27351
802.211	27298
802.353	27123
802.496	26948
802.638	26975
802.78	27028
802.923	26883
803.065	26910
803.208	26944
803.35	27024
803.492	27123
803.635	27039
803.777	26975
803.919	27249
804.061	27408
804.204	27279
804.346	27108
804.488	27066
804.63	27119
804.773	27173
804.915	27066
805.057	27222
805.199	27252
805.341	27287
805.483	27351
805.626	27112
805.768	27176
805.91	27298
806.052	27222
806.194	27264
806.336	27408
806.478	27370
806.62	27287
806.762	27564
806.904	27553
807.046	27808
807.188	27667
807.33	27713
807.472	27755
807.614	27515
807.756	27618
807.898	27637
808.04	27648
808.182	27526
808.324	27641
808.465	27591
808.607	27770
808.749	27930
808.891	27854
809.033	28120
809.174	28006
809.316	27861
809.458	27941
809.6	27937
809.741	28166
809.883	28010
810.025	28230
810.166	28128
810.308	28143
810.45	28215
810.591	28226
810.733	27968
810.875	27854
811.016	27937
811.158	27907
811.299	28048
811.441	28234
811.582	28067
811.724	27804
811.865	27880
812.007	27964
812.148	27895
812.29	27835
812.431	28124
812.573	28268
812.714	28432
812.855	28538
812.997	28664
813.138	28630
813.279	28721
813.421	28512
813.562	28519
813.703	28318
813.845	28196
813.986	27888
814.127	27739
814.268	27549
814.41	27637
814.551	27709
814.692	27694
814.833	27694
814.974	27641
815.115	27648
815.256	27507
815.397	27580
815.539	27606
815.68	27393
815.821	27355
815.962	27443
816.103	27397
816.244	27317
816.385	27211
816.526	27142
816.666	27024
816.807	26868
816.948	27131
817.089	27081
817.23	27020
817.371	26872
817.512	26921
817.653	26944
817.793	27005
817.934	26944
818.075	26944
818.216	26971
818.356	26921
818.497	26804
818.638	26648
818.778	26632
818.919	26712
819.06	26644
819.2	26792
819.341	26963
819.481	26883
819.622	27036
819.762	27302
819.903	27062
820.043	27169
820.184	27096
820.324	27089
820.465	27001
820.605	27074
820.746	26883
820.886	26975
821.026	26914
821.167	27066
821.307	26998
821.447	26952
821.588	26777
821.728	26739
821.868	26613
822.008	26484
822.149	26347
822.289	26427
822.429	26111
822.569	26035
822.709	26050
822.849	25818
822.99	25906
823.13	25871
823.27	25906
823.41	25696
823.55	25624
823.69	25620
823.83	25761
823.97	25712
824.11	25407
824.25	25499
824.389	25571
824.529	25750
824.669	25586
824.809	25746
824.949	25635
825.089	25651
825.228	25582
825.368	25487
825.508	25464
825.648	25407
825.787	25388
825.927	25605
826.067	25343
826.206	25350
826.346	25457
826.485	25491
826.625	25499
826.765	25590
826.904	25476
827.044	25187
827.183	25221
827.323	25244
827.462	25244
827.601	25308
827.741	25015
827.88	25118
828.02	25072
828.159	25137
828.298	25251
828.437	25266
828.577	25084
828.716	25282
828.855	25034
828.994	24798
829.134	24817
829.273	24905
829.412	24897
829.551	24722
829.69	24798
829.829	24970
829.968	24867
830.107	24878
830.246	24840
830.385	24787
830.524	24642
830.663	24623
830.802	24467
830.941	24452
831.08	24437
831.219	24525
831.357	24570
831.496	24734
831.635	24429
831.774	24311
831.913	24285
832.051	24292
832.19	24220
832.329	24266
832.467	24213
832.606	24228
832.744	24095
832.883	24239
833.022	24045
833.16	24182
833.299	24136
833.437	24102
833.576	24159
833.714	24327
833.852	24285
833.991	24262
834.129	24350
834.267	24311
834.406	24304
834.544	24334
834.682	24304
834.821	24186
834.959	24395
835.097	24053
835.235	24247
835.373	24190
835.511	24254
835.65	23942
835.788	24026
835.926	23878
836.064	23729
836.202	23882
836.34	23977
836.478	24049
836.615	24030
836.753	24007
836.891	24049
837.029	23897
837.167	23904
837.305	23942
837.443	23908
837.58	23885
837.718	23942
837.856	23855
837.993	23882
838.131	23889
838.269	23707
838.406	23718
838.544	23592
838.681	23459
838.819	23497
838.956	23349
839.094	23303
839.231	23353
839.369	23531
839.506	23794
839.643	23592
839.781	23299
839.918	23208
840.055	23356
840.193	23410
840.33	23318
840.467	23212
840.604	23360
840.742	23486
840.879	23018
841.016	23071
841.153	23185
841.29	23330
841.427	23337
841.564	23223
841.701	23254
841.838	23273
841.975	23064
842.112	23254
842.249	23041
842.385	22881
842.522	23242
842.659	23003
842.796	23010
842.933	22927
843.069	22896
843.206	22949
843.343	23044
843.479	22972
843.616	23048
843.752	22774
843.889	22908
844.025	22892
844.162	22733
844.298	22919
844.435	22672
844.571	22744
844.708	22881
844.844	22904
844.98	22953
845.117	22980
845.253	22710
845.389	22637
845.525	22717
845.661	22599
845.798	22470
845.934	22569
846.07	22557
846.206	22481
846.342	22622
846.478	22523
846.614	22314
846.75	22120
846.886	22265
847.022	22169
847.158	22253
847.294	22295
847.429	22204
847.565	22291
847.701	22409
847.837	21911
847.972	21991
848.108	22131
848.244	22105
848.379	21861
848.515	21865
848.65	21774
848.786	21873
848.921	21835
849.057	21987
849.192	21975
849.328	21831
849.463	21808
849.598	21770
849.734	21644
849.869	21656
850.004	21606
850.14	21614
850.275	21648
850.41	21606
850.545	21405
850.68	21568
850.815	21504
850.95	21679
851.085	21732
851.22	21694
851.355	21443
851.49	21606
851.625	21401
851.76	21603
851.895	21496
852.03	21431
852.165	21629
852.299	21538
852.434	21637
852.569	21530
852.703	21549
852.838	21701
852.973	21785
853.107	21781
853.242	21568
853.376	21325
853.511	21226
853.645	21462
853.78	21416
853.914	21488
854.048	21416
854.183	21469
854.317	21507
854.451	21663
854.585	21428
854.72	21393
854.854	21561
854.988	21389
855.122	21496
855.256	21279
855.39	21408
855.524	21401
855.658	21454
855.792	21397
855.926	21420
856.06	21397
856.194	21450
856.327	21389
856.461	21466
856.595	21386
856.729	21351
856.862	21629
856.996	21378
857.13	21416
857.263	21473
857.397	21545
857.53	21401
857.664	21526
857.797	21500
857.931	21580
858.064	21466
858.197	21485
858.331	21450
858.464	21294
858.597	21275
858.731	21363
858.864	21439
858.997	21336
859.13	21355
859.263	21405
859.396	21500
859.529	21412
859.662	21351
859.795	21329
859.928	21374
860.061	21545
860.194	21553
860.327	21504
860.46	21473
860.592	21507
860.725	21526
860.858	21523
860.99	21401
861.123	21298
861.256	21272
861.388	21450
861.521	22200
861.653	21237
861.786	21233
861.918	21211
862.05	21363
862.183	21355
862.315	21466
862.447	21538
862.58	21370
862.712	21085
862.844	21192
862.976	21283
863.108	21310
863.24	21511
863.372	21051
863.504	21131
863.636	21062
863.768	21135
863.9	21108
864.032	21036
864.164	21058
864.296	21195
864.428	21211
864.559	21138
864.691	21199
864.823	21169
864.954	21085
865.086	21005
865.217	21055
865.349	20971
865.48	20971
865.612	20998
865.743	21146
865.875	21146
866.006	20929
866.137	20979
866.269	21028
866.4	21062
866.531	20876
866.662	20887
866.793	20815
866.924	20941
867.055	21093
867.186	20990
867.317	20891
867.448	20891
867.579	20887
867.71	20853
867.841	20979
867.972	20902
868.103	20815
868.233	21096
868.364	20925
868.495	20921
868.625	21192
868.756	21256
868.886	21173
869.017	21058
869.147	21211
869.278	21226
869.408	21218
869.539	21161
869.669	21340
869.799	21138
869.929	21424
870.06	21325
870.19	21405
870.32	21340
870.45	21488
870.58	21625
870.71	21816
870.84	21690
870.97	21530
871.1	21637
871.23	21739
871.36	21804
871.489	21549
871.619	21857
871.749	21720
871.879	21766
872.008	21869
872.138	21873
872.267	21850
872.397	21576
872.526	21564
872.656	21572
872.785	21701
872.915	21793
873.044	21895
873.173	21675
873.303	21808
873.432	21876
873.561	21812
873.69	21785
873.819	21789
873.948	21876
874.077	21759
874.206	21759
874.335	21785
874.464	21842
874.593	21956
874.722	21937
874.851	21994
874.979	22070
875.108	21987
875.237	21926
875.365	21918
875.494	21945
875.623	22124
875.751	21915
875.88	22120
876.008	22109
876.136	22181
876.265	22417
876.393	22508
876.521	22375
876.65	22478
876.778	22459
876.906	22360
877.034	22181
877.162	22261
877.29	22303
877.418	22341
877.546	22318
877.674	22341
877.802	22371
877.93	22379
878.058	22367
878.185	22223
878.313	22249
878.441	22356
878.568	22325
878.696	22261
878.824	22337
878.951	22455
879.079	22577
879.206	22664
879.333	22615
879.461	22234
879.588	22409
879.715	22440
879.842	22573
879.97	22306
880.097	22287
880.224	22242
880.351	22200
880.478	22211
880.605	22150
880.732	22070
880.859	22440
880.986	22261
881.112	22226
881.239	22029
881.366	21911
881.493	21907
881.619	21804
881.746	21869
881.872	21633
881.999	21644
882.125	21675
882.252	21778
882.378	21846
882.505	21762
882.631	21629
882.757	21428
882.883	21561
883.01	21504
883.136	21287
883.262	21256
883.388	21203
883.514	21332
883.64	21462
883.766	21370
883.892	21154
884.018	21264
884.143	21401
884.269	21458
884.395	21252
884.52	21062
884.646	21043
884.772	21062
884.897	20990
885.023	21157
885.148	21313
885.274	21199
885.399	21184
885.524	20986
885.65	21055
885.775	21142
885.9	21142
886.025	21211
886.15	21085
886.275	21077
886.4	21051
886.525	21062
886.65	20918
886.775	20952
886.9	21165
887.025	21272
887.149	21036
887.274	20921
887.399	20727
887.523	20857
887.648	20807
887.773	20826
887.897	20944
888.021	20823
888.146	20754
888.27	20941
888.395	20990
888.519	20868
888.643	20849
888.767	20967
888.891	20785
889.015	20769
889.139	20731
889.263	20667
889.387	20701
889.511	20883
889.635	20727
889.759	20735
889.883	20682
890.006	20526
890.13	20636
890.254	20514
890.377	20499
890.501	20385
890.624	20396
890.748	20358
890.871	20210
890.995	20157
891.118	20096
891.241	20313
891.364	20176
891.488	20309
891.611	20282
891.734	20275
891.857	20252
891.98	20161
892.103	20176
892.226	20210
892.349	20225
892.471	20115
892.594	20202
892.717	20111
892.839	20062
892.962	20065
893.085	20191
893.207	20259
893.33	20043
893.452	20103
893.575	20362
893.697	20119
893.819	20309
893.941	20343
894.064	20339
894.186	20187
894.308	20084
894.43	20138
894.552	20252
894.674	20206
894.796	20008
894.918	20081
895.04	20187
895.161	20183
895.283	20138
895.405	20069
895.526	20031
895.648	20145
895.769	20111
895.891	20187
896.012	20187
896.134	20081
896.255	20176
896.376	20187
896.498	20115
896.619	20180
896.74	20092
896.861	20214
896.982	20393
897.103	20682
897.224	20404
897.345	20286
897.466	20320
897.587	20301
897.708	20431
897.828	20347
897.949	20271
898.07	20191
898.19	20233
898.311	20415
898.431	20278
898.552	20259
898.672	20374
898.792	20434
898.913	20351
899.033	20267
899.153	20096
899.273	19974
899.393	20172
899.513	20050
899.633	20157
899.753	20229
899.873	20077
899.993	20183
900.113	20130
900.232	20046
900.352	19921
900.472	19845
900.591	19993
900.711	19902
900.83	19803
900.95	20005
901.069	19989
901.189	19712
901.308	19556
901.427	19510
901.546	19487
901.665	19457
901.784	19548
901.904	19411
902.023	19293
902.141	19012
902.26	19023
902.379	18970
902.498	18867
902.617	18886
902.735	19042
902.854	18882
902.973	18943
903.091	18635
903.21	18639
903.328	18620
903.446	18563
903.565	18494
903.683	18467
903.801	18350
903.919	18327
904.038	18350
904.156	18273
904.274	18384
904.392	18159
904.51	18098
904.627	18148
904.745	18262
904.863	18235
904.981	18091
905.098	17897
905.216	17874
905.334	17980
905.451	17824
905.569	17840
905.686	17980
905.803	17847
905.921	17611
906.038	17767
906.155	17676
906.272	17600
906.389	17646
906.506	17490
906.623	17395
906.74	17398
906.857	17269
906.974	17337
907.091	17410
907.208	17596
907.324	17379
907.441	17277
907.557	17170
907.674	17052
907.79	17045
907.907	17140
908.023	17159
908.139	17181
908.256	17003
908.372	16953
908.488	17022
908.604	16824
908.72	16869
908.836	16816
908.952	16812
909.068	16904
909.184	16847
909.3	16835
909.415	16930
909.531	16755
909.647	16535
909.762	16542
909.878	16554
909.993	16554
910.108	16527
910.224	16535
910.339	16542
910.454	16462
910.57	16470
910.685	16318
910.8	16554
910.915	16504
911.03	16375
911.145	16230
911.259	16120
911.374	16162
911.489	16055
911.604	16021
911.718	15895
911.833	15918
911.947	15774
912.062	15686
912.176	15819
912.291	15884
912.405	15911
912.519	16112
912.633	16071
912.748	15915
912.862	15835
912.976	15759
913.09	15599
913.204	15572
913.318	15705
913.431	15816
913.545	15762
913.659	15793
913.772	15580
913.886	15599
914	15401
914.113	15584
914.226	15660
914.34	15526
914.453	15378
914.566	15618
914.68	15466
914.793	15325
914.906	15252
915.019	15157
915.132	15123
915.245	15169
915.358	15131
915.47	15146
915.583	15157
915.696	15043
915.809	15154
915.921	15146
916.034	15001
916.146	14952
916.259	15055
916.371	15085
916.483	15066
916.595	14948
916.708	14956
916.82	15032
916.932	14929
917.044	14986
917.156	14891
917.268	14826
917.38	14758
917.491	14754
917.603	14800
917.715	14857
917.826	14807
917.938	14788
918.049	14651
918.161	14697
918.272	14853
918.384	14979
918.495	14678
918.606	14533
918.717	14465
918.828	14507
918.939	14571
919.05	14419
919.161	14575
919.272	14381
919.383	14423
919.494	14545
919.604	14670
919.715	14499
919.826	14381
919.936	14442
920.047	14594
920.157	14530
920.267	14564
920.378	14552
920.488	14415
920.598	14621
920.708	14819
920.818	14640
920.928	14689
921.038	14712
921.148	14686
921.258	14476
921.368	14275
921.477	14233
921.587	14248
921.697	14138
921.806	14358
921.916	14092
922.025	13928
922.134	13864
922.244	13875
922.353	13913
922.462	13742
922.571	13742
922.68	13525
922.789	13506
922.898	13552
923.007	13483
923.116	13632
923.224	13422
923.333	13468
923.442	13419
923.55	13438
923.659	13301
923.767	13324
923.876	13228
923.984	13426
924.092	13266
924.201	13392
924.309	13285
924.417	13278
924.525	13236
924.633	13114
924.741	13814
924.849	12916
924.956	13095
925.064	13012
925.172	12821
925.279	12924
925.387	12993
925.494	12943
925.602	13088
925.709	12935
925.816	12814
925.924	12856
926.031	12947
926.138	12863
926.245	12829
926.352	12802
926.459	13023
926.566	12882
926.673	12867
926.779	12646
926.886	12730
926.993	12578
927.099	12441
927.206	12445
927.312	12494
927.419	12563
927.525	12437
927.631	12597
927.737	12388
927.843	12296
927.95	12194
928.056	12315
928.162	12277
928.267	12433
928.373	12928
928.479	12429
928.585	12178
928.69	12239
928.796	12220
928.901	12296
929.007	12079
929.112	12292
929.218	12110
929.323	12102
929.428	11984
929.533	12186
929.638	12038
929.743	11939
929.848	12057
929.953	11999
930.058	11840
930.163	11764
930.267	11817
930.372	11908
930.477	11661
930.581	11980
930.685	11737
930.79	11699
930.894	11630
930.998	11573
931.103	11710
931.207	11353
931.311	11254
931.415	11143
931.519	10953
931.623	11041
