Data from test_V78500241_1637.txt Node
Date: Fri Mar 25 15:21:15 CST 2022
User: usil
Spectrometer: V785-0024
Trigger mode: 0
Integration Time (sec): 4.000000E-1
Scans to average: 1
Nonlinearity correction enabled: false
Boxcar width: 0
Storing dark spectrum: false
XAxis mode: Wavelengths
Number of Pixels in Spectrum: 1024
>>>>>Begin Spectral Data<<<<<
801.071	27842
801.214	27857
801.356	27694
801.499	27595
801.641	27488
801.783	27435
801.926	27492
802.068	27408
802.211	27275
802.353	27329
802.496	27138
802.638	27207
802.78	27199
802.923	27077
803.065	26956
803.208	27093
803.35	27188
803.492	27298
803.635	27283
803.777	27119
803.919	27184
804.061	27587
804.204	27252
804.346	27275
804.488	27176
804.63	27363
804.773	27374
804.915	27359
805.057	27458
805.199	27192
805.341	27332
805.483	27363
805.626	27412
805.768	27382
805.91	27310
806.052	27462
806.194	27214
806.336	27610
806.478	27447
806.62	27538
806.762	27530
806.904	27549
807.046	27949
807.188	27808
807.33	27865
807.472	28040
807.614	27705
807.756	27739
807.898	27785
808.04	27568
808.182	27625
808.324	27827
808.465	27869
808.607	27880
808.749	28025
808.891	28128
809.033	28257
809.174	28040
809.316	28048
809.458	27975
809.6	28078
809.741	28169
809.883	28215
810.025	28234
810.166	28226
810.308	28314
810.45	28242
810.591	28226
810.733	28143
810.875	27994
811.016	27880
811.158	27964
811.299	28204
811.441	28173
811.582	28116
811.724	27937
811.865	28215
812.007	28124
812.148	28048
812.29	28128
812.431	28310
812.573	28424
812.714	28344
812.855	28561
812.997	28577
813.138	28812
813.279	28790
813.421	28523
813.562	28577
813.703	28314
813.845	28246
813.986	28029
814.127	27766
814.268	27778
814.41	27876
814.551	27660
814.692	27793
814.833	27732
814.974	27736
815.115	27709
815.256	27663
815.397	27583
815.539	27583
815.68	27435
815.821	27416
815.962	27564
816.103	27378
816.244	27431
816.385	27374
816.526	27233
816.666	27184
816.807	26994
816.948	27051
817.089	27131
817.23	27104
817.371	27043
817.512	26971
817.653	27017
817.793	26868
817.934	27138
818.075	27009
818.216	26963
818.356	27062
818.497	26868
818.638	26750
818.778	26526
818.919	26670
819.06	26857
819.2	26925
819.341	26842
819.481	27051
819.622	27199
819.762	27302
819.903	27279
820.043	27272
820.184	27157
820.324	27062
820.465	27150
820.605	27161
820.746	27241
820.886	27070
821.026	27222
821.167	27165
821.307	27085
821.447	27020
821.588	26899
821.728	26811
821.868	26640
822.008	26438
822.149	26476
822.289	26400
822.429	26218
822.569	26233
822.709	26043
822.849	26073
822.99	26035
823.13	25921
823.27	26005
823.41	25788
823.55	25708
823.69	25841
823.83	25807
823.97	25666
824.11	25658
824.25	25586
824.389	25734
824.529	25628
824.669	25677
824.809	25712
824.949	25795
825.089	25658
825.228	25811
825.368	25514
825.508	25540
825.648	25457
825.787	25419
825.927	25540
826.067	25514
826.206	25521
826.346	25567
826.485	25559
826.625	25499
826.765	25700
826.904	25578
827.044	25297
827.183	25263
827.323	25213
827.462	25320
827.601	25255
827.741	25160
827.88	25110
828.02	25209
828.159	25065
828.298	25221
828.437	25209
828.577	25255
828.716	25339
828.855	25209
828.994	25038
829.134	24852
829.273	24989
829.412	24943
829.551	24791
829.69	24985
829.829	25038
829.968	25008
830.107	24943
830.246	24924
830.385	24859
830.524	24871
830.663	24669
830.802	24593
830.941	24627
831.08	24532
831.219	24597
831.357	24631
831.496	24939
831.635	24486
831.774	24353
831.913	24475
832.051	24254
832.19	24258
832.329	24369
832.467	24323
832.606	24194
832.744	24072
832.883	24163
833.022	24228
833.16	24262
833.299	24262
833.437	24266
833.576	24475
833.714	24357
833.852	24323
833.991	24502
834.129	24464
834.267	24334
834.406	24452
834.544	24281
834.682	24315
834.821	24262
834.959	24338
835.097	24220
835.235	24330
835.373	24304
835.511	24292
835.65	24171
835.788	24144
835.926	23935
836.064	23923
836.202	24045
836.34	24121
836.478	24201
836.615	24068
836.753	24140
836.891	24140
837.029	24064
837.167	24091
837.305	23999
837.443	24110
837.58	23950
837.718	24114
837.856	23870
837.993	23977
838.131	23897
838.269	23798
838.406	23851
838.544	23851
838.681	23729
838.819	23562
838.956	23490
839.094	23448
839.231	23501
839.369	23524
839.506	23889
839.643	23703
839.781	23509
839.918	23334
840.055	23493
840.193	23345
840.33	23273
840.467	23410
840.604	23421
840.742	23531
840.879	23239
841.016	23250
841.153	23242
841.29	23345
841.427	23376
841.564	23497
841.701	23429
841.838	23349
841.975	23208
842.112	23254
842.249	23181
842.385	23098
842.522	23326
842.659	23197
842.796	23117
842.933	23102
843.069	23098
843.206	23083
843.343	23231
843.479	23121
843.616	23170
843.752	22949
843.889	22900
844.025	22911
844.162	22930
844.298	22976
844.435	22984
844.571	22824
844.708	22877
844.844	23052
844.98	22957
845.117	22919
845.253	22850
845.389	22771
845.525	22755
845.661	22736
845.798	22622
845.934	22672
846.07	22588
846.206	22634
846.342	22812
846.478	22550
846.614	22337
846.75	22314
846.886	22276
847.022	22421
847.158	22402
847.294	22325
847.429	22443
847.565	22367
847.701	22702
847.837	22112
847.972	21983
848.108	22147
848.244	22234
848.379	21983
848.515	21945
848.65	21876
848.786	21953
848.921	22006
849.057	22082
849.192	21972
849.328	21937
849.463	21861
849.598	21739
849.734	21945
849.869	21766
850.004	21743
850.14	21793
850.275	21682
850.41	21679
850.545	21641
850.68	21614
850.815	21751
850.95	21751
851.085	21873
851.22	21861
851.355	21747
851.49	21747
851.625	21709
851.76	21732
851.895	21622
852.03	21698
852.165	21679
852.299	21682
852.434	21732
852.569	21652
852.703	21690
852.838	21736
852.973	21861
853.107	21793
853.242	21743
853.376	21534
853.511	21386
853.645	21519
853.78	21625
853.914	21469
854.048	21454
854.183	21477
854.317	21606
854.451	21576
854.585	21431
854.72	21587
854.854	21774
854.988	21416
855.122	21447
855.256	21351
855.39	21557
855.524	21545
855.658	21625
855.792	21580
855.926	21534
856.06	21515
856.194	21553
856.327	21450
856.461	21557
856.595	21526
856.729	21462
856.862	21713
856.996	21500
857.13	21610
857.263	21553
857.397	21583
857.53	21557
857.664	21523
857.797	21591
857.931	21534
858.064	21500
858.197	21553
858.331	21473
858.464	21447
858.597	21519
858.731	21507
858.864	21416
858.997	21424
859.13	21587
859.263	21538
859.396	21511
859.529	21568
859.662	21580
859.795	21561
859.928	21637
860.061	21564
860.194	21751
860.327	21526
860.46	21523
860.592	21679
860.725	21656
860.858	21583
860.99	21511
861.123	21374
861.256	21500
861.388	21504
861.521	22200
861.653	21370
861.786	21252
861.918	21313
862.05	21386
862.183	21424
862.315	21393
862.447	21538
862.58	21340
862.712	21325
862.844	21192
862.976	21287
863.108	21424
863.24	21564
863.372	21142
863.504	21233
863.636	21329
863.768	21249
863.9	21272
864.032	21165
864.164	21142
864.296	21332
864.428	21268
864.559	21233
864.691	21310
864.823	21207
864.954	21203
865.086	21218
865.217	21211
865.349	21017
865.48	21123
865.612	21104
865.743	21264
865.875	21260
866.006	21138
866.137	21233
866.269	20963
866.4	21074
866.531	21017
866.662	21017
866.793	20914
866.924	21020
867.055	21055
867.186	21017
867.317	21051
867.448	20921
867.579	21005
867.71	20998
867.841	21047
867.972	21066
868.103	21039
868.233	21066
868.364	20967
868.495	21070
868.625	21131
868.756	21412
868.886	21211
869.017	21374
869.147	21447
869.278	21359
869.408	21416
869.539	21237
869.669	21332
869.799	21462
869.929	21393
870.06	21367
870.19	21610
870.32	21500
870.45	21538
870.58	21644
870.71	21846
870.84	21705
870.97	21778
871.1	21762
871.23	21846
871.36	21857
871.489	21781
871.619	21926
871.749	21816
871.879	21876
872.008	21975
872.138	21953
872.267	21778
872.397	21800
872.526	21633
872.656	21705
872.785	21595
872.915	21873
873.044	21960
873.173	21956
873.303	21911
873.432	21911
873.561	21884
873.69	21892
873.819	21937
873.948	21979
874.077	21941
874.206	21846
874.335	21838
874.464	21956
874.593	22128
874.722	22048
874.851	22021
874.979	22143
875.108	22226
875.237	22196
875.365	22086
875.494	22135
875.623	22188
875.751	22109
875.88	22230
876.008	22303
876.136	22284
876.265	22497
876.393	22527
876.521	22660
876.65	22634
876.778	22523
876.906	22440
877.034	22470
877.162	22436
877.29	22421
877.418	22504
877.546	22519
877.674	22519
877.802	22459
877.93	22493
878.058	22405
878.185	22337
878.313	22447
878.441	22459
878.568	22333
878.696	22322
878.824	22497
878.951	22531
879.079	22622
879.206	22801
879.333	22588
879.461	22546
879.588	22622
879.715	22675
879.842	22782
879.97	22542
880.097	22405
880.224	22131
880.351	22215
880.478	22284
880.605	22261
880.732	22303
880.859	22470
880.986	22295
881.112	22257
881.239	22150
881.366	21987
881.493	21972
881.619	21785
881.746	21903
881.872	21953
881.999	21713
882.125	21671
882.252	21850
882.378	21941
882.505	21857
882.631	21743
882.757	21599
882.883	21633
883.01	21530
883.136	21553
883.262	21507
883.388	21348
883.514	21542
883.64	21599
883.766	21439
883.892	21199
884.018	21431
884.143	21599
884.269	21564
884.395	21359
884.52	21058
884.646	21298
884.772	21131
884.897	21119
885.023	21272
885.148	21211
885.274	21283
885.399	21287
885.524	21093
885.65	21226
885.775	21150
885.9	21188
886.025	21359
886.15	21275
886.275	21180
886.4	21100
886.525	21233
886.65	21005
886.775	21077
886.9	21241
887.025	21367
887.149	21169
887.274	21081
887.399	20914
887.523	21051
887.648	21036
887.773	20830
887.897	21192
888.021	20853
888.146	20796
888.27	21047
888.395	20990
888.519	20880
888.643	21039
888.767	20937
888.891	20937
889.015	20746
889.139	20826
889.263	20758
889.387	20933
889.511	20963
889.635	20906
889.759	20746
889.883	20705
890.006	20872
890.13	20781
890.254	20640
890.377	20598
890.501	20621
890.624	20419
890.748	20632
890.871	20389
890.995	20320
891.118	20374
891.241	20393
891.364	20278
891.488	20454
891.611	20366
891.734	20339
891.857	20313
891.98	20210
892.103	20317
892.226	20328
892.349	20275
892.471	20214
892.594	20221
892.717	20305
892.839	20248
892.962	20278
893.085	20309
893.207	20199
893.33	20020
893.452	20164
893.575	20339
893.697	20202
893.819	20400
893.941	20332
894.064	20351
894.186	20138
894.308	20271
894.43	20423
894.552	20298
894.674	20237
894.796	20202
894.918	20149
895.04	20126
895.161	20343
895.283	20229
895.405	20111
895.526	20256
895.648	20210
895.769	20278
895.891	20278
896.012	20305
896.134	20248
896.255	20191
896.376	20161
896.498	20248
896.619	20244
896.74	20122
896.861	20347
896.982	20511
897.103	20636
897.224	20511
897.345	20492
897.466	20309
897.587	20438
897.708	20590
897.828	20381
897.949	20358
898.07	20343
898.19	20385
898.311	20636
898.431	20381
898.552	20381
898.672	20530
898.792	20583
898.913	20503
899.033	20298
899.153	20180
899.273	20138
899.393	20111
899.513	20145
899.633	20035
899.753	20271
899.873	20115
899.993	20210
900.113	20153
900.232	20142
900.352	20065
900.472	20107
900.591	19928
900.711	20012
900.83	19906
900.95	20043
901.069	19993
901.189	19830
901.308	19655
901.427	19430
901.546	19544
901.665	19552
901.784	19476
901.904	19487
902.023	19362
902.141	19236
902.26	19110
902.379	19129
902.498	19042
902.617	18993
902.735	19107
902.854	18977
902.973	18928
903.091	18738
903.21	18677
903.328	18806
903.446	18642
903.565	18479
903.683	18601
903.801	18471
903.919	18517
904.038	18342
904.156	18422
904.274	18376
904.392	18319
904.51	18228
904.627	18247
904.745	18338
904.863	18369
904.981	18091
905.098	17916
905.216	17950
905.334	17939
905.451	18041
905.569	17935
905.686	17977
905.803	17916
905.921	17752
906.038	17813
906.155	17756
906.272	17661
906.389	17573
906.506	17528
906.623	17577
906.74	17604
906.857	17341
906.974	17471
907.091	17440
907.208	17570
907.324	17547
907.441	17356
907.557	17337
907.674	17162
907.79	17143
907.907	17250
908.023	17292
908.139	17147
908.256	17197
908.372	17124
908.488	17162
908.604	17048
908.72	16908
908.836	16949
908.952	16946
909.068	16927
909.184	17022
909.3	16968
909.415	16976
909.531	16915
909.647	16592
909.762	16664
909.878	16588
909.993	16664
910.108	16607
910.224	16542
910.339	16512
910.454	16516
910.57	16432
910.685	16329
910.8	16565
910.915	16611
911.03	16485
911.145	16223
911.259	16268
911.374	16246
911.489	16158
911.604	16158
911.718	15941
911.833	15934
911.947	15835
912.062	15876
912.176	15975
912.291	15998
912.405	15842
912.519	16143
912.633	16093
912.748	15949
912.862	15907
912.976	15762
913.09	15644
913.204	15759
913.318	15838
913.431	15838
913.545	15808
913.659	15800
913.772	15751
913.886	15561
914	15599
914.113	15660
914.226	15679
914.34	15709
914.453	15458
914.566	15625
914.68	15507
914.793	15431
914.906	15264
915.019	15112
915.132	15199
915.245	15195
915.358	15135
915.47	15131
915.583	15135
915.696	15165
915.809	15363
915.921	15310
916.034	15085
916.146	15142
916.259	15070
916.371	15268
916.483	15112
916.595	15081
916.708	14963
916.82	15081
916.932	14944
917.044	14944
917.156	14899
917.268	14788
917.38	14823
917.491	14773
917.603	14811
917.715	14929
917.826	14937
917.938	14765
918.049	14617
918.161	14731
918.272	14838
918.384	14864
918.495	14807
918.606	14545
918.717	14590
918.828	14644
918.939	14663
919.05	14537
919.161	14503
919.272	14404
919.383	14476
919.494	14610
919.604	14796
919.715	14625
919.826	14560
919.936	14545
920.047	14659
920.157	14499
920.267	14705
920.378	14644
920.488	14488
920.598	14746
920.708	14811
920.818	14674
920.928	14617
921.038	14876
921.148	14826
921.258	14457
921.368	14301
921.477	14339
921.587	14298
921.697	14172
921.806	14309
921.916	14142
922.025	13993
922.134	13902
922.244	13898
922.353	13982
922.462	13795
922.571	13788
922.68	13620
922.789	13514
922.898	13597
923.007	13441
923.116	13460
923.224	13571
923.333	13510
923.442	13453
923.55	13240
923.659	13438
923.767	13430
923.876	13381
923.984	13362
924.092	13225
924.201	13297
924.309	13396
924.417	13301
924.525	13175
924.633	13240
924.741	14168
924.849	13065
924.956	13228
925.064	13023
925.172	12932
925.279	13027
925.387	12996
925.494	12947
925.602	13046
925.709	13042
925.816	12932
925.924	12943
926.031	13008
926.138	12943
926.245	12935
926.352	12901
926.459	13008
926.566	12958
926.673	12909
926.779	12806
926.886	12700
926.993	12582
927.099	12513
927.206	12513
927.312	12528
927.419	12513
927.525	12563
927.631	12551
927.737	12426
927.843	12357
927.95	12228
928.056	12365
928.162	12338
928.267	12410
928.373	13000
928.479	12460
928.585	12159
928.69	12308
928.796	12319
928.901	12216
929.007	12079
929.112	12251
929.218	12167
929.323	12201
929.428	12148
929.533	12144
929.638	11973
929.743	12003
929.848	12072
929.953	12091
930.058	11920
930.163	11836
930.267	11813
930.372	11916
930.477	11790
930.581	12003
930.685	11821
930.79	11649
930.894	11707
930.998	11649
931.103	11813
931.207	11406
931.311	11376
931.415	11246
931.519	11071
931.623	11071
