Data from test_V78500241_639.txt Node
Date: Fri Mar 25 15:14:18 CST 2022
User: usil
Spectrometer: V785-0024
Trigger mode: 0
Integration Time (sec): 4.000000E-1
Scans to average: 1
Nonlinearity correction enabled: false
Boxcar width: 0
Storing dark spectrum: false
XAxis mode: Wavelengths
Number of Pixels in Spectrum: 1024
>>>>>Begin Spectral Data<<<<<
801.071	27781
801.214	27622
801.356	27363
801.499	27382
801.641	27306
801.783	27340
801.926	27268
802.068	27230
802.211	27150
802.353	27108
802.496	26986
802.638	26933
802.78	26914
802.923	26880
803.065	26883
803.208	26906
803.35	27085
803.492	27028
803.635	27100
803.777	26895
803.919	27154
804.061	27443
804.204	27157
804.346	27123
804.488	27066
804.63	27062
804.773	27123
804.915	27116
805.057	27294
805.199	27051
805.341	27222
805.483	27355
805.626	27222
805.768	26929
805.91	27135
806.052	27135
806.194	27100
806.336	27439
806.478	27359
806.62	27283
806.762	27447
806.904	27614
807.046	27717
807.188	27774
807.33	27686
807.472	27667
807.614	27713
807.756	27675
807.898	27553
808.04	27466
808.182	27622
808.324	27496
808.465	27583
808.607	27778
808.749	27869
808.891	27903
809.033	28013
809.174	28010
809.316	27914
809.458	27778
809.6	27934
809.741	28181
809.883	28128
810.025	28154
810.166	28200
810.308	28284
810.45	28143
810.591	28135
810.733	28063
810.875	27945
811.016	27797
811.158	27804
811.299	27983
811.441	28002
811.582	28044
811.724	27892
811.865	27918
812.007	27873
812.148	28010
812.29	28017
812.431	28093
812.573	28287
812.714	28356
812.855	28295
812.997	28538
813.138	28835
813.279	28656
813.421	28546
813.562	28466
813.703	28401
813.845	28013
813.986	27911
814.127	27762
814.268	27663
814.41	27515
814.551	27561
814.692	27705
814.833	27614
814.974	27568
815.115	27519
815.256	27523
815.397	27481
815.539	27519
815.68	27530
815.821	27188
815.962	27431
816.103	27416
816.244	27336
816.385	27264
816.526	27058
816.666	27001
816.807	26743
816.948	26971
817.089	27096
817.23	26872
817.371	26800
817.512	26948
817.653	26914
817.793	26785
817.934	26910
818.075	26880
818.216	26830
818.356	26834
818.497	26720
818.638	26495
818.778	26686
818.919	26689
819.06	26663
819.2	26944
819.341	26990
819.481	26895
819.622	27017
819.762	27287
819.903	27043
820.043	27028
820.184	27039
820.324	26891
820.465	27169
820.605	27070
820.746	26902
820.886	27005
821.026	26868
821.167	26986
821.307	27070
821.447	26857
821.588	26842
821.728	26739
821.868	26377
822.008	26412
822.149	26408
822.289	26214
822.429	26107
822.569	26020
822.709	25986
822.849	25860
822.99	25936
823.13	25761
823.27	25894
823.41	25586
823.55	25457
823.69	25769
823.83	25738
823.97	25731
824.11	25301
824.25	25537
824.389	25426
824.529	25677
824.669	25567
824.809	25677
824.949	25578
825.089	25704
825.228	25483
825.368	25476
825.508	25453
825.648	25476
825.787	25479
825.927	25400
826.067	25396
826.206	25240
826.346	25335
826.485	25430
826.625	25354
826.765	25400
826.904	25411
827.044	25118
827.183	25209
827.323	24989
827.462	25160
827.601	24985
827.741	25103
827.88	25168
828.02	24894
828.159	25076
828.298	25012
828.437	25080
828.577	24939
828.716	25095
828.855	25031
828.994	24863
829.134	24863
829.273	24882
829.412	24764
829.551	24684
829.69	24753
829.829	24798
829.968	24886
830.107	24791
830.246	24886
830.385	24650
830.524	24722
830.663	24604
830.802	24620
830.941	24532
831.08	24407
831.219	24410
831.357	24494
831.496	24582
831.635	24456
831.774	24327
831.913	24281
832.051	24243
832.19	24281
832.329	24308
832.467	24190
832.606	24102
832.744	24194
832.883	24129
833.022	24079
833.16	24057
833.299	24133
833.437	24095
833.576	24243
833.714	24129
833.852	24235
833.991	24194
834.129	24258
834.267	24114
834.406	24155
834.544	24159
834.682	24140
834.821	24220
834.959	24224
835.097	24125
835.235	24045
835.373	24136
835.511	24216
835.65	24057
835.788	23977
835.926	23901
836.064	23699
836.202	23874
836.34	24015
836.478	23965
836.615	23885
836.753	23916
836.891	23969
837.029	23935
837.167	23999
837.305	23920
837.443	23824
837.58	23874
837.718	23802
837.856	23817
837.993	23745
838.131	23912
838.269	23695
838.406	23661
838.544	23512
838.681	23486
838.819	23417
838.956	23261
839.094	23258
839.231	23376
839.369	23516
839.506	23779
839.643	23543
839.781	23246
839.918	23204
840.055	23223
840.193	23212
840.33	23117
840.467	23311
840.604	23261
840.742	23566
840.879	23193
841.016	23140
841.153	23140
841.29	23292
841.427	23178
841.564	23155
841.701	23299
841.838	23166
841.975	23086
842.112	23170
842.249	23044
842.385	22915
842.522	23041
842.659	23056
842.796	22877
842.933	23102
843.069	22942
843.206	22930
843.343	22995
843.479	23014
843.616	22942
843.752	22744
843.889	22774
844.025	22801
844.162	22752
844.298	22706
844.435	22831
844.571	22702
844.708	22961
844.844	22866
844.98	23048
845.117	22968
845.253	22584
845.389	22626
845.525	22649
845.661	22561
845.798	22527
845.934	22592
846.07	22516
846.206	22470
846.342	22569
846.478	22466
846.614	22306
846.75	22268
846.886	22185
847.022	22204
847.158	22234
847.294	22116
847.429	22310
847.565	22120
847.701	22500
847.837	21960
847.972	21964
848.108	22059
848.244	22002
848.379	21842
848.515	21686
848.65	21766
848.786	21812
848.921	21835
849.057	21895
849.192	21888
849.328	21937
849.463	21819
849.598	21804
849.734	21739
849.869	21682
850.004	21496
850.14	21564
850.275	21526
850.41	21515
850.545	21500
850.68	21568
850.815	21591
850.95	21496
851.085	21717
851.22	21599
851.355	21519
851.49	21458
851.625	21564
851.76	21469
851.895	21458
852.03	21389
852.165	21538
852.299	21496
852.434	21625
852.569	21682
852.703	21660
852.838	21698
852.973	21652
853.107	21686
853.242	21477
853.376	21397
853.511	21294
853.645	21264
853.78	21523
853.914	21424
854.048	21439
854.183	21374
854.317	21363
854.451	21648
854.585	21397
854.72	21351
854.854	21496
854.988	21454
855.122	21431
855.256	21351
855.39	21447
855.524	21504
855.658	21351
855.792	21313
855.926	21416
856.06	21370
856.194	21481
856.327	21302
856.461	21272
856.595	21249
856.729	21504
856.862	21386
856.996	21370
857.13	21462
857.263	21507
857.397	21492
857.53	21450
857.664	21389
857.797	21450
857.931	21553
858.064	21447
858.197	21587
858.331	21348
858.464	21264
858.597	21188
858.731	21332
858.864	21408
858.997	21389
859.13	21481
859.263	21447
859.396	21553
859.529	21359
859.662	21363
859.795	21302
859.928	21466
860.061	21523
860.194	21553
860.327	21386
860.46	21439
860.592	21515
860.725	21603
860.858	21367
860.99	21431
861.123	21252
861.256	21249
861.388	21374
861.521	22211
861.653	21283
861.786	21058
861.918	21329
862.05	21169
862.183	21298
862.315	21203
862.447	21450
862.58	21302
862.712	21070
862.844	21154
862.976	21233
863.108	21184
863.24	21625
863.372	21062
863.504	21180
863.636	21108
863.768	21131
863.9	20944
864.032	21093
864.164	20986
864.296	21165
864.428	21203
864.559	21211
864.691	21237
864.823	21161
864.954	21096
865.086	21096
865.217	21028
865.349	20899
865.48	21089
865.612	21070
865.743	21116
865.875	21043
866.006	20918
866.137	21001
866.269	20986
866.4	20918
866.531	20952
866.662	20826
866.793	20861
866.924	21001
867.055	20956
867.186	20880
867.317	20834
867.448	20895
867.579	20830
867.71	20952
867.841	20769
867.972	20872
868.103	20948
868.233	20925
868.364	20979
868.495	20952
868.625	21123
868.756	21173
868.886	21237
869.017	21123
869.147	21211
869.278	21348
869.408	21199
869.539	21066
869.669	21268
869.799	21180
869.929	21249
870.06	21283
870.19	21466
870.32	21485
870.45	21431
870.58	21583
870.71	21717
870.84	21606
870.97	21667
871.1	21485
871.23	21652
871.36	21774
871.489	21785
871.619	21667
871.749	21667
871.879	21800
872.008	21876
872.138	21789
872.267	21732
872.397	21652
872.526	21599
872.656	21660
872.785	21511
872.915	21812
873.044	21880
873.173	21918
873.303	21846
873.432	21804
873.561	21876
873.69	21831
873.819	21778
873.948	21816
874.077	21823
874.206	21823
874.335	21751
874.464	21892
874.593	22044
874.722	22029
874.851	21998
874.979	21994
875.108	22078
875.237	21945
875.365	21899
875.494	21975
875.623	22074
875.751	21895
875.88	22116
876.008	22166
876.136	22169
876.265	22352
876.393	22512
876.521	22493
876.65	22527
876.778	22394
876.906	22280
877.034	22356
877.162	22379
877.29	22318
877.418	22382
877.546	22306
877.674	22489
877.802	22280
877.93	22348
878.058	22379
878.185	22226
878.313	22341
878.441	22291
878.568	22249
878.696	22276
878.824	22417
878.951	22303
879.079	22409
879.206	22588
879.333	22557
879.461	22424
879.588	22527
879.715	22618
879.842	22599
879.97	22318
880.097	22268
880.224	22147
880.351	22344
880.478	22166
880.605	22036
880.732	22063
880.859	22500
880.986	22268
881.112	22166
881.239	22086
881.366	21835
881.493	21705
881.619	21709
881.746	21751
881.872	21701
881.999	21789
882.125	21667
882.252	21759
882.378	21717
882.505	21876
882.631	21603
882.757	21401
882.883	21477
883.01	21306
883.136	21454
883.262	21321
883.388	21283
883.514	21431
883.64	21466
883.766	21348
883.892	21089
884.018	21340
884.143	21401
884.269	21450
884.395	21142
884.52	21112
884.646	21112
884.772	21081
884.897	20880
885.023	21081
885.148	21051
885.274	21245
885.399	21135
885.524	21051
885.65	21070
885.775	21081
885.9	21089
886.025	21123
886.15	21146
886.275	21131
886.4	20948
886.525	21104
886.65	21096
886.775	20990
886.9	21138
887.025	21268
887.149	21055
887.274	20842
887.399	20872
887.523	20864
887.648	20838
887.773	20769
887.897	20902
888.021	20781
888.146	20693
888.27	20902
888.395	20937
888.519	20876
888.643	20868
888.767	20952
888.891	20758
889.015	20796
889.139	20697
889.263	20663
889.387	20765
889.511	20891
889.635	20754
889.759	20678
889.883	20526
890.006	20693
890.13	20758
890.254	20651
890.377	20545
890.501	20362
890.624	20419
890.748	20545
890.871	20294
890.995	20122
891.118	20157
891.241	20149
891.364	20237
891.488	20377
891.611	20103
891.734	20199
891.857	20324
891.98	20248
892.103	20218
892.226	20256
892.349	20115
892.471	20046
892.594	20103
892.717	20183
892.839	20122
892.962	20149
893.085	20256
893.207	20210
893.33	19967
893.452	20176
893.575	20134
893.697	20043
893.819	20259
893.941	20286
894.064	20180
894.186	20062
894.308	20001
894.43	20153
894.552	20351
894.674	20229
894.796	20050
894.918	20092
895.04	20145
895.161	20187
895.283	20187
895.405	19997
895.526	20180
895.648	20081
895.769	20046
895.891	20225
896.012	20138
896.134	20168
896.255	20069
896.376	20039
896.498	20020
896.619	20221
896.74	20077
896.861	20225
896.982	20351
897.103	20644
897.224	20290
897.345	20389
897.466	20252
897.587	20210
897.708	20579
897.828	20256
897.949	20267
898.07	20164
898.19	20290
898.311	20332
898.431	20313
898.552	20282
898.672	20400
898.792	20434
898.913	20358
899.033	20301
899.153	20195
899.273	20024
899.393	19997
899.513	20107
899.633	20180
899.753	20081
899.873	20081
899.993	20046
900.113	20005
900.232	19986
900.352	20084
900.472	19925
900.591	19700
900.711	19871
900.83	19894
900.95	19970
901.069	19887
901.189	19841
901.308	19548
901.427	19499
901.546	19563
901.665	19422
901.784	19403
901.904	19316
902.023	19175
902.141	18981
902.26	19080
902.379	19034
902.498	18920
902.617	18802
902.735	19072
902.854	18993
902.973	18772
903.091	18593
903.21	18525
903.328	18612
903.446	18506
903.565	18475
903.683	18426
903.801	18403
903.919	18311
904.038	18490
904.156	18129
904.274	18289
904.392	18281
904.51	18121
904.627	18224
904.745	18228
904.863	18285
904.981	17969
905.098	17870
905.216	17843
905.334	17912
905.451	17874
905.569	17843
905.686	17794
905.803	17843
905.921	17630
906.038	17775
906.155	17657
906.272	17608
906.389	17699
906.506	17474
906.623	17436
906.74	17512
906.857	17296
906.974	17383
907.091	17486
907.208	17562
907.324	17322
907.441	17376
907.557	17151
907.674	17189
907.79	17064
907.907	17117
908.023	17094
908.139	17029
908.256	17109
908.372	17094
908.488	17018
908.604	16968
908.72	16858
908.836	16889
908.952	16885
909.068	16843
909.184	16934
909.3	16866
909.415	16839
909.531	16759
909.647	16683
909.762	16603
909.878	16432
909.993	16580
910.108	16542
910.224	16569
910.339	16656
910.454	16409
910.57	16386
910.685	16219
910.8	16615
910.915	16500
911.03	16322
911.145	16200
911.259	16223
911.374	16196
911.489	16109
911.604	15991
911.718	15956
911.833	15945
911.947	15743
912.062	15797
912.176	15812
912.291	15861
912.405	15857
912.519	16051
912.633	16029
912.748	15880
912.862	15793
912.976	15717
913.09	15629
913.204	15701
913.318	15625
913.431	15819
913.545	15701
913.659	15838
913.772	15724
913.886	15572
914	15439
914.113	15507
914.226	15622
914.34	15603
914.453	15382
914.566	15447
914.68	15325
914.793	15329
914.906	15241
915.019	15176
915.132	15104
915.245	15116
915.358	15161
915.47	15070
915.583	15055
915.696	15161
915.809	15165
915.921	15359
916.034	15089
916.146	15028
916.259	15108
916.371	15116
916.483	15028
916.595	14941
916.708	14944
916.82	14982
916.932	14887
917.044	14838
917.156	14952
917.268	14811
917.38	14811
917.491	14777
917.603	14800
917.715	14872
917.826	14815
917.938	14575
918.049	14617
918.161	14708
918.272	14857
918.384	14823
918.495	14705
918.606	14560
918.717	14552
918.828	14552
918.939	14575
919.05	14313
919.161	14484
919.272	14305
919.383	14366
919.494	14560
919.604	14720
919.715	14503
919.826	14415
919.936	14484
920.047	14621
920.157	14625
920.267	14708
920.378	14621
920.488	14446
920.598	14705
920.708	14739
920.818	14636
920.928	14632
921.038	14883
921.148	14785
921.258	14408
921.368	14339
921.477	14305
921.587	14313
921.697	14088
921.806	14233
921.916	14073
922.025	13917
922.134	13864
922.244	13811
922.353	13944
922.462	13852
922.571	13620
922.68	13613
922.789	13548
922.898	13548
923.007	13468
923.116	13559
923.224	13529
923.333	13449
923.442	13362
923.55	13430
923.659	13343
923.767	13453
923.876	13301
923.984	13445
924.092	13236
924.201	13377
924.309	13312
924.417	13198
924.525	13145
924.633	13202
924.741	13978
924.849	13038
924.956	13126
925.064	13019
925.172	12844
925.279	12939
925.387	12951
925.494	12916
925.602	13069
925.709	12973
925.816	12810
925.924	12897
926.031	12935
926.138	12901
926.245	12878
926.352	12783
926.459	12871
926.566	12966
926.673	12817
926.779	12688
926.886	12662
926.993	12566
927.099	12509
927.206	12407
927.312	12365
927.419	12551
927.525	12563
927.631	12528
927.737	12448
927.843	12376
927.95	12277
928.056	12330
928.162	12334
928.267	12395
928.373	12985
928.479	12414
928.585	12140
928.69	12311
928.796	12323
928.901	12270
929.007	12038
929.112	12178
929.218	12098
929.323	12053
929.428	11988
929.533	12163
929.638	12015
929.743	11946
929.848	12087
929.953	12053
930.058	11954
930.163	11805
930.267	11779
930.372	11927
930.477	11707
930.581	11916
930.685	11703
930.79	11547
930.894	11676
930.998	11615
931.103	11840
931.207	11486
931.311	11322
931.415	11220
931.519	11022
931.623	11086
