Data from test_V78500241_1357.txt Node
Date: Fri Mar 25 15:19:18 CST 2022
User: usil
Spectrometer: V785-0024
Trigger mode: 0
Integration Time (sec): 4.000000E-1
Scans to average: 1
Nonlinearity correction enabled: false
Boxcar width: 0
Storing dark spectrum: false
XAxis mode: Wavelengths
Number of Pixels in Spectrum: 1024
>>>>>Begin Spectral Data<<<<<
801.071	28284
801.214	28169
801.356	27819
801.499	27914
801.641	27762
801.783	27625
801.926	27778
802.068	27690
802.211	27587
802.353	27408
802.496	27500
802.638	27393
802.78	27431
802.923	27291
803.065	27195
803.208	27325
803.35	27287
803.492	27473
803.635	27530
803.777	27389
803.919	27545
804.061	27937
804.204	27679
804.346	27507
804.488	27625
804.63	27477
804.773	27450
804.915	27595
805.057	27656
805.199	27553
805.341	27842
805.483	27648
805.626	27717
805.768	27690
805.91	27720
806.052	27778
806.194	27701
806.336	27884
806.478	27793
806.62	27762
806.762	27831
806.904	28166
807.046	28318
807.188	28261
807.33	28192
807.472	28303
807.614	28029
807.756	28272
807.898	28032
808.04	27945
808.182	28128
808.324	28116
808.465	28109
808.607	28329
808.749	28485
808.891	28398
809.033	28626
809.174	28523
809.316	28367
809.458	28379
809.6	28459
809.741	28542
809.883	28615
810.025	28721
810.166	28710
810.308	28660
810.45	28797
810.591	28725
810.733	28485
810.875	28310
811.016	28341
811.158	28181
811.299	28436
811.441	28645
811.582	28557
811.724	28455
811.865	28204
812.007	28459
812.148	28352
812.29	28500
812.431	28622
812.573	28820
812.714	29056
812.855	28991
812.997	29022
813.138	29174
813.279	29067
813.421	28873
813.562	28976
813.703	28908
813.845	28672
813.986	28459
814.127	28249
814.268	28036
814.41	28070
814.551	27991
814.692	28223
814.833	28196
814.974	28002
815.115	28169
815.256	28112
815.397	28059
815.539	27945
815.68	28010
815.821	27888
815.962	28002
816.103	27953
816.244	27652
816.385	27705
816.526	27564
816.666	27492
816.807	27405
816.948	27469
817.089	27420
817.23	27306
817.371	27382
817.512	27507
817.653	27412
817.793	27454
817.934	27458
818.075	27424
818.216	27298
818.356	27458
818.497	27233
818.638	27176
818.778	27127
818.919	27214
819.06	27249
819.2	27355
819.341	27439
819.481	27504
819.622	27549
819.762	27865
819.903	27663
820.043	27739
820.184	27629
820.324	27408
820.465	27587
820.605	27599
820.746	27583
820.886	27485
821.026	27401
821.167	27473
821.307	27481
821.447	27386
821.588	27374
821.728	27127
821.868	27070
822.008	26944
822.149	26967
822.289	26887
822.429	26663
822.569	26530
822.709	26579
822.849	26419
822.99	26309
823.13	26404
823.27	26408
823.41	26168
823.55	26100
823.69	26218
823.83	26237
823.97	26161
824.11	26210
824.25	26092
824.389	26016
824.529	26126
824.669	25936
824.809	26214
824.949	25841
825.089	26210
825.228	26081
825.368	25791
825.508	25959
825.648	25818
825.787	25951
825.927	25947
826.067	25776
826.206	25906
826.346	25936
826.485	25898
826.625	25875
826.765	25928
826.904	25921
827.044	25559
827.183	25715
827.323	25647
827.462	25738
827.601	25635
827.741	25613
827.88	25700
828.02	25518
828.159	25738
828.298	25719
828.437	25605
828.577	25575
828.716	25738
828.855	25556
828.994	25369
829.134	25362
829.273	25464
829.412	25365
829.551	25293
829.69	25358
829.829	25324
829.968	25422
830.107	25411
830.246	25301
830.385	25133
830.524	25247
830.663	25107
830.802	25099
830.941	24947
831.08	24973
831.219	25107
831.357	25175
831.496	25202
831.635	24996
831.774	24848
831.913	24867
832.051	24722
832.19	24707
832.329	24764
832.467	24658
832.606	24688
832.744	24521
832.883	24741
833.022	24502
833.16	24608
833.299	24642
833.437	24593
833.576	24749
833.714	24684
833.852	24578
833.991	24696
834.129	24806
834.267	24738
834.406	24734
834.544	24627
834.682	24650
834.821	24772
834.959	24814
835.097	24540
835.235	24772
835.373	24684
835.511	24681
835.65	24422
835.788	24486
835.926	24376
836.064	24171
836.202	24300
836.34	24467
836.478	24616
836.615	24414
836.753	24502
836.891	24460
837.029	24494
837.167	24433
837.305	24350
837.443	24578
837.58	24304
837.718	24494
837.856	24338
837.993	24410
838.131	24281
838.269	24159
838.406	24357
838.544	24182
838.681	23912
838.819	24049
838.956	23893
839.094	23863
839.231	23805
839.369	23843
839.506	24224
839.643	24022
839.781	23847
839.918	23737
840.055	23931
840.193	23699
840.33	23649
840.467	23767
840.604	23764
840.742	23980
840.879	23528
841.016	23627
841.153	23608
841.29	23802
841.427	23653
841.564	23653
841.701	23653
841.838	23714
841.975	23642
842.112	23463
842.249	23417
842.385	23471
842.522	23813
842.659	23421
842.796	23436
842.933	23619
843.069	23379
843.206	23459
843.343	23509
843.479	23551
843.616	23493
843.752	23246
843.889	23220
844.025	23433
844.162	23223
844.298	23223
844.435	23288
844.571	23193
844.708	23231
844.844	23360
844.98	23417
845.117	23330
845.253	23124
845.389	23200
845.525	23223
845.661	23067
845.798	22999
845.934	23041
846.07	22904
846.206	23044
846.342	23048
846.478	23006
846.614	22774
846.75	22615
846.886	22793
847.022	22782
847.158	22706
847.294	22611
847.429	22862
847.565	22763
847.701	22965
847.837	22550
847.972	22402
848.108	22561
848.244	22485
848.379	22417
848.515	22306
848.65	22284
848.786	22200
848.921	22284
849.057	22352
849.192	22276
849.328	22394
849.463	22230
849.598	22192
849.734	22200
849.869	22128
850.004	22105
850.14	22105
850.275	22074
850.41	22036
850.545	22112
850.68	22162
850.815	22105
850.95	21972
851.085	22223
851.22	22128
851.355	22150
851.49	22025
851.625	21968
851.76	22131
851.895	21865
852.03	21903
852.165	21960
852.299	22101
852.434	22219
852.569	22044
852.703	21915
852.838	22093
852.973	22154
853.107	22223
853.242	22070
853.376	22010
853.511	21808
853.645	21816
853.78	21892
853.914	21869
854.048	21766
854.183	21926
854.317	21918
854.451	22093
854.585	21934
854.72	21724
854.854	22059
854.988	21876
855.122	21915
855.256	21747
855.39	21854
855.524	22036
855.658	21911
855.792	21979
855.926	21778
856.06	21873
856.194	21953
856.327	21831
856.461	21888
856.595	21880
856.729	21907
856.862	21930
856.996	21915
857.13	21888
857.263	21994
857.397	22063
857.53	21838
857.664	21895
857.797	21926
857.931	22013
858.064	21972
858.197	21987
858.331	21831
858.464	21876
858.597	21732
858.731	21861
858.864	21895
858.997	21835
859.13	21812
859.263	21876
859.396	22029
859.529	21892
859.662	21755
859.795	21812
859.928	21778
860.061	22097
860.194	22093
860.327	21945
860.46	21854
860.592	22082
860.725	22036
860.858	21892
860.99	21759
861.123	21884
861.256	21857
861.388	21903
861.521	22371
861.653	21762
861.786	21713
861.918	21736
862.05	21747
862.183	21808
862.315	21781
862.447	21869
862.58	21709
862.712	21549
862.844	21583
862.976	21755
863.108	21637
863.24	21941
863.372	21564
863.504	21610
863.636	21667
863.768	21564
863.9	21519
864.032	21488
864.164	21462
864.296	21473
864.428	21694
864.559	21618
864.691	21686
864.823	21667
864.954	21553
865.086	21485
865.217	21507
865.349	21291
865.48	21310
865.612	21469
865.743	21545
865.875	21477
866.006	21393
866.137	21526
866.269	21389
866.4	21477
866.531	21481
866.662	21321
866.793	21310
866.924	21310
867.055	21450
867.186	21496
867.317	21249
867.448	21184
867.579	21416
867.71	21287
867.841	21340
867.972	21393
868.103	21279
868.233	21500
868.364	21439
868.495	21481
868.625	21633
868.756	21686
868.886	21542
869.017	21686
869.147	21648
869.278	21797
869.408	21629
869.539	21599
869.669	21762
869.799	21728
869.929	21610
870.06	21865
870.19	21869
870.32	21945
870.45	21968
870.58	22128
870.71	22090
870.84	22112
870.97	22044
871.1	22093
871.23	22196
871.36	22177
871.489	22188
871.619	22093
871.749	22147
871.879	22291
872.008	22318
872.138	22188
872.267	22337
872.397	21983
872.526	21968
872.656	22090
872.785	22025
872.915	22253
873.044	22348
873.173	22200
873.303	22337
873.432	22466
873.561	22284
873.69	22276
873.819	22116
873.948	22291
874.077	22329
874.206	22169
874.335	22200
874.464	22257
874.593	22466
874.722	22352
874.851	22500
874.979	22523
875.108	22573
875.237	22306
875.365	22417
875.494	22516
875.623	22497
875.751	22352
875.88	22466
876.008	22626
876.136	22656
876.265	22797
876.393	22991
876.521	22881
876.65	22824
876.778	22854
876.906	22885
877.034	22706
877.162	22900
877.29	22713
877.418	22702
877.546	22672
877.674	22885
877.802	22767
877.93	22824
878.058	22797
878.185	22816
878.313	22634
878.441	22736
878.568	22504
878.696	22721
878.824	22725
878.951	22965
879.079	22900
879.206	22999
879.333	22923
879.461	22786
879.588	23006
879.715	23117
879.842	23075
879.97	22793
880.097	22641
880.224	22599
880.351	22656
880.478	22573
880.605	22554
880.732	22561
880.859	22778
880.986	22687
881.112	22630
881.239	22440
881.366	22394
881.493	22257
881.619	22223
881.746	22249
881.872	22246
881.999	22067
882.125	22135
882.252	22162
882.378	22162
882.505	22261
882.631	21926
882.757	21865
882.883	22067
883.01	21915
883.136	21739
883.262	21918
883.388	21732
883.514	22040
883.64	21979
883.766	21827
883.892	21583
884.018	21625
884.143	21766
884.269	21888
884.395	21576
884.52	21511
884.646	21637
884.772	21408
884.897	21530
885.023	21458
885.148	21568
885.274	21610
885.399	21599
885.524	21454
885.65	21564
885.775	21542
885.9	21424
886.025	21568
886.15	21572
886.275	21317
886.4	21412
886.525	21435
886.65	21466
886.775	21351
886.9	21534
887.025	21576
887.149	21416
887.274	21412
887.399	21348
887.523	21283
887.648	21237
887.773	21233
887.897	21287
888.021	21245
888.146	21275
888.27	21302
888.395	21268
888.519	21291
888.643	21443
888.767	21275
888.891	21184
889.015	21070
889.139	21116
889.263	21108
889.387	21180
889.511	21397
889.635	21123
889.759	21123
889.883	21116
890.006	21036
890.13	21199
890.254	20960
890.377	20982
890.501	20845
890.624	20834
890.748	20910
890.871	20731
890.995	20712
891.118	20571
891.241	20769
891.364	20659
891.488	20811
891.611	20594
891.734	20579
891.857	20769
891.98	20678
892.103	20769
892.226	20678
892.349	20731
892.471	20438
892.594	20556
892.717	20590
892.839	20587
892.962	20594
893.085	20606
893.207	20541
893.33	20537
893.452	20431
893.575	20720
893.697	20427
893.819	20632
893.941	20621
894.064	20663
894.186	20511
894.308	20400
894.43	20739
894.552	20655
894.674	20598
894.796	20427
894.918	20473
895.04	20552
895.161	20625
895.283	20636
895.405	20469
895.526	20613
895.648	20522
895.769	20606
895.891	20495
896.012	20514
896.134	20670
896.255	20571
896.376	20499
896.498	20549
896.619	20446
896.74	20537
896.861	20609
896.982	20944
897.103	20956
897.224	20864
897.345	20708
897.466	20682
897.587	20746
897.708	20876
897.828	20724
897.949	20838
898.07	20537
898.19	20731
898.311	20800
898.431	20762
898.552	20697
898.672	20944
898.792	20773
898.913	20686
899.033	20644
899.153	20625
899.273	20476
899.393	20450
899.513	20427
899.633	20400
899.753	20480
899.873	20457
899.993	20613
900.113	20514
900.232	20381
900.352	20404
900.472	20195
900.591	20161
900.711	20218
900.83	20267
900.95	20419
901.069	20358
901.189	20191
901.308	19871
901.427	19791
901.546	19856
901.665	19776
901.784	19826
901.904	19689
902.023	19662
902.141	19396
902.26	19392
902.379	19502
902.498	19247
902.617	19377
902.735	19514
902.854	19327
902.973	19343
903.091	19080
903.21	19046
903.328	19000
903.446	18916
903.565	18829
903.683	18795
903.801	18711
903.919	18802
904.038	18783
904.156	18696
904.274	18692
904.392	18513
904.51	18563
904.627	18574
904.745	18601
904.863	18673
904.981	18357
905.098	18201
905.216	18258
905.334	18273
905.451	18304
905.569	18174
905.686	18315
905.803	18273
905.921	18019
906.038	18125
906.155	17969
906.272	17999
906.389	17946
906.506	17764
906.623	17756
906.74	17672
906.857	17707
906.974	17600
907.091	17874
907.208	17828
907.324	17817
907.441	17623
907.557	17493
907.674	17478
907.79	17444
907.907	17482
908.023	17467
908.139	17471
908.256	17490
908.372	17360
908.488	17436
908.604	17383
908.72	17140
908.836	17258
908.952	17208
909.068	17315
909.184	17250
909.3	17269
909.415	17292
909.531	17075
909.647	16930
909.762	16987
909.878	16900
909.993	16930
910.108	16961
910.224	16854
910.339	16862
910.454	16828
910.57	16702
910.685	16702
910.8	16915
910.915	16869
911.03	16649
911.145	16481
911.259	16577
911.374	16523
911.489	16489
911.604	16390
911.718	16322
911.833	16154
911.947	16112
912.062	16032
912.176	16249
912.291	16223
912.405	16211
912.519	16462
912.633	16451
912.748	16306
912.862	16226
912.976	16048
913.09	15911
913.204	16074
913.318	16036
913.431	16154
913.545	16150
913.659	16097
913.772	15960
913.886	15903
914	15876
914.113	15968
914.226	16010
914.34	16010
914.453	15724
914.566	15854
914.68	15724
914.793	15637
914.906	15549
915.019	15580
915.132	15431
915.245	15408
915.358	15447
915.47	15477
915.583	15496
915.696	15428
915.809	15576
915.921	15511
916.034	15424
916.146	15275
916.259	15351
916.371	15538
916.483	15412
916.595	15237
916.708	15260
916.82	15340
916.932	15165
917.044	15138
917.156	15146
917.268	15074
917.38	14956
917.491	15070
917.603	15085
917.715	15199
917.826	15214
917.938	14952
918.049	14971
918.161	15047
918.272	15142
918.384	15138
918.495	15058
918.606	14823
918.717	14857
918.828	14902
918.939	14899
919.05	14804
919.161	14796
919.272	14678
919.383	14613
919.494	14838
919.604	15005
919.715	14975
919.826	14724
919.936	14830
920.047	14902
920.157	14746
920.267	14944
920.378	14830
920.488	14765
920.598	14944
920.708	15097
920.818	14925
920.928	14929
921.038	15058
921.148	15070
921.258	14632
921.368	14655
921.477	14495
921.587	14438
921.697	14484
921.806	14537
921.916	14385
922.025	14309
922.134	14092
922.244	14176
922.353	14138
922.462	14008
922.571	13993
922.68	13856
922.789	13814
922.898	13814
923.007	13822
923.116	13784
923.224	13864
923.333	13772
923.442	13750
923.55	13605
923.659	13624
923.767	13746
923.876	13624
923.984	13594
924.092	13403
924.201	13636
924.309	13521
924.417	13491
924.525	13460
924.633	13499
924.741	14225
924.849	13373
924.956	13449
925.064	13327
925.172	13110
925.279	13221
925.387	13179
925.494	13217
925.602	13441
925.709	13236
925.816	13129
925.924	13080
926.031	13304
926.138	13168
926.245	13171
926.352	13034
926.459	13202
926.566	13164
926.673	13084
926.779	12954
926.886	12993
926.993	12753
927.099	12768
927.206	12734
927.312	12669
927.419	12814
927.525	12703
927.631	12810
927.737	12753
927.843	12582
927.95	12429
928.056	12593
928.162	12673
928.267	12601
928.373	13213
928.479	12700
928.585	12395
928.69	12494
928.796	12536
928.901	12426
929.007	12330
929.112	12479
929.218	12350
929.323	12346
929.428	12254
929.533	12429
929.638	12175
929.743	12220
929.848	12159
929.953	12289
930.058	12095
930.163	11969
930.267	11999
930.372	12098
930.477	12015
930.581	12140
930.685	12015
930.79	11843
930.894	11920
930.998	11813
931.103	11935
931.207	11615
931.311	11436
931.415	11433
931.519	11231
931.623	11204
