Data from test_V78500241_1916.txt Node
Date: Fri Mar 25 15:23:11 CST 2022
User: usil
Spectrometer: V785-0024
Trigger mode: 0
Integration Time (sec): 4.000000E-1
Scans to average: 1
Nonlinearity correction enabled: false
Boxcar width: 0
Storing dark spectrum: false
XAxis mode: Wavelengths
Number of Pixels in Spectrum: 1024
>>>>>Begin Spectral Data<<<<<
801.071	27534
801.214	27469
801.356	27260
801.499	27146
801.641	27108
801.783	27017
801.926	27230
802.068	27180
802.211	27032
802.353	27028
802.496	26891
802.638	26735
802.78	26686
802.923	26689
803.065	26552
803.208	26689
803.35	26701
803.492	26830
803.635	26921
803.777	26979
803.919	26838
804.061	27199
804.204	26998
804.346	26887
804.488	26765
804.63	26933
804.773	26887
804.915	26899
805.057	26994
805.199	26857
805.341	27005
805.483	27150
805.626	27100
805.768	26933
805.91	27074
806.052	26963
806.194	26998
806.336	27237
806.478	27017
806.62	27123
806.762	27199
806.904	27329
807.046	27534
807.188	27454
807.33	27485
807.472	27504
807.614	27378
807.756	27511
807.898	27298
808.04	27374
808.182	27150
808.324	27458
808.465	27427
808.607	27549
808.749	27724
808.891	27671
809.033	27823
809.174	27618
809.316	27583
809.458	27641
809.6	27644
809.741	27812
809.883	27717
810.025	27865
810.166	27934
810.308	27972
810.45	27854
810.591	27766
810.733	27732
810.875	27603
811.016	27568
811.158	27488
811.299	27762
811.441	27641
811.582	27762
811.724	27603
811.865	27580
812.007	27519
812.148	27591
812.29	27728
812.431	27747
812.573	27979
812.714	27991
812.855	28295
812.997	28177
813.138	28223
813.279	28306
813.421	28135
813.562	28070
813.703	28010
813.845	27846
813.986	27538
814.127	27595
814.268	27340
814.41	27370
814.551	27359
814.692	27397
814.833	27184
814.974	27275
815.115	27283
815.256	27252
815.397	27275
815.539	27214
815.68	27195
815.821	27116
815.962	27055
816.103	27096
816.244	26929
816.385	26948
816.526	26914
816.666	26640
816.807	26659
816.948	26758
817.089	26731
817.23	26621
817.371	26541
817.512	26701
817.653	26587
817.793	26537
817.934	26480
818.075	26667
818.216	26613
818.356	26522
818.497	26564
818.638	26358
818.778	26366
818.919	26332
819.06	26434
819.2	26560
819.341	26625
819.481	26648
819.622	26792
819.762	26944
819.903	26906
820.043	26716
820.184	26773
820.324	26678
820.465	26716
820.605	26701
820.746	26606
820.886	26613
821.026	26568
821.167	26724
821.307	26769
821.447	26609
821.588	26632
821.728	26457
821.868	26153
822.008	26214
822.149	26050
822.289	26145
822.429	25898
822.569	25791
822.709	25837
822.849	25700
822.99	25784
823.13	25537
823.27	25540
823.41	25221
823.55	25312
823.69	25540
823.83	25487
823.97	25263
824.11	25171
824.25	25152
824.389	25293
824.529	25350
824.669	25259
824.809	25354
824.949	25327
825.089	25320
825.228	25339
825.368	25160
825.508	25103
825.648	25129
825.787	25076
825.927	25266
826.067	25141
826.206	25183
826.346	25152
826.485	25148
826.625	25076
826.765	25179
826.904	25095
827.044	25023
827.183	25023
827.323	24954
827.462	24970
827.601	24905
827.741	24852
827.88	24943
828.02	24673
828.159	24722
828.298	24947
828.437	25012
828.577	24825
828.716	24985
828.855	24715
828.994	24585
829.134	24608
829.273	24570
829.412	24505
829.551	24502
829.69	24452
829.829	24536
829.968	24658
830.107	24669
830.246	24658
830.385	24452
830.524	24483
830.663	24498
830.802	24327
830.941	24273
831.08	24273
831.219	24270
831.357	24323
831.496	24315
831.635	24083
831.774	23958
831.913	24030
832.051	24140
832.19	23908
832.329	23923
832.467	23840
832.606	23794
832.744	23802
832.883	23764
833.022	23889
833.16	23832
833.299	23988
833.437	23958
833.576	23817
833.714	23920
833.852	23954
833.991	23931
834.129	23942
834.267	24038
834.406	23798
834.544	23939
834.682	23961
834.821	23878
834.959	24121
835.097	23923
835.235	23973
835.373	23923
835.511	23984
835.65	23767
835.788	23805
835.926	23577
836.064	23695
836.202	23509
836.34	23851
836.478	23870
836.615	23794
836.753	23756
836.891	23958
837.029	23851
837.167	23748
837.305	23729
837.443	23646
837.58	23608
837.718	23748
837.856	23707
837.993	23497
838.131	23733
838.269	23592
838.406	23433
838.544	23471
838.681	23353
838.819	23261
838.956	23121
839.094	23037
839.231	23109
839.369	23299
839.506	23444
839.643	23368
839.781	23204
839.918	23086
840.055	22957
840.193	23064
840.33	23079
840.467	22961
840.604	23105
840.742	23216
840.879	22793
841.016	22968
841.153	22949
841.29	23075
841.427	23083
841.564	22991
841.701	23048
841.838	22866
841.975	22927
842.112	23003
842.249	22816
842.385	22717
842.522	23037
842.659	22774
842.796	22759
842.933	22759
843.069	22725
843.206	22702
843.343	22763
843.479	22831
843.616	22869
843.752	22554
843.889	22542
844.025	22694
844.162	22550
844.298	22622
844.435	22519
844.571	22462
844.708	22599
844.844	22736
844.98	22694
845.117	22710
845.253	22557
845.389	22432
845.525	22417
845.661	22284
845.798	22280
845.934	22314
846.07	22291
846.206	22272
846.342	22322
846.478	22185
846.614	22177
846.75	21949
846.886	21972
847.022	22154
847.158	22025
847.294	22105
847.429	22188
847.565	22078
847.701	22234
847.837	21728
847.972	21701
848.108	21778
848.244	21831
848.379	21644
848.515	21663
848.65	21504
848.786	21580
848.921	21576
849.057	21686
849.192	21694
849.328	21576
849.463	21583
849.598	21580
849.734	21542
849.869	21462
850.004	21306
850.14	21416
850.275	21310
850.41	21321
850.545	21298
850.68	21412
850.815	21466
850.95	21344
851.085	21485
851.22	21504
851.355	21412
851.49	21389
851.625	21420
851.76	21245
851.895	21256
852.03	21306
852.165	21351
852.299	21473
852.434	21393
852.569	21374
852.703	21192
852.838	21538
852.973	21504
853.107	21534
853.242	21214
853.376	21116
853.511	21043
853.645	21241
853.78	21420
853.914	21180
854.048	21233
854.183	21302
854.317	21279
854.451	21462
854.585	21195
854.72	21222
854.854	21245
854.988	21192
855.122	21207
855.256	21096
855.39	21165
855.524	21355
855.658	21157
855.792	21203
855.926	21146
856.06	21233
856.194	21283
856.327	21119
856.461	21112
856.595	21154
856.729	21138
856.862	21249
856.996	21188
857.13	21348
857.263	21344
857.397	21321
857.53	21096
857.664	21207
857.797	21176
857.931	21252
858.064	21272
858.197	21321
858.331	21131
858.464	21233
858.597	21119
858.731	21199
858.864	21150
858.997	21104
859.13	21214
859.263	21131
859.396	21214
859.529	21226
859.662	21161
859.795	21169
859.928	21138
860.061	21317
860.194	21454
860.327	21294
860.46	21142
860.592	21302
860.725	21348
860.858	21355
860.99	21237
861.123	21104
861.256	21287
861.388	21077
861.521	21857
861.653	21127
861.786	20899
861.918	21043
862.05	21154
862.183	21047
862.315	21058
862.447	21279
862.58	21017
862.712	20845
862.844	20876
862.976	20925
863.108	20864
863.24	21279
863.372	20792
863.504	20781
863.636	20861
863.768	20963
863.9	20910
864.032	20876
864.164	20811
864.296	20941
864.428	21043
864.559	20979
864.691	20929
864.823	20868
864.954	20830
865.086	20842
865.217	20872
865.349	20716
865.48	20724
865.612	20902
865.743	20948
865.875	20762
866.006	20705
866.137	20868
866.269	20769
866.4	20830
866.531	20701
866.662	20697
866.793	20644
866.924	20781
867.055	20743
867.186	20735
867.317	20712
867.448	20609
867.579	20598
867.71	20560
867.841	20609
867.972	20739
868.103	20750
868.233	20731
868.364	20689
868.495	20739
868.625	20937
868.756	21013
868.886	20861
869.017	20963
869.147	21043
869.278	21093
869.408	21096
869.539	20902
869.669	21112
869.799	21070
869.929	21062
870.06	21165
870.19	21268
870.32	21214
870.45	21348
870.58	21355
870.71	21469
870.84	21481
870.97	21325
871.1	21321
871.23	21572
871.36	21515
871.489	21462
871.619	21481
871.749	21561
871.879	21705
872.008	21599
872.138	21587
872.267	21553
872.397	21458
872.526	21405
872.656	21416
872.785	21355
872.915	21610
873.044	21713
873.173	21606
873.303	21671
873.432	21591
873.561	21682
873.69	21504
873.819	21572
873.948	21694
874.077	21553
874.206	21564
874.335	21614
874.464	21766
874.593	21880
874.722	21720
874.851	21823
874.979	21880
875.108	21804
875.237	21686
875.365	21656
875.494	21781
875.623	21895
875.751	21785
875.88	21880
876.008	21831
876.136	21865
876.265	22238
876.393	22287
876.521	22257
876.65	22375
876.778	22238
876.906	22253
877.034	22109
877.162	22200
877.29	22067
877.418	22181
877.546	22055
877.674	22093
877.802	22124
877.93	22128
878.058	22166
878.185	21975
878.313	22154
878.441	22109
878.568	21907
878.696	22074
878.824	22097
878.951	22226
879.079	22322
879.206	22318
879.333	22310
879.461	22120
879.588	22299
879.715	22261
879.842	22493
879.97	22158
880.097	22032
880.224	22010
880.351	22021
880.478	22032
880.605	21964
880.732	22036
880.859	22169
880.986	22044
881.112	21945
881.239	21884
881.366	21778
881.493	21629
881.619	21557
881.746	21572
881.872	21622
881.999	21492
882.125	21545
882.252	21538
882.378	21519
882.505	21625
882.631	21340
882.757	21176
882.883	21252
883.01	21214
883.136	21264
883.262	21131
883.388	21066
883.514	21256
883.64	21389
883.766	21306
883.892	21089
884.018	21089
884.143	21230
884.269	21317
884.395	20864
884.52	20872
884.646	21028
884.772	20777
884.897	20819
885.023	20906
885.148	20925
885.274	21005
885.399	20982
885.524	21032
885.65	20845
885.775	20994
885.9	20918
886.025	21017
886.15	20895
886.275	20811
886.4	20750
886.525	20948
886.65	20811
886.775	20853
886.9	20952
887.025	21150
887.149	20902
887.274	20769
887.399	20663
887.523	20697
887.648	20667
887.773	20442
887.897	20720
888.021	20674
888.146	20617
888.27	20804
888.395	20830
888.519	20587
888.643	20792
888.767	20705
888.891	20537
889.015	20476
889.139	20609
889.263	20442
889.387	20659
889.511	20621
889.635	20552
889.759	20587
889.883	20415
890.006	20533
890.13	20556
890.254	20396
890.377	20438
890.501	20149
890.624	20161
890.748	20305
890.871	20081
890.995	20100
891.118	19982
891.241	20058
891.364	20024
891.488	20122
891.611	20092
891.734	20062
891.857	20043
891.98	20134
892.103	20126
892.226	20103
892.349	20027
892.471	19906
892.594	20005
892.717	20046
892.839	19883
892.962	19986
893.085	19974
893.207	19963
893.33	19879
893.452	19807
893.575	20092
893.697	19830
893.819	20214
893.941	20191
894.064	20187
894.186	19833
894.308	19769
894.43	20092
894.552	20126
894.674	20035
894.796	19780
894.918	19856
895.04	19963
895.161	19925
895.283	19940
895.405	19875
895.526	19898
895.648	19959
895.769	19887
895.891	19974
896.012	20024
896.134	19841
896.255	19963
896.376	19913
896.498	19898
896.619	20073
896.74	19887
896.861	20001
896.982	20252
897.103	20408
897.224	20267
897.345	20176
897.466	20153
897.587	20138
897.708	20256
897.828	20157
897.949	20069
898.07	20043
898.19	20176
898.311	20225
898.431	20157
898.552	20111
898.672	20145
898.792	20248
898.913	20100
899.033	20012
899.153	19955
899.273	19772
899.393	19894
899.513	19921
899.633	20016
899.753	19989
899.873	19833
899.993	19902
900.113	19761
900.232	19837
900.352	19898
900.472	19788
900.591	19594
900.711	19769
900.83	19723
900.95	19826
901.069	19757
901.189	19609
901.308	19255
901.427	19270
901.546	19289
901.665	19324
901.784	19384
901.904	19072
902.023	19053
902.141	18764
902.26	18970
902.379	18859
902.498	18722
902.617	18764
902.735	18920
902.854	18745
902.973	18681
903.091	18559
903.21	18441
903.328	18467
903.446	18422
903.565	18277
903.683	18357
903.801	18121
903.919	18117
904.038	18216
904.156	18091
904.274	18159
904.392	18121
904.51	18049
904.627	18140
904.745	18083
904.863	18053
904.981	17885
905.098	17729
905.216	17726
905.334	17767
905.451	17756
905.569	17684
905.686	17699
905.803	17687
905.921	17524
906.038	17539
906.155	17585
906.272	17395
906.389	17429
906.506	17254
906.623	17318
906.74	17231
906.857	17143
906.974	17117
907.091	17311
907.208	17383
907.324	17337
907.441	17132
907.557	17033
907.674	16919
907.79	16968
907.907	16877
908.023	16987
908.139	16991
908.256	16908
908.372	16908
908.488	16877
908.604	16694
908.72	16672
908.836	16634
908.952	16683
909.068	16649
909.184	16755
909.3	16717
909.415	16763
909.531	16702
909.647	16428
909.762	16478
909.878	16382
909.993	16348
910.108	16398
910.224	16371
910.339	16394
910.454	16223
910.57	16177
910.685	16097
910.8	16451
910.915	16253
911.03	16196
911.145	16036
911.259	16002
911.374	16013
911.489	15972
911.604	15895
911.718	15690
911.833	15895
911.947	15538
912.062	15580
912.176	15705
912.291	15652
912.405	15736
912.519	15888
912.633	15880
912.748	15835
912.862	15759
912.976	15576
913.09	15458
913.204	15511
913.318	15553
913.431	15595
913.545	15652
913.659	15671
913.772	15519
913.886	15325
914	15359
914.113	15515
914.226	15538
914.34	15367
914.453	15359
914.566	15481
914.68	15264
914.793	15150
914.906	15119
915.019	14994
915.132	14895
915.245	14952
915.358	14918
915.47	14975
915.583	14963
915.696	14979
915.809	14998
915.921	15077
916.034	14906
916.146	14845
916.259	14792
916.371	15036
916.483	14929
916.595	14937
916.708	14842
916.82	14895
916.932	14769
917.044	14708
917.156	14686
917.268	14621
917.38	14693
917.491	14579
917.603	14613
917.715	14708
917.826	14765
917.938	14606
918.049	14393
918.161	14667
918.272	14773
918.384	14613
918.495	14522
918.606	14358
918.717	14339
918.828	14389
918.939	14431
919.05	14328
919.161	14393
919.272	14145
919.383	14343
919.494	14355
919.604	14560
919.715	14408
919.826	14252
919.936	14358
920.047	14415
920.157	14328
920.267	14457
920.378	14358
920.488	14328
920.598	14579
920.708	14579
920.818	14442
920.928	14522
921.038	14492
921.148	14545
921.258	14385
921.368	14252
921.477	14126
921.587	14115
921.697	13997
921.806	14100
921.916	13963
922.025	13887
922.134	13750
922.244	13750
922.353	13826
922.462	13651
922.571	13556
922.68	13396
922.789	13422
922.898	13464
923.007	13373
923.116	13373
923.224	13407
923.333	13293
923.442	13251
923.55	13171
923.659	13228
923.767	13362
923.876	13209
923.984	13225
924.092	13084
924.201	13179
924.309	13171
924.417	13122
924.525	13057
924.633	13023
924.741	13955
924.849	12745
924.956	13038
925.064	12840
925.172	12833
925.279	12734
925.387	12890
925.494	12783
925.602	12901
925.709	12848
925.816	12738
925.924	12768
926.031	12776
926.138	12719
926.245	12848
926.352	12635
926.459	12817
926.566	12772
926.673	12646
926.779	12642
926.886	12566
926.993	12418
927.099	12418
927.206	12403
927.312	12346
927.419	12445
927.525	12372
927.631	12448
927.737	12258
927.843	12235
927.95	12076
928.056	12152
928.162	12209
928.267	12209
928.373	12787
928.479	12357
928.585	12072
928.69	12121
928.796	12175
928.901	12053
929.007	11897
929.112	12098
929.218	12007
929.323	11889
929.428	11988
929.533	12095
929.638	11813
929.743	11946
929.848	11859
929.953	11760
930.058	11691
930.163	11596
930.267	11680
930.372	11737
930.477	11558
930.581	11817
930.685	11577
930.79	11604
930.894	11512
930.998	11478
931.103	11615
931.207	11280
931.311	11193
931.415	11121
931.519	10927
931.623	10896
