Data from test_V78500241_2910.txt Node
Date: Fri Mar 25 15:30:07 CST 2022
User: usil
Spectrometer: V785-0024
Trigger mode: 0
Integration Time (sec): 4.000000E-1
Scans to average: 1
Nonlinearity correction enabled: false
Boxcar width: 0
Storing dark spectrum: false
XAxis mode: Wavelengths
Number of Pixels in Spectrum: 1024
>>>>>Begin Spectral Data<<<<<
801.071	27211
801.214	27017
801.356	26986
801.499	26952
801.641	26815
801.783	26644
801.926	26800
802.068	26811
802.211	26788
802.353	26678
802.496	26514
802.638	26457
802.78	26495
802.923	26473
803.065	26351
803.208	26393
803.35	26351
803.492	26564
803.635	26602
803.777	26473
803.919	26560
804.061	26944
804.204	26575
804.346	26522
804.488	26526
804.63	26556
804.773	26450
804.915	26621
805.057	26785
805.199	26537
805.341	26644
805.483	26651
805.626	26796
805.768	26629
805.91	26575
806.052	26785
806.194	26636
806.336	26819
806.478	26629
806.62	26800
806.762	26872
806.904	27074
807.046	27176
807.188	27226
807.33	27340
807.472	27165
807.614	27108
807.756	27024
807.898	27074
808.04	26891
808.182	27005
808.324	27032
808.465	27020
808.607	27184
808.749	27355
808.891	27408
809.033	27454
809.174	27355
809.316	27264
809.458	27378
809.6	27389
809.741	27443
809.883	27469
810.025	27564
810.166	27599
810.308	27663
810.45	27610
810.591	27542
810.733	27389
810.875	27249
811.016	27252
811.158	27260
811.299	27515
811.441	27553
811.582	27443
811.724	27367
811.865	27306
812.007	27340
812.148	27329
812.29	27317
812.431	27466
812.573	27652
812.714	27671
812.855	27675
812.997	27956
813.138	28128
813.279	28029
813.421	27808
813.562	27759
813.703	27671
813.845	27530
813.986	27313
814.127	27039
814.268	27074
814.41	26796
814.551	26914
814.692	27188
814.833	26906
814.974	26967
815.115	26895
815.256	26872
815.397	26849
815.539	26899
815.68	26716
815.821	26667
815.962	26659
816.103	26743
816.244	26587
816.385	26598
816.526	26560
816.666	26393
816.807	26259
816.948	26332
817.089	26286
817.23	26324
817.371	26195
817.512	26096
817.653	26298
817.793	26298
817.934	26126
818.075	26206
818.216	26221
818.356	26153
818.497	26001
818.638	25925
818.778	25925
818.919	25879
819.06	26050
819.2	26233
819.341	26195
819.481	26183
819.622	26404
819.762	26484
819.903	26419
820.043	26476
820.184	26313
820.324	26278
820.465	26480
820.605	26332
820.746	26305
820.886	26256
821.026	26271
821.167	26332
821.307	26278
821.447	26256
821.588	26218
821.728	26001
821.868	25845
822.008	25700
822.149	25693
822.289	25750
822.429	25430
822.569	25491
822.709	25571
822.849	25358
822.99	25206
823.13	25270
823.27	25187
823.41	25042
823.55	25034
823.69	24962
823.83	25072
823.97	24939
824.11	24882
824.25	24821
824.389	24745
824.529	24935
824.669	24825
824.809	24924
824.949	24840
825.089	24932
825.228	24798
825.368	24650
825.508	24658
825.648	24738
825.787	24684
825.927	24726
826.067	24620
826.206	24654
826.346	24612
826.485	24734
826.625	24688
826.765	24760
826.904	24684
827.044	24372
827.183	24433
827.323	24323
827.462	24452
827.601	24270
827.741	24414
827.88	24414
828.02	24232
828.159	24391
828.298	24357
828.437	24513
828.577	24327
828.716	24429
828.855	24213
828.994	24053
829.134	23988
829.273	24182
829.412	24049
829.551	23996
829.69	24102
829.829	24095
829.968	24178
830.107	24186
830.246	24057
830.385	24102
830.524	24026
830.663	23809
830.802	23847
830.941	23786
831.08	23821
831.219	23760
831.357	23718
831.496	23980
831.635	23680
831.774	23501
831.913	23615
832.051	23516
832.19	23490
832.329	23421
832.467	23235
832.606	23280
832.744	23379
832.883	23341
833.022	23444
833.16	23330
833.299	23410
833.437	23311
833.576	23471
833.714	23402
833.852	23440
833.991	23497
834.129	23596
834.267	23436
834.406	23444
834.544	23452
834.682	23436
834.821	23425
834.959	23531
835.097	23334
835.235	23345
835.373	23528
835.511	23463
835.65	23265
835.788	23387
835.926	23178
836.064	23197
836.202	22915
836.34	23235
836.478	23288
836.615	23220
836.753	23341
836.891	23220
837.029	23159
837.167	23174
837.305	23147
837.443	23204
837.58	23094
837.718	23246
837.856	23006
837.993	23067
838.131	23136
838.269	23014
838.406	23041
838.544	22946
838.681	22824
838.819	22733
838.956	22516
839.094	22675
839.231	22603
839.369	22771
839.506	22999
839.643	22713
839.781	22622
839.918	22512
840.055	22634
840.193	22508
840.33	22611
840.467	22489
840.604	22611
840.742	22793
840.879	22504
841.016	22417
841.153	22470
841.29	22577
841.427	22512
841.564	22500
841.701	22428
841.838	22421
841.975	22390
842.112	22436
842.249	22398
842.385	22375
842.522	22398
842.659	22367
842.796	22287
842.933	22253
843.069	22234
843.206	22177
843.343	22310
843.479	22280
843.616	22314
843.752	21915
843.889	22070
844.025	22169
844.162	22074
844.298	22196
844.435	22059
844.571	21945
844.708	22002
844.844	22188
844.98	22219
845.117	22173
845.253	21956
845.389	21842
845.525	21968
845.661	21956
845.798	21759
845.934	21869
846.07	21793
846.206	21785
846.342	21789
846.478	21660
846.614	21549
846.75	21534
846.886	21473
847.022	21587
847.158	21599
847.294	21583
847.429	21542
847.565	21557
847.701	21713
847.837	21180
847.972	21161
848.108	21355
848.244	21332
848.379	21104
848.515	21074
848.65	21058
848.786	21093
848.921	21150
849.057	21146
849.192	21146
849.328	21214
849.463	21173
849.598	21017
849.734	21138
849.869	20826
850.004	20933
850.14	20929
850.275	20975
850.41	20781
850.545	20720
850.68	20777
850.815	20853
850.95	20758
851.085	20925
851.22	20948
851.355	20883
851.49	20823
851.625	20857
851.76	20819
851.895	20845
852.03	20800
852.165	20777
852.299	20918
852.434	20986
852.569	20830
852.703	20819
852.838	20906
852.973	20868
853.107	20937
853.242	20746
853.376	20655
853.511	20617
853.645	20754
853.78	20758
853.914	20796
854.048	20674
854.183	20545
854.317	20705
854.451	20792
854.585	20629
854.72	20689
854.854	20773
854.988	20674
855.122	20632
855.256	20522
855.39	20621
855.524	20762
855.658	20781
855.792	20659
855.926	20693
856.06	20648
856.194	20777
856.327	20663
856.461	20594
856.595	20682
856.729	20636
856.862	20804
856.996	20625
857.13	20598
857.263	20792
857.397	20670
857.53	20644
857.664	20708
857.797	20712
857.931	20792
858.064	20712
858.197	20826
858.331	20617
858.464	20606
858.597	20575
858.731	20640
858.864	20583
858.997	20629
859.13	20560
859.263	20670
859.396	20762
859.529	20667
859.662	20670
859.795	20727
859.928	20716
860.061	20960
860.194	20941
860.327	20701
860.46	20541
860.592	20788
860.725	20842
860.858	20804
860.99	20564
861.123	20560
861.256	20571
861.388	20629
861.521	21203
861.653	20415
861.786	20473
861.918	20495
862.05	20625
862.183	20587
862.315	20556
862.447	20705
862.58	20617
862.712	20408
862.844	20275
862.976	20537
863.108	20461
863.24	20785
863.372	20339
863.504	20332
863.636	20278
863.768	20366
863.9	20374
864.032	20419
864.164	20309
864.296	20442
864.428	20541
864.559	20503
864.691	20446
864.823	20419
864.954	20427
865.086	20328
865.217	20328
865.349	20237
865.48	20343
865.612	20282
865.743	20419
865.875	20431
866.006	20267
866.137	20454
866.269	20256
866.4	20263
866.531	20309
866.662	20142
866.793	20290
866.924	20206
867.055	20301
867.186	20145
867.317	20149
867.448	20168
867.579	20145
867.71	20008
867.841	20088
867.972	20240
868.103	20263
868.233	20294
868.364	20187
868.495	20294
868.625	20484
868.756	20533
868.886	20438
869.017	20492
869.147	20587
869.278	20556
869.408	20514
869.539	20545
869.669	20495
869.799	20385
869.929	20609
870.06	20526
870.19	20678
870.32	20872
870.45	20788
870.58	20956
870.71	21013
870.84	21005
870.97	20883
871.1	20960
871.23	21074
871.36	21142
871.489	20956
871.619	21043
871.749	21020
871.879	21074
872.008	21207
872.138	21017
872.267	21043
872.397	20963
872.526	20895
872.656	20941
872.785	20857
872.915	21119
873.044	21161
873.173	21013
873.303	21192
873.432	21055
873.561	21241
873.69	21135
873.819	21085
873.948	21135
874.077	21077
874.206	21005
874.335	20998
874.464	21252
874.593	21298
874.722	21355
874.851	21359
874.979	21260
875.108	21325
875.237	21355
875.365	21256
875.494	21416
875.623	21321
875.751	21393
875.88	21374
876.008	21424
876.136	21538
876.265	21747
876.393	21892
876.521	21831
876.65	21800
876.778	21720
876.906	21743
877.034	21667
877.162	21781
877.29	21690
877.418	21618
877.546	21732
877.674	21686
877.802	21523
877.93	21713
878.058	21530
878.185	21500
878.313	21572
878.441	21564
878.568	21534
878.696	21686
878.824	21766
878.951	21732
879.079	21884
879.206	22006
879.333	21880
879.461	21641
879.588	21812
879.715	21770
879.842	21926
879.97	21717
880.097	21523
880.224	21557
880.351	21519
880.478	21553
880.605	21580
880.732	21538
880.859	21842
880.986	21496
881.112	21424
881.239	21336
881.366	21237
881.493	21222
881.619	21081
881.746	21089
881.872	20982
881.999	21112
882.125	20944
882.252	21104
882.378	21214
882.505	21150
882.631	20998
882.757	20720
882.883	20868
883.01	20872
883.136	20777
883.262	20560
883.388	20613
883.514	20807
883.64	20845
883.766	20716
883.892	20583
884.018	20689
884.143	20720
884.269	20735
884.395	20511
884.52	20537
884.646	20492
884.772	20347
884.897	20454
885.023	20503
885.148	20644
885.274	20511
885.399	20602
885.524	20400
885.65	20480
885.775	20537
885.9	20480
886.025	20495
886.15	20655
886.275	20396
886.4	20282
886.525	20396
886.65	20404
886.775	20438
886.9	20450
887.025	20587
887.149	20423
887.274	20282
887.399	20168
887.523	20240
887.648	20103
887.773	20092
887.897	20381
888.021	20263
888.146	20119
888.27	20240
888.395	20252
888.519	20248
888.643	20168
888.767	20336
888.891	20149
889.015	20054
889.139	20142
889.263	19868
889.387	20073
889.511	20275
889.635	20115
889.759	20100
889.883	20020
890.006	20065
890.13	20126
890.254	19936
890.377	19921
890.501	19811
890.624	19753
890.748	19826
890.871	19696
890.995	19666
891.118	19556
891.241	19719
891.364	19613
891.488	19681
891.611	19670
891.734	19670
891.857	19594
891.98	19582
892.103	19643
892.226	19605
892.349	19563
892.471	19415
892.594	19419
892.717	19468
892.839	19495
892.962	19506
893.085	19594
893.207	19567
893.33	19430
893.452	19457
893.575	19635
893.697	19533
893.819	19620
893.941	19628
894.064	19681
894.186	19605
894.308	19419
894.43	19723
894.552	19670
894.674	19639
894.796	19430
894.918	19624
895.04	19609
895.161	19582
895.283	19594
895.405	19457
895.526	19472
895.648	19434
895.769	19552
895.891	19689
896.012	19597
896.134	19533
896.255	19556
896.376	19449
896.498	19502
896.619	19571
896.74	19495
896.861	19616
896.982	19811
897.103	19925
897.224	19890
897.345	19712
897.466	19712
897.587	19696
897.708	19883
897.828	19849
897.949	19590
898.07	19666
898.19	19578
898.311	19841
898.431	19784
898.552	19776
898.672	19788
898.792	19750
898.913	19776
899.033	19639
899.153	19658
899.273	19434
899.393	19563
899.513	19628
899.633	19540
899.753	19415
899.873	19468
899.993	19491
900.113	19472
900.232	19457
900.352	19381
900.472	19274
900.591	19339
900.711	19350
900.83	19259
900.95	19396
901.069	19483
901.189	19225
901.308	19012
901.427	18829
901.546	18962
901.665	19008
901.784	18935
901.904	18783
902.023	18665
902.141	18544
902.26	18380
902.379	18494
902.498	18369
902.617	18330
902.735	18327
902.854	18429
902.973	18235
903.091	18167
903.21	18102
903.328	18178
903.446	18026
903.565	17885
903.683	17927
903.801	17870
903.919	17908
904.038	17889
904.156	17634
904.274	17843
904.392	17813
904.51	17615
904.627	17551
904.745	17600
904.863	17760
904.981	17490
905.098	17330
905.216	17395
905.334	17406
905.451	17387
905.569	17299
905.686	17296
905.803	17349
905.921	17170
906.038	17254
906.155	17162
906.272	17136
906.389	17037
906.506	16877
906.623	16961
906.74	16847
906.857	16809
906.974	16877
907.091	16896
907.208	17018
907.324	16923
907.441	16824
907.557	16603
907.674	16569
907.79	16558
907.907	16630
908.023	16691
908.139	16668
908.256	16489
908.372	16538
908.488	16462
908.604	16352
908.72	16402
908.836	16360
908.952	16394
909.068	16356
909.184	16451
909.3	16310
909.415	16322
909.531	16348
909.647	16090
909.762	16097
909.878	16063
909.993	16013
910.108	16105
910.224	16051
910.339	16010
910.454	15888
910.57	15812
910.685	15793
910.8	16082
910.915	15922
911.03	15827
911.145	15728
911.259	15644
911.374	15622
911.489	15610
911.604	15538
911.718	15408
911.833	15496
911.947	15386
912.062	15332
912.176	15367
912.291	15492
912.405	15435
912.519	15595
912.633	15614
912.748	15504
912.862	15325
912.976	15291
913.09	15176
913.204	15146
913.318	15272
913.431	15321
913.545	15275
913.659	15268
913.772	15245
913.886	15005
914	15055
914.113	15176
914.226	15116
914.34	15020
914.453	14944
914.566	15119
914.68	14845
914.793	14891
914.906	14785
915.019	14598
915.132	14610
915.245	14682
915.358	14659
915.47	14640
915.583	14693
915.696	14708
915.809	14724
915.921	14853
916.034	14541
916.146	14629
916.259	14526
916.371	14693
916.483	14644
916.595	14442
916.708	14507
916.82	14419
916.932	14454
917.044	14488
917.156	14412
917.268	14332
917.38	14366
917.491	14339
917.603	14259
917.715	14328
917.826	14442
917.938	14313
918.049	14218
918.161	14248
918.272	14457
918.384	14355
918.495	14298
918.606	14225
918.717	14043
918.828	14126
918.939	14153
919.05	13959
919.161	14050
919.272	13856
919.383	13890
919.494	14126
919.604	14301
919.715	14115
919.826	14046
919.936	14081
920.047	14202
920.157	14046
920.267	14237
920.378	14088
920.488	14008
920.598	14202
920.708	14431
920.818	14240
920.928	14187
921.038	14339
921.148	14286
921.258	14035
921.368	13974
921.477	13898
921.587	13772
921.697	13727
921.806	13803
921.916	13731
922.025	13529
922.134	13472
922.244	13426
922.353	13548
922.462	13358
922.571	13228
922.68	13122
922.789	13088
922.898	13168
923.007	12989
923.116	13118
923.224	13050
923.333	13050
923.442	12993
923.55	12939
923.659	12890
923.767	12966
923.876	12947
923.984	12932
924.092	12806
924.201	12962
924.309	12894
924.417	12882
924.525	12764
924.633	12814
924.741	13719
924.849	12502
924.956	12700
925.064	12517
925.172	12437
925.279	12395
925.387	12555
925.494	12601
925.602	12665
925.709	12570
925.816	12467
925.924	12544
926.031	12559
926.138	12532
926.245	12631
926.352	12357
926.459	12547
926.566	12525
926.673	12399
926.779	12270
926.886	12353
926.993	12209
927.099	12095
927.206	12117
927.312	12121
927.419	12152
927.525	12079
927.631	12178
927.737	12064
927.843	11969
927.95	11931
928.056	12003
928.162	12079
928.267	12015
928.373	12604
928.479	11999
928.585	11745
928.69	11969
928.796	11920
928.901	11805
929.007	11668
929.112	11904
929.218	11786
929.323	11764
929.428	11676
929.533	11847
929.638	11726
929.743	11551
929.848	11630
929.953	11585
930.058	11562
930.163	11368
930.267	11455
930.372	11573
930.477	11376
930.581	11573
930.685	11391
930.79	11330
930.894	11261
930.998	11273
931.103	11322
931.207	10942
931.311	10987
931.415	10793
931.519	10664
931.623	10675
