Data from test_V78500241_200.txt Node
Date: Fri Mar 25 15:11:15 CST 2022
User: usil
Spectrometer: V785-0024
Trigger mode: 0
Integration Time (sec): 4.000000E-1
Scans to average: 1
Nonlinearity correction enabled: false
Boxcar width: 0
Storing dark spectrum: false
XAxis mode: Wavelengths
Number of Pixels in Spectrum: 1024
>>>>>Begin Spectral Data<<<<<
801.071	27941
801.214	27884
801.356	27572
801.499	27633
801.641	27485
801.783	27580
801.926	27504
802.068	27450
802.211	27344
802.353	27306
802.496	27104
802.638	27051
802.78	27169
802.923	26963
803.065	26994
803.208	27066
803.35	27062
803.492	27062
803.635	27192
803.777	27142
803.919	27245
804.061	27530
804.204	27062
804.346	27138
804.488	27226
804.63	27085
804.773	27020
804.915	27039
805.057	27123
805.199	27085
805.341	27195
805.483	27245
805.626	27180
805.768	27222
805.91	27310
806.052	27332
806.194	27283
806.336	27435
806.478	27268
806.62	27127
806.762	27344
806.904	27595
807.046	27652
807.188	27587
807.33	27538
807.472	27728
807.614	27572
807.756	27542
807.898	27473
808.04	27252
808.182	27458
808.324	27477
808.465	27469
808.607	27644
808.749	27831
808.891	28086
809.033	27903
809.174	27876
809.316	27770
809.458	27739
809.6	27781
809.741	27892
809.883	27884
810.025	28124
810.166	28070
810.308	28109
810.45	28013
810.591	28067
810.733	27797
810.875	27762
811.016	27511
811.158	27717
811.299	27869
811.441	28055
811.582	27804
811.724	27869
811.865	27808
812.007	27762
812.148	27793
812.29	27705
812.431	27926
812.573	28048
812.714	28086
812.855	28215
812.997	28356
813.138	28447
813.279	28405
813.421	28265
813.562	28238
813.703	28063
813.845	27861
813.986	27622
814.127	27587
814.268	27420
814.41	27378
814.551	27435
814.692	27462
814.833	27294
814.974	27332
815.115	27344
815.256	27188
815.397	26971
815.539	27154
815.68	27222
815.821	27077
815.962	27192
816.103	27058
816.244	27036
816.385	26910
816.526	26758
816.666	26697
816.807	26571
816.948	26804
817.089	26754
817.23	26609
817.371	26453
817.512	26648
817.653	26571
817.793	26530
817.934	26590
818.075	26514
818.216	26549
818.356	26571
818.497	26438
818.638	26400
818.778	26168
818.919	26298
819.06	26161
819.2	26377
819.341	26343
819.481	26488
819.622	26701
819.762	26758
819.903	26773
820.043	26632
820.184	26514
820.324	26545
820.465	26579
820.605	26530
820.746	26476
820.886	26313
821.026	26602
821.167	26404
821.307	26587
821.447	26533
821.588	26389
821.728	26187
821.868	26153
822.008	26016
822.149	25803
822.289	25936
822.429	25723
822.569	25780
822.709	25540
822.849	25335
822.99	25327
823.13	25438
823.27	25293
823.41	25247
823.55	25114
823.69	25221
823.83	25297
823.97	25221
824.11	24970
824.25	24996
824.389	24977
824.529	24989
824.669	25046
824.809	25148
824.949	25152
825.089	25000
825.228	25118
825.368	24886
825.508	24973
825.648	24817
825.787	24928
825.927	24890
826.067	24859
826.206	24905
826.346	24776
826.485	24837
826.625	24871
826.765	24802
826.904	24924
827.044	24703
827.183	24547
827.323	24521
827.462	24578
827.601	24540
827.741	24490
827.88	24517
828.02	24452
828.159	24471
828.298	24528
828.437	24540
828.577	24407
828.716	24639
828.855	24372
828.994	24346
829.134	24330
829.273	24334
829.412	24209
829.551	24091
829.69	24266
829.829	24197
829.968	24197
830.107	24304
830.246	24270
830.385	24228
830.524	24079
830.663	23980
830.802	23882
830.941	23775
831.08	23748
831.219	23874
831.357	23866
831.496	23942
831.635	23703
831.774	23714
831.913	23627
832.051	23581
832.19	23630
832.329	23566
832.467	23528
832.606	23425
832.744	23383
832.883	23452
833.022	23395
833.16	23459
833.299	23436
833.437	23433
833.576	23539
833.714	23619
833.852	23501
833.991	23573
834.129	23661
834.267	23600
834.406	23345
834.544	23482
834.682	23334
834.821	23455
834.959	23707
835.097	23337
835.235	23459
835.373	23459
835.511	23547
835.65	23345
835.788	23292
835.926	23117
836.064	23029
836.202	23121
836.34	23250
836.478	23387
836.615	23231
836.753	23181
836.891	23402
837.029	23345
837.167	23178
837.305	23265
837.443	23299
837.58	23052
837.718	23261
837.856	23220
837.993	23060
838.131	23178
838.269	23025
838.406	23018
838.544	22908
838.681	22767
838.819	22801
838.956	22592
839.094	22618
839.231	22683
839.369	22656
839.506	23010
839.643	22725
839.781	22535
839.918	22474
840.055	22516
840.193	22649
840.33	22413
840.467	22565
840.604	22500
840.742	22721
840.879	22352
841.016	22436
841.153	22375
841.29	22653
841.427	22424
841.564	22504
841.701	22428
841.838	22443
841.975	22413
842.112	22432
842.249	22257
842.385	22253
842.522	22382
842.659	22325
842.796	22306
842.933	22207
843.069	22139
843.206	22204
843.343	22363
843.479	22150
843.616	22276
843.752	22074
843.889	22010
844.025	22143
844.162	21941
844.298	22150
844.435	21945
844.571	21869
844.708	22044
844.844	22086
844.98	22090
845.117	22044
845.253	21968
845.389	21827
845.525	21915
845.661	21930
845.798	21610
845.934	21759
846.07	21732
846.206	21759
846.342	21827
846.478	21698
846.614	21458
846.75	21431
846.886	21485
847.022	21496
847.158	21534
847.294	21351
847.429	21405
847.565	21428
847.701	21603
847.837	21165
847.972	21176
848.108	21195
848.244	21188
848.379	20975
848.515	21001
848.65	21058
848.786	20986
848.921	21058
849.057	21081
849.192	21093
849.328	21032
849.463	21024
849.598	20963
849.734	20861
849.869	20880
850.004	20701
850.14	20823
850.275	20773
850.41	20621
850.545	20689
850.68	20800
850.815	20792
850.95	20701
851.085	20739
851.22	20720
851.355	20785
851.49	20648
851.625	20663
851.76	20769
851.895	20670
852.03	20522
852.165	20720
852.299	20693
852.434	20838
852.569	20773
852.703	20754
852.838	20800
852.973	20883
853.107	20853
853.242	20590
853.376	20598
853.511	20461
853.645	20484
853.78	20682
853.914	20598
854.048	20514
854.183	20484
854.317	20533
854.451	20670
854.585	20495
854.72	20476
854.854	20552
854.988	20503
855.122	20480
855.256	20328
855.39	20492
855.524	20579
855.658	20488
855.792	20560
855.926	20602
856.06	20476
856.194	20667
856.327	20552
856.461	20480
856.595	20495
856.729	20533
856.862	20648
856.996	20560
857.13	20625
857.263	20746
857.397	20549
857.53	20454
857.664	20606
857.797	20663
857.931	20575
858.064	20613
858.197	20575
858.331	20621
858.464	20457
858.597	20446
858.731	20511
858.864	20480
858.997	20461
859.13	20442
859.263	20419
859.396	20648
859.529	20355
859.662	20461
859.795	20454
859.928	20568
860.061	20670
860.194	20708
860.327	20571
860.46	20484
860.592	20431
860.725	20682
860.858	20476
860.99	20434
861.123	20495
861.256	20374
861.388	20575
861.521	21310
861.653	20324
861.786	20393
861.918	20484
862.05	20484
862.183	20476
862.315	20537
862.447	20606
862.58	20427
862.712	20221
862.844	20221
862.976	20252
863.108	20370
863.24	20682
863.372	20183
863.504	20206
863.636	20225
863.768	20206
863.9	20084
864.032	20058
864.164	20172
864.296	20199
864.428	20374
864.559	20271
864.691	20271
864.823	20317
864.954	20062
865.086	20396
865.217	20126
865.349	19989
865.48	20077
865.612	20062
865.743	20168
865.875	20206
866.006	20065
866.137	20161
866.269	20054
866.4	20107
866.531	20103
866.662	19986
866.793	20062
866.924	20039
867.055	20050
867.186	20043
867.317	20073
867.448	19860
867.579	20039
867.71	20027
867.841	19947
867.972	19997
868.103	20046
868.233	20096
868.364	20130
868.495	20069
868.625	20271
868.756	20442
868.886	20191
869.017	20282
869.147	20374
869.278	20298
869.408	20290
869.539	20157
869.669	20332
869.799	20301
869.929	20396
870.06	20400
870.19	20423
870.32	20575
870.45	20621
870.58	20739
870.71	20792
870.84	20746
870.97	20651
871.1	20663
871.23	20815
871.36	20785
871.489	20758
871.619	20838
871.749	20842
871.879	20838
872.008	20921
872.138	20864
872.267	20880
872.397	20750
872.526	20701
872.656	20773
872.785	20727
872.915	20857
873.044	20895
873.173	20830
873.303	20971
873.432	20880
873.561	20952
873.69	20842
873.819	20895
873.948	21047
874.077	20914
874.206	20880
874.335	20872
874.464	21077
874.593	21241
874.722	21104
874.851	21142
874.979	21176
875.108	21252
875.237	21135
875.365	21100
875.494	21036
875.623	21226
875.751	21055
875.88	21192
876.008	21317
876.136	21256
876.265	21557
876.393	21675
876.521	21583
876.65	21622
876.778	21667
876.906	21561
877.034	21424
877.162	21549
877.29	21462
877.418	21599
877.546	21618
877.674	21557
877.802	21591
877.93	21538
878.058	21412
878.185	21348
878.313	21458
878.441	21443
878.568	21310
878.696	21504
878.824	21348
878.951	21610
879.079	21701
879.206	21762
879.333	21682
879.461	21553
879.588	21606
879.715	21713
879.842	21770
879.97	21519
880.097	21325
880.224	21264
880.351	21283
880.478	21374
880.605	21287
880.732	21230
880.859	21603
880.986	21367
881.112	21389
881.239	21233
881.366	21173
881.493	20971
881.619	20864
881.746	20872
881.872	20960
881.999	20910
882.125	20834
882.252	20975
882.378	20902
882.505	21024
882.631	20762
882.757	20636
882.883	20777
883.01	20686
883.136	20609
883.262	20598
883.388	20404
883.514	20598
883.64	20644
883.766	20587
883.892	20503
884.018	20545
884.143	20579
884.269	20636
884.395	20336
884.52	20282
884.646	20351
884.772	20259
884.897	20187
885.023	20400
885.148	20431
885.274	20522
885.399	20412
885.524	20298
885.65	20351
885.775	20267
885.9	20195
886.025	20317
886.15	20419
886.275	20164
886.4	20134
886.525	20240
886.65	20168
886.775	20252
886.9	20412
887.025	20533
887.149	20328
887.274	20092
887.399	20031
887.523	20050
887.648	20027
887.773	20062
887.897	20221
888.021	20008
888.146	20115
888.27	20218
888.395	20138
888.519	20039
888.643	20122
888.767	20187
888.891	19947
889.015	19978
889.139	19921
889.263	19826
889.387	19940
889.511	20157
889.635	20077
889.759	19978
889.883	19746
890.006	19738
890.13	19913
890.254	19670
890.377	19849
890.501	19601
890.624	19635
890.748	19597
890.871	19605
890.995	19620
891.118	19365
891.241	19422
891.364	19499
891.488	19521
891.611	19537
891.734	19407
891.857	19514
891.98	19381
892.103	19597
892.226	19529
892.349	19365
892.471	19259
892.594	19434
892.717	19464
892.839	19407
892.962	19430
893.085	19289
893.207	19346
893.33	19304
893.452	19335
893.575	19441
893.697	19244
893.819	19499
893.941	19540
894.064	19518
894.186	19358
894.308	19320
894.43	19384
894.552	19597
894.674	19468
894.796	19324
894.918	19407
895.04	19396
895.161	19403
895.283	19468
895.405	19255
895.526	19392
895.648	19381
895.769	19445
895.891	19449
896.012	19552
896.134	19426
896.255	19358
896.376	19411
896.498	19415
896.619	19407
896.74	19396
896.861	19445
896.982	19753
897.103	19856
897.224	19715
897.345	19658
897.466	19575
897.587	19723
897.708	19689
897.828	19552
897.949	19670
898.07	19635
898.19	19544
898.311	19791
898.431	19559
898.552	19609
898.672	19620
898.792	19693
898.913	19685
899.033	19392
899.153	19396
899.273	19259
899.393	19335
899.513	19343
899.633	19335
899.753	19407
899.873	19293
899.993	19327
900.113	19259
900.232	19373
900.352	19308
900.472	19183
900.591	19179
900.711	19346
900.83	19198
900.95	19232
901.069	19362
901.189	19069
901.308	18875
901.427	18749
901.546	18798
901.665	18741
901.784	18757
901.904	18631
902.023	18563
902.141	18403
902.26	18308
902.379	18350
902.498	18315
902.617	18186
902.735	18216
902.854	18091
902.973	18125
903.091	17893
903.21	17988
903.328	17843
903.446	17843
903.565	17737
903.683	17821
903.801	17642
903.919	17726
904.038	17691
904.156	17528
904.274	17665
904.392	17383
904.51	17467
904.627	17497
904.745	17585
904.863	17535
904.981	17360
905.098	17128
905.216	17159
905.334	17246
905.451	17185
905.569	17147
905.686	17132
905.803	17178
905.921	17010
906.038	17128
906.155	16968
906.272	16877
906.389	16949
906.506	16771
906.623	16835
906.74	16736
906.857	16573
906.974	16622
907.091	16850
907.208	16710
907.324	16793
907.441	16584
907.557	16466
907.674	16341
907.79	16306
907.907	16371
908.023	16485
908.139	16428
908.256	16341
908.372	16306
908.488	16158
908.604	16223
908.72	16154
908.836	16147
908.952	16154
909.068	16150
909.184	16234
909.3	16040
909.415	16124
909.531	16109
909.647	15865
909.762	15831
909.878	15679
909.993	15800
910.108	15831
910.224	15766
910.339	15816
910.454	15781
910.57	15690
910.685	15584
910.8	15808
910.915	15785
911.03	15576
911.145	15488
911.259	15325
911.374	15462
911.489	15386
911.604	15317
911.718	15317
911.833	15188
911.947	15055
912.062	14986
912.176	15123
912.291	15165
912.405	15058
912.519	15389
912.633	15382
912.748	15207
912.862	15157
912.976	14963
913.09	14883
913.204	14979
913.318	15005
913.431	15070
913.545	15074
913.659	15043
913.772	14941
913.886	14864
914	14815
914.113	14819
914.226	14902
914.34	14918
914.453	14594
914.566	14743
914.68	14708
914.793	14648
914.906	14560
915.019	14518
915.132	14423
915.245	14336
915.358	14579
915.47	14457
915.583	14412
915.696	14499
915.809	14530
915.921	14564
916.034	14343
916.146	14343
916.259	14286
916.371	14438
916.483	14320
916.595	14294
916.708	14218
916.82	14282
916.932	14309
917.044	14301
917.156	14176
917.268	14069
917.38	14176
917.491	14088
917.603	14069
917.715	14183
917.826	14172
917.938	14077
918.049	13978
918.161	14103
918.272	14176
918.384	14187
918.495	14081
918.606	13909
918.717	13814
918.828	13967
918.939	13906
919.05	13780
919.161	13826
919.272	13712
919.383	13734
919.494	13959
919.604	14062
919.715	13841
919.826	13681
919.936	13894
920.047	13936
920.157	13856
920.267	14001
920.378	13852
920.488	13731
920.598	14050
920.708	14191
920.818	14027
920.928	13940
921.038	14088
921.148	14016
921.258	13746
921.368	13761
921.477	13628
921.587	13632
921.697	13434
921.806	13594
921.916	13400
922.025	13308
922.134	13285
922.244	13263
922.353	13236
922.462	13118
922.571	13023
922.68	12901
922.789	12859
922.898	12878
923.007	12779
923.116	12806
923.224	12909
923.333	12837
923.442	12791
923.55	12738
923.659	12726
923.767	12749
923.876	12669
923.984	12707
924.092	12646
924.201	12741
924.309	12616
924.417	12578
924.525	12585
924.633	12582
924.741	13411
924.849	12429
924.956	12509
925.064	12365
925.172	12281
925.279	12296
925.387	12441
925.494	12334
925.602	12376
925.709	12353
925.816	12216
925.924	12175
926.031	12429
926.138	12289
926.245	12357
926.352	12266
926.459	12334
926.566	12441
926.673	12235
926.779	12140
926.886	12148
926.993	11855
927.099	11992
927.206	11859
927.312	11912
927.419	11920
927.525	11996
927.631	11927
927.737	11840
927.843	11710
927.95	11668
928.056	11729
928.162	11840
928.267	11851
928.373	12262
928.479	11824
928.585	11672
928.69	11707
928.796	11729
928.901	11551
929.007	11452
929.112	11596
929.218	11581
929.323	11512
929.428	11471
929.533	11539
929.638	11410
929.743	11516
929.848	11444
929.953	11402
930.058	11356
930.163	11212
930.267	11231
930.372	11288
930.477	11147
930.581	11337
930.685	11318
930.79	11105
930.894	11094
930.998	11003
931.103	11090
931.207	10904
931.311	10748
931.415	10672
931.519	10462
931.623	10390
