Data from test_V78500241_2151.txt Node
Date: Fri Mar 25 15:24:50 CST 2022
User: usil
Spectrometer: V785-0024
Trigger mode: 0
Integration Time (sec): 4.000000E-1
Scans to average: 1
Nonlinearity correction enabled: false
Boxcar width: 0
Storing dark spectrum: false
XAxis mode: Wavelengths
Number of Pixels in Spectrum: 1024
>>>>>Begin Spectral Data<<<<<
801.071	27698
801.214	27610
801.356	27317
801.499	27374
801.641	27222
801.783	27123
801.926	27222
802.068	27176
802.211	27047
802.353	27047
802.496	26849
802.638	26880
802.78	26815
802.923	26682
803.065	26739
803.208	26743
803.35	26819
803.492	26899
803.635	27062
803.777	26872
803.919	26952
804.061	27340
804.204	27081
804.346	26929
804.488	26990
804.63	27024
804.773	26906
804.915	26910
805.057	26994
805.199	26944
805.341	26963
805.483	27116
805.626	27104
805.768	27093
805.91	27077
806.052	27127
806.194	27070
806.336	27287
806.478	27119
806.62	27218
806.762	27218
806.904	27351
807.046	27694
807.188	27450
807.33	27526
807.472	27736
807.614	27477
807.756	27481
807.898	27325
808.04	27408
808.182	27393
808.324	27287
808.465	27408
808.607	27580
808.749	27774
808.891	27770
809.033	27880
809.174	27778
809.316	27736
809.458	27854
809.6	27720
809.741	27759
809.883	27918
810.025	28105
810.166	28017
810.308	28048
810.45	27956
810.591	27922
810.733	27667
810.875	27603
811.016	27774
811.158	27663
811.299	27861
811.441	27781
811.582	27838
811.724	27770
811.865	27724
812.007	27641
812.148	27747
812.29	27831
812.431	27960
812.573	28063
812.714	28143
812.855	28253
812.997	28367
813.138	28474
813.279	28401
813.421	28265
813.562	28268
813.703	28261
813.845	27850
813.986	27660
814.127	27523
814.268	27561
814.41	27515
814.551	27382
814.692	27374
814.833	27416
814.974	27393
815.115	27469
815.256	27302
815.397	27260
815.539	27427
815.68	27279
815.821	27180
815.962	27150
816.103	27142
816.244	27150
816.385	26906
816.526	27024
816.666	26735
816.807	26697
816.948	26701
817.089	26762
817.23	26743
817.371	26663
817.512	26655
817.653	26663
817.793	26545
817.934	26670
818.075	26765
818.216	26758
818.356	26686
818.497	26549
818.638	26427
818.778	26317
818.919	26480
819.06	26476
819.2	26625
819.341	26727
819.481	26613
819.622	26777
819.762	26975
819.903	26971
820.043	26929
820.184	26773
820.324	26735
820.465	26849
820.605	26876
820.746	26701
820.886	26731
821.026	26804
821.167	26796
821.307	26842
821.447	26750
821.588	26530
821.728	26480
821.868	26328
822.008	26199
822.149	26195
822.289	26077
822.429	25803
822.569	25833
822.709	25734
822.849	25495
822.99	25765
823.13	25556
823.27	25495
823.41	25434
823.55	25396
823.69	25396
823.83	25521
823.97	25396
824.11	25251
824.25	25168
824.389	25339
824.529	25335
824.669	25289
824.809	25434
824.949	25350
825.089	25384
825.228	25346
825.368	25160
825.508	25110
825.648	25244
825.787	25103
825.927	25308
826.067	25042
826.206	25225
826.346	25137
826.485	25175
826.625	25183
826.765	25156
826.904	25152
827.044	24920
827.183	24962
827.323	24768
827.462	24954
827.601	24840
827.741	24871
827.88	24985
828.02	24570
828.159	24768
828.298	24829
828.437	24867
828.577	24707
828.716	24935
828.855	24681
828.994	24612
829.134	24593
829.273	24532
829.412	24528
829.551	24544
829.69	24563
829.829	24639
829.968	24547
830.107	24612
830.246	24502
830.385	24426
830.524	24376
830.663	24270
830.802	24235
830.941	24167
831.08	24072
831.219	24216
831.357	24186
831.496	24292
831.635	24041
831.774	24194
831.913	24030
832.051	23840
832.19	23908
832.329	23996
832.467	23836
832.606	23718
832.744	23851
832.883	23805
833.022	23760
833.16	23920
833.299	23836
833.437	23828
833.576	23920
833.714	23920
833.852	23973
833.991	23923
834.129	23999
834.267	23946
834.406	23920
834.544	24026
834.682	23946
834.821	23672
834.959	24011
835.097	23855
835.235	23885
835.373	23954
835.511	23794
835.65	23756
835.788	23752
835.926	23592
836.064	23577
836.202	23524
836.34	23638
836.478	23893
836.615	23802
836.753	23756
836.891	23737
837.029	23627
837.167	23687
837.305	23524
837.443	23665
837.58	23471
837.718	23707
837.856	23718
837.993	23490
838.131	23436
838.269	23471
838.406	23478
838.544	23387
838.681	23235
838.819	23303
838.956	22957
839.094	22953
839.231	23273
839.369	23356
839.506	23341
839.643	23231
839.781	23124
839.918	23064
840.055	22961
840.193	23037
840.33	23064
840.467	22877
840.604	22961
840.742	23197
840.879	22771
841.016	22930
841.153	22744
841.29	23022
841.427	22824
841.564	22976
841.701	22881
841.838	22984
841.975	22881
842.112	22820
842.249	22786
842.385	22577
842.522	22889
842.659	22706
842.796	22660
842.933	22706
843.069	22565
843.206	22668
843.343	22812
843.479	22767
843.616	22752
843.752	22527
843.889	22413
844.025	22561
844.162	22405
844.298	22443
844.435	22516
844.571	22527
844.708	22478
844.844	22691
844.98	22634
845.117	22459
845.253	22531
845.389	22284
845.525	22329
845.661	22299
845.798	22188
845.934	22268
846.07	22147
846.206	22238
846.342	22421
846.478	22162
846.614	22105
846.75	21884
846.886	21873
847.022	22063
847.158	21979
847.294	22025
847.429	22051
847.565	21781
847.701	22173
847.837	21675
847.972	21538
848.108	21762
848.244	21743
848.379	21515
848.515	21496
848.65	21595
848.786	21428
848.921	21485
849.057	21599
849.192	21583
849.328	21530
849.463	21667
849.598	21412
849.734	21435
849.869	21405
850.004	21329
850.14	21329
850.275	21408
850.41	21275
850.545	21214
850.68	21142
850.815	21348
850.95	21279
851.085	21386
851.22	21252
851.355	21321
851.49	21283
851.625	21386
851.76	21355
851.895	21230
852.03	21195
852.165	21340
852.299	21348
852.434	21348
852.569	21344
852.703	21321
852.838	21412
852.973	21363
853.107	21488
853.242	21165
853.376	21142
853.511	21142
853.645	21123
853.78	21218
853.914	21176
854.048	21024
854.183	21161
854.317	21047
854.451	21351
854.585	21195
854.72	21062
854.854	21150
854.988	20990
855.122	21214
855.256	21066
855.39	21039
855.524	21154
855.658	21119
855.792	21184
855.926	21180
856.06	21100
856.194	21233
856.327	21062
856.461	21062
856.595	21028
856.729	21055
856.862	21199
856.996	21093
857.13	21245
857.263	21230
857.397	21226
857.53	21096
857.664	21036
857.797	21131
857.931	21184
858.064	21188
858.197	21272
858.331	21142
858.464	20895
858.597	20967
858.731	21081
858.864	21127
858.997	21043
859.13	21089
859.263	21116
859.396	21199
859.529	20986
859.662	21116
859.795	21150
859.928	21028
860.061	21211
860.194	21241
860.327	21252
860.46	21051
860.592	21367
860.725	21245
860.858	21287
860.99	21112
861.123	21013
861.256	20994
861.388	21062
861.521	21781
861.653	20986
861.786	20944
861.918	20815
862.05	20963
862.183	21116
862.315	21089
862.447	21260
862.58	21005
862.712	20739
862.844	20830
862.976	20929
863.108	20971
863.24	21325
863.372	20735
863.504	20853
863.636	20883
863.768	20838
863.9	20781
864.032	20872
864.164	20773
864.296	20880
864.428	20868
864.559	20773
864.691	20944
864.823	20815
864.954	20796
865.086	20796
865.217	20678
865.349	20640
865.48	20769
865.612	20868
865.743	20868
865.875	20823
866.006	20537
866.137	20617
866.269	20670
866.4	20655
866.531	20617
866.662	20602
866.793	20632
866.924	20640
867.055	20640
867.186	20632
867.317	20560
867.448	20629
867.579	20739
867.71	20552
867.841	20575
867.972	20640
868.103	20716
868.233	20560
868.364	20670
868.495	20701
868.625	20849
868.756	21074
868.886	20967
869.017	20853
869.147	20963
869.278	21017
869.408	20868
869.539	20838
869.669	21001
869.799	20891
869.929	21058
870.06	21043
870.19	21192
870.32	21230
870.45	21173
870.58	21287
870.71	21382
870.84	21294
870.97	21256
871.1	21241
871.23	21439
871.36	21553
871.489	21405
871.619	21439
871.749	21568
871.879	21583
872.008	21625
872.138	21523
872.267	21504
872.397	21420
872.526	21203
872.656	21321
872.785	21340
872.915	21420
873.044	21603
873.173	21610
873.303	21481
873.432	21622
873.561	21553
873.69	21545
873.819	21526
873.948	21511
874.077	21485
874.206	21462
874.335	21473
874.464	21663
874.593	21789
874.722	21644
874.851	21751
874.979	21759
875.108	21842
875.237	21648
875.365	21542
875.494	21656
875.623	21816
875.751	21679
875.88	21759
876.008	21831
876.136	21895
876.265	22006
876.393	22253
876.521	22192
876.65	22257
876.778	22074
876.906	22143
877.034	22131
877.162	22215
877.29	22109
877.418	22070
877.546	22135
877.674	21895
877.802	22074
877.93	22154
878.058	22070
878.185	21964
878.313	22059
878.441	22090
878.568	21816
878.696	21972
878.824	22169
878.951	22093
879.079	22314
879.206	22421
879.333	22196
879.461	22067
879.588	22196
879.715	22322
879.842	22287
879.97	22158
880.097	21831
880.224	21899
880.351	22006
880.478	21880
880.605	21968
880.732	21934
880.859	22025
880.986	21895
881.112	21918
881.239	21781
881.366	21641
881.493	21542
881.619	21534
881.746	21492
881.872	21534
881.999	21519
882.125	21485
882.252	21504
882.378	21443
882.505	21595
882.631	21321
882.757	21211
882.883	21245
883.01	21211
883.136	21047
883.262	21009
883.388	21013
883.514	21180
883.64	21272
883.766	21093
883.892	20948
884.018	21005
884.143	21096
884.269	21188
884.395	20853
884.52	20967
884.646	20914
884.772	20857
884.897	20716
885.023	20758
885.148	20880
885.274	20921
885.399	20960
885.524	20811
885.65	20724
885.775	20819
885.9	20815
886.025	20948
886.15	20819
886.275	20849
886.4	20781
886.525	20716
886.65	20625
886.775	20724
886.9	20990
887.025	21001
887.149	20849
887.274	20663
887.399	20716
887.523	20667
887.648	20518
887.773	20465
887.897	20735
888.021	20735
888.146	20526
888.27	20739
888.395	20651
888.519	20720
888.643	20655
888.767	20606
888.891	20636
889.015	20511
889.139	20427
889.263	20408
889.387	20518
889.511	20655
889.635	20621
889.759	20381
889.883	20415
890.006	20320
890.13	20480
890.254	20336
890.377	20320
890.501	20221
890.624	20168
890.748	20240
890.871	20100
890.995	20069
891.118	19993
891.241	20050
891.364	20016
891.488	20157
891.611	19982
891.734	20027
891.857	20012
891.98	20103
892.103	19970
892.226	19955
892.349	19955
892.471	19738
892.594	19940
892.717	19746
892.839	19902
892.962	19925
893.085	19959
893.207	19868
893.33	19822
893.452	19841
893.575	19909
893.697	19921
893.819	20138
893.941	20111
894.064	20024
894.186	19822
894.308	19769
894.43	19936
894.552	20092
894.674	19928
894.796	19887
894.918	19883
895.04	19883
895.161	20020
895.283	19947
895.405	19795
895.526	19906
895.648	19928
895.769	19868
895.891	19845
896.012	20115
896.134	19845
896.255	19947
896.376	19833
896.498	19947
896.619	19890
896.74	19921
896.861	19978
896.982	20290
897.103	20267
897.224	20248
897.345	20122
897.466	20005
897.587	19959
897.708	20275
897.828	20122
897.949	20073
898.07	19860
898.19	20088
898.311	20111
898.431	20058
898.552	20126
898.672	20142
898.792	20069
898.913	20180
899.033	20043
899.153	19928
899.273	19932
899.393	19852
899.513	19833
899.633	19830
899.753	19967
899.873	19803
899.993	19837
900.113	19753
900.232	19784
900.352	19765
900.472	19772
900.591	19575
900.711	19674
900.83	19586
900.95	19814
901.069	19837
901.189	19613
901.308	19255
901.427	19247
901.546	19259
901.665	19354
901.784	19266
901.904	19072
902.023	19198
902.141	18856
902.26	18779
902.379	18882
902.498	18768
902.617	18772
902.735	18753
902.854	18711
902.973	18639
903.091	18353
903.21	18380
903.328	18429
903.446	18410
903.565	18399
903.683	18247
903.801	18087
903.919	18098
904.038	18152
904.156	18060
904.274	18194
904.392	17950
904.51	18015
904.627	18053
904.745	18064
904.863	18114
904.981	17843
905.098	17726
905.216	17722
905.334	17729
905.451	17718
905.569	17623
905.686	17672
905.803	17619
905.921	17501
906.038	17528
906.155	17551
906.272	17398
906.389	17478
906.506	17242
906.623	17223
906.74	17212
906.857	17178
906.974	17117
907.091	17311
907.208	17284
907.324	17220
907.441	17136
907.557	16946
907.674	16934
907.79	16972
907.907	16869
908.023	16976
908.139	16843
908.256	16911
908.372	16885
908.488	16755
908.604	16634
908.72	16630
908.836	16592
908.952	16618
909.068	16694
909.184	16843
909.3	16675
909.415	16622
909.531	16603
909.647	16405
909.762	16478
909.878	16421
909.993	16402
910.108	16363
910.224	16261
910.339	16310
910.454	16280
910.57	16139
910.685	16120
910.8	16500
910.915	16371
911.03	16112
911.145	15987
911.259	15842
911.374	15918
911.489	15797
911.604	15873
911.718	15778
911.833	15633
911.947	15564
912.062	15500
912.176	15682
912.291	15724
912.405	15660
912.519	15903
912.633	15797
912.748	15622
912.862	15671
912.976	15625
913.09	15325
913.204	15466
913.318	15530
913.431	15671
913.545	15568
913.659	15580
913.772	15473
913.886	15389
914	15272
914.113	15393
914.226	15424
914.34	15344
914.453	15279
914.566	15386
914.68	15237
914.793	15188
914.906	15028
915.019	14948
915.132	14899
915.245	14914
915.358	14998
915.47	14849
915.583	14986
915.696	14944
915.809	15074
915.921	15085
916.034	14811
916.146	14792
916.259	14849
916.371	14948
916.483	14819
916.595	14857
916.708	14830
916.82	14762
916.932	14663
917.044	14663
917.156	14697
917.268	14629
917.38	14545
917.491	14514
917.603	14583
917.715	14587
917.826	14739
917.938	14507
918.049	14343
918.161	14575
918.272	14613
918.384	14667
918.495	14492
918.606	14320
918.717	14271
918.828	14400
918.939	14400
919.05	14256
919.161	14271
919.272	14134
919.383	14218
919.494	14332
919.604	14564
919.715	14252
919.826	14294
919.936	14263
920.047	14275
920.157	14252
920.267	14552
920.378	14286
920.488	14244
920.598	14507
920.708	14651
920.818	14450
920.928	14514
921.038	14632
921.148	14568
921.258	14301
921.368	14210
921.477	14081
921.587	14081
921.697	13959
921.806	13993
921.916	13856
922.025	13845
922.134	13689
922.244	13704
922.353	13772
922.462	13533
922.571	13472
922.68	13434
922.789	13403
922.898	13381
923.007	13327
923.116	13396
923.224	13377
923.333	13324
923.442	13179
923.55	13240
923.659	13179
923.767	13278
923.876	13129
923.984	13225
924.092	13053
924.201	13114
924.309	13099
924.417	13160
924.525	13050
924.633	13019
924.741	13765
924.849	12863
924.956	12935
925.064	12738
925.172	12696
925.279	12738
925.387	12829
925.494	12856
925.602	12909
925.709	12760
925.816	12681
925.924	12787
926.031	12856
926.138	12783
926.245	12795
926.352	12654
926.459	12764
926.566	12814
926.673	12612
926.779	12555
926.886	12517
926.993	12369
927.099	12441
927.206	12350
927.312	12201
927.419	12532
927.525	12380
927.631	12334
927.737	12277
927.843	12209
927.95	12171
928.056	12163
928.162	12273
928.267	12224
928.373	12814
928.479	12270
928.585	11984
928.69	12095
928.796	12224
928.901	12049
929.007	11939
929.112	12091
929.218	12057
929.323	11897
929.428	11859
929.533	12057
929.638	11843
929.743	11882
929.848	11878
929.953	11798
930.058	11767
930.163	11608
930.267	11688
930.372	11771
930.477	11516
930.581	11866
930.685	11676
930.79	11532
930.894	11501
930.998	11387
931.103	11714
931.207	11227
931.311	11151
931.415	11064
931.519	10866
931.623	10850
