Data from test_V78500241_3322.txt Node
Date: Fri Mar 25 15:32:59 CST 2022
User: usil
Spectrometer: V785-0024
Trigger mode: 0
Integration Time (sec): 4.000000E-1
Scans to average: 1
Nonlinearity correction enabled: false
Boxcar width: 0
Storing dark spectrum: false
XAxis mode: Wavelengths
Number of Pixels in Spectrum: 1024
>>>>>Begin Spectral Data<<<<<
801.071	27374
801.214	27268
801.356	27043
801.499	27047
801.641	26895
801.783	26998
801.926	27207
802.068	26880
802.211	26921
802.353	26708
802.496	26587
802.638	26621
802.78	26602
802.923	26465
803.065	26313
803.208	26465
803.35	26606
803.492	26594
803.635	26583
803.777	26636
803.919	26678
804.061	26868
804.204	26754
804.346	26545
804.488	26594
804.63	26579
804.773	26659
804.915	26602
805.057	26739
805.199	26739
805.341	26800
805.483	26785
805.626	26762
805.768	26670
805.91	26800
806.052	26914
806.194	26762
806.336	26849
806.478	26754
806.62	26887
806.762	26807
806.904	27028
807.046	27089
807.188	27074
807.33	27089
807.472	27211
807.614	27199
807.756	27093
807.898	27112
808.04	27058
808.182	26899
808.324	27020
808.465	26971
808.607	27401
808.749	27447
808.891	27458
809.033	27568
809.174	27420
809.316	27450
809.458	27382
809.6	27363
809.741	27431
809.883	27542
810.025	27603
810.166	27732
810.308	27534
810.45	27564
810.591	27538
810.733	27393
810.875	27173
811.016	27313
811.158	27245
811.299	27504
811.441	27458
811.582	27591
811.724	27408
811.865	27321
812.007	27359
812.148	27416
812.29	27332
812.431	27549
812.573	27762
812.714	27751
812.855	27846
812.997	27892
813.138	28192
813.279	27956
813.421	27884
813.562	27778
813.703	27652
813.845	27618
813.986	27150
814.127	27176
814.268	26944
814.41	27093
814.551	26998
814.692	27020
814.833	26967
814.974	26986
815.115	27138
815.256	26948
815.397	27066
815.539	26792
815.68	26811
815.821	26845
815.962	26899
816.103	26804
816.244	26549
816.385	26655
816.526	26579
816.666	26305
816.807	26298
816.948	26320
817.089	26438
817.23	26336
817.371	26290
817.512	26313
817.653	26202
817.793	26237
817.934	26248
818.075	26271
818.216	26358
818.356	26237
818.497	26248
818.638	26077
818.778	25997
818.919	26039
819.06	26088
819.2	26103
819.341	26286
819.481	26244
819.622	26336
819.762	26659
819.903	26663
820.043	26514
820.184	26381
820.324	26434
820.465	26511
820.605	26450
820.746	26446
820.886	26142
821.026	26332
821.167	26332
821.307	26358
821.447	26256
821.588	26168
821.728	26161
821.868	25921
822.008	25693
822.149	25868
822.289	25883
822.429	25438
822.569	25502
822.709	25537
822.849	25377
822.99	25335
823.13	25228
823.27	25282
823.41	25126
823.55	25095
823.69	25114
823.83	25012
823.97	25057
824.11	24875
824.25	24894
824.389	24985
824.529	24913
824.669	24768
824.809	25031
824.949	25038
825.089	25095
825.228	24905
825.368	24627
825.508	24825
825.648	24753
825.787	24810
825.927	24753
826.067	24707
826.206	24833
826.346	24856
826.485	24905
826.625	24795
826.765	25042
826.904	24738
827.044	24490
827.183	24479
827.323	24346
827.462	24612
827.601	24429
827.741	24513
827.88	24574
828.02	24338
828.159	24414
828.298	24544
828.437	24475
828.577	24479
828.716	24574
828.855	24399
828.994	24136
829.134	24136
829.273	24243
829.412	24182
829.551	24182
829.69	24171
829.829	24171
829.968	24300
830.107	24220
830.246	24133
830.385	24258
830.524	24117
830.663	23950
830.802	23859
830.941	23805
831.08	23741
831.219	24011
831.357	23828
831.496	24060
831.635	23855
831.774	23729
831.913	23809
832.051	23581
832.19	23684
832.329	23733
832.467	23429
832.606	23531
832.744	23425
832.883	23547
833.022	23509
833.16	23604
833.299	23539
833.437	23551
833.576	23558
833.714	23558
833.852	23539
833.991	23623
834.129	23661
834.267	23695
834.406	23619
834.544	23547
834.682	23661
834.821	23570
834.959	23779
835.097	23615
835.235	23604
835.373	23566
835.511	23493
835.65	23421
835.788	23425
835.926	23360
836.064	23307
836.202	23326
836.34	23528
836.478	23493
836.615	23482
836.753	23410
836.891	23554
837.029	23421
837.167	23318
837.305	23566
837.443	23307
837.58	23337
837.718	23216
837.856	23315
837.993	23299
838.131	23220
838.269	23212
838.406	23200
838.544	23086
838.681	22889
838.819	22881
838.956	22786
839.094	22752
839.231	22748
839.369	22949
839.506	23151
839.643	22972
839.781	22683
839.918	22828
840.055	22698
840.193	22733
840.33	22900
840.467	22733
840.604	22683
840.742	23117
840.879	22580
841.016	22630
841.153	22580
841.29	22759
841.427	22615
841.564	22740
841.701	22725
841.838	22691
841.975	22611
842.112	22691
842.249	22485
842.385	22367
842.522	22698
842.659	22557
842.796	22428
842.933	22565
843.069	22329
843.206	22432
843.343	22565
843.479	22512
843.616	22386
843.752	22219
843.889	22299
844.025	22504
844.162	22177
844.298	22348
844.435	22303
844.571	22226
844.708	22226
844.844	22402
844.98	22436
845.117	22325
845.253	22154
845.389	22128
845.525	22188
845.661	22029
845.798	21945
845.934	21991
846.07	22010
846.206	21926
846.342	22059
846.478	21945
846.614	21736
846.75	21595
846.886	21751
847.022	21686
847.158	21694
847.294	21854
847.429	21660
847.565	21701
847.701	21880
847.837	21477
847.972	21355
848.108	21618
848.244	21519
848.379	21397
848.515	21260
848.65	21165
848.786	21268
848.921	21466
849.057	21359
849.192	21363
849.328	21291
849.463	21321
849.598	21241
849.734	21123
849.869	21230
850.004	21001
850.14	21055
850.275	21169
850.41	20967
850.545	21112
850.68	20925
850.815	21081
850.95	21036
851.085	21180
851.22	21074
851.355	21062
851.49	21020
851.625	21047
851.76	21058
851.895	21017
852.03	20956
852.165	21077
852.299	20994
852.434	21112
852.569	21074
852.703	21123
852.838	21093
852.973	21222
853.107	21020
853.242	20921
853.376	20857
853.511	20864
853.645	20910
853.78	21005
853.914	20906
854.048	20807
854.183	20891
854.317	20975
854.451	21119
854.585	20864
854.72	20937
854.854	20967
854.988	20967
855.122	20979
855.256	20743
855.39	20849
855.524	21017
855.658	20933
855.792	20826
855.926	20956
856.06	20925
856.194	20941
856.327	20906
856.461	20921
856.595	20876
856.729	20990
856.862	20906
856.996	20944
857.13	20952
857.263	20925
857.397	20975
857.53	20830
857.664	20868
857.797	20948
857.931	21028
858.064	20864
858.197	20952
858.331	20876
858.464	20849
858.597	20746
858.731	20952
858.864	20842
858.997	20769
859.13	20941
859.263	20849
859.396	20963
859.529	20979
859.662	20834
859.795	20872
859.928	20819
860.061	21013
860.194	21085
860.327	21009
860.46	20975
860.592	21123
860.725	21070
860.858	20963
860.99	20834
861.123	20830
861.256	20941
861.388	20979
861.521	21496
861.653	20845
861.786	20651
861.918	20701
862.05	20765
862.183	20880
862.315	20876
862.447	20933
862.58	20727
862.712	20571
862.844	20640
862.976	20648
863.108	20602
863.24	21070
863.372	20571
863.504	20556
863.636	20606
863.768	20655
863.9	20640
864.032	20697
864.164	20549
864.296	20644
864.428	20682
864.559	20648
864.691	20644
864.823	20503
864.954	20583
865.086	20629
865.217	20571
865.349	20465
865.48	20499
865.612	20415
865.743	20564
865.875	20488
866.006	20541
866.137	20617
866.269	20549
866.4	20564
866.531	20423
866.662	20427
866.793	20549
866.924	20492
867.055	20385
867.186	20522
867.317	20309
867.448	20408
867.579	20427
867.71	20358
867.841	20381
867.972	20476
868.103	20400
868.233	20442
868.364	20339
868.495	20537
868.625	20701
868.756	20823
868.886	20579
869.017	20571
869.147	20765
869.278	20746
869.408	20674
869.539	20667
869.669	20743
869.799	20731
869.929	20765
870.06	20811
870.19	21032
870.32	20998
870.45	20921
870.58	20910
870.71	21230
870.84	21154
870.97	21070
871.1	21100
871.23	21329
871.36	21157
871.489	21256
871.619	21222
871.749	21256
871.879	21344
872.008	21332
872.138	21298
872.267	21325
872.397	21036
872.526	21074
872.656	21028
872.785	21211
872.915	21367
873.044	21298
873.173	21306
873.303	21340
873.432	21382
873.561	21431
873.69	21310
873.819	21275
873.948	21367
874.077	21329
874.206	21287
874.335	21298
874.464	21412
874.593	21580
874.722	21542
874.851	21663
874.979	21595
875.108	21492
875.237	21500
875.365	21306
875.494	21450
875.623	21675
875.751	21561
875.88	21587
876.008	21633
876.136	21831
876.265	22063
876.393	22074
876.521	22059
876.65	22029
876.778	22002
876.906	21781
877.034	21953
877.162	21895
877.29	21808
877.418	21876
877.546	21937
877.674	21873
877.802	21907
877.93	21926
878.058	21797
878.185	21789
878.313	21785
878.441	21857
878.568	21690
878.696	21903
878.824	21861
878.951	22093
879.079	22082
879.206	22238
879.333	22051
879.461	22002
879.588	21888
879.715	22032
879.842	22192
879.97	21956
880.097	21724
880.224	21747
880.351	21842
880.478	21698
880.605	21781
880.732	21663
880.859	21991
880.986	21751
881.112	21797
881.239	21591
881.366	21420
881.493	21367
881.619	21367
881.746	21222
881.872	21389
881.999	21298
882.125	21184
882.252	21317
882.378	21287
882.505	21374
882.631	21180
882.757	21043
882.883	21093
883.01	21024
883.136	20910
883.262	20967
883.388	20876
883.514	21074
883.64	21108
883.766	21013
883.892	20804
884.018	20807
884.143	20883
884.269	21058
884.395	20754
884.52	20560
884.646	20712
884.772	20549
884.897	20556
885.023	20678
885.148	20739
885.274	20804
885.399	20815
885.524	20788
885.65	20613
885.775	20602
885.9	20613
886.025	20861
886.15	20701
886.275	20663
886.4	20526
886.525	20632
886.65	20674
886.775	20606
886.9	20731
887.025	20804
887.149	20575
887.274	20351
887.399	20423
887.523	20343
887.648	20385
887.773	20248
887.897	20545
888.021	20454
888.146	20366
888.27	20499
888.395	20469
888.519	20358
888.643	20438
888.767	20408
888.891	20305
889.015	20210
889.139	20298
889.263	20233
889.387	20393
889.511	20328
889.635	20286
889.759	20187
889.883	20214
890.006	20282
890.13	20309
890.254	20115
890.377	20187
890.501	20016
890.624	19925
890.748	20016
890.871	19913
890.995	19788
891.118	19666
891.241	19761
891.364	19814
891.488	19993
891.611	19738
891.734	19696
891.857	19780
891.98	19818
892.103	19833
892.226	19723
892.349	19742
892.471	19586
892.594	19677
892.717	19864
892.839	19647
892.962	19742
893.085	19799
893.207	19677
893.33	19712
893.452	19677
893.575	19727
893.697	19750
893.819	19830
893.941	19959
894.064	19860
894.186	19639
894.308	19609
894.43	19757
894.552	19890
894.674	19852
894.796	19674
894.918	19769
895.04	19689
895.161	19772
895.283	19784
895.405	19723
895.526	19746
895.648	19681
895.769	19712
895.891	19776
896.012	19845
896.134	19818
896.255	19795
896.376	19613
896.498	19708
896.619	19814
896.74	19647
896.861	19742
896.982	19986
897.103	20240
897.224	20119
897.345	19989
897.466	19757
897.587	19944
897.708	20039
897.828	20069
897.949	19868
898.07	19769
898.19	19879
898.311	19951
898.431	19856
898.552	19921
898.672	19951
898.792	19974
898.913	19932
899.033	19913
899.153	19712
899.273	19734
899.393	19696
899.513	19734
899.633	19655
899.753	19746
899.873	19651
899.993	19689
900.113	19601
900.232	19632
900.352	19578
900.472	19620
900.591	19335
900.711	19499
900.83	19434
900.95	19651
901.069	19586
901.189	19388
901.308	19148
901.427	18989
901.546	19042
901.665	19065
901.784	19061
901.904	18932
902.023	18798
902.141	18612
902.26	18627
902.379	18673
902.498	18642
902.617	18563
902.735	18635
902.854	18498
902.973	18486
903.091	18258
903.21	18330
903.328	18152
903.446	18190
903.565	18057
903.683	18057
903.801	17885
903.919	17965
904.038	18015
904.156	17828
904.274	17942
904.392	17783
904.51	17847
904.627	17756
904.745	17904
904.863	17889
904.981	17577
905.098	17547
905.216	17505
905.334	17611
905.451	17478
905.569	17444
905.686	17509
905.803	17402
905.921	17231
906.038	17406
906.155	17391
906.272	17208
906.389	17284
906.506	17102
906.623	17033
906.74	17025
906.857	16972
906.974	16976
907.091	17022
907.208	17239
907.324	17121
907.441	16991
907.557	16797
907.674	16862
907.79	16687
907.907	16618
908.023	16793
908.139	16873
908.256	16691
908.372	16717
908.488	16660
908.604	16455
908.72	16481
908.836	16459
908.952	16440
909.068	16504
909.184	16512
909.3	16546
909.415	16481
909.531	16363
909.647	16215
909.762	16215
909.878	16204
909.993	16337
910.108	16135
910.224	16131
910.339	16242
910.454	16173
910.57	16040
910.685	15884
910.8	16150
910.915	16150
911.03	15991
911.145	15739
911.259	15793
911.374	15819
911.489	15713
911.604	15637
911.718	15564
911.833	15587
911.947	15450
912.062	15466
912.176	15587
912.291	15587
912.405	15530
912.519	15686
912.633	15755
912.748	15561
912.862	15504
912.976	15386
913.09	15211
913.204	15393
913.318	15389
913.431	15412
913.545	15534
913.659	15549
913.772	15416
913.886	15245
914	15123
914.113	15214
914.226	15226
914.34	15192
914.453	15131
914.566	15252
914.68	15104
914.793	15089
914.906	14861
915.019	14876
915.132	14750
915.245	14670
915.358	14712
915.47	14781
915.583	14811
915.696	14758
915.809	14864
915.921	14902
916.034	14750
916.146	14792
916.259	14594
916.371	14785
916.483	14765
916.595	14594
916.708	14701
916.82	14659
916.932	14697
917.044	14651
917.156	14636
917.268	14465
917.38	14549
917.491	14450
917.603	14522
917.715	14541
917.826	14587
917.938	14385
918.049	14290
918.161	14450
918.272	14549
918.384	14537
918.495	14480
918.606	14252
918.717	14126
918.828	14271
918.939	14244
919.05	14172
919.161	14183
919.272	14043
919.383	14043
919.494	14240
919.604	14339
919.715	14214
919.826	14069
919.936	14134
920.047	14244
920.157	14221
920.267	14301
920.378	14126
920.488	14149
920.598	14377
920.708	14454
920.818	14343
920.928	14317
921.038	14484
921.148	14503
921.258	14210
921.368	14084
921.477	13963
921.587	13871
921.697	13845
921.806	13963
921.916	13712
922.025	13609
922.134	13685
922.244	13548
922.353	13658
922.462	13460
922.571	13362
922.68	13266
922.789	13187
922.898	13255
923.007	13198
923.116	13251
923.224	13194
923.333	13213
923.442	13095
923.55	13084
923.659	13012
923.767	13099
923.876	12985
923.984	13129
924.092	12954
924.201	12905
924.309	12954
924.417	12958
924.525	12890
924.633	12886
924.741	13799
924.849	12601
924.956	12871
925.064	12703
925.172	12654
925.279	12604
925.387	12665
925.494	12658
925.602	12734
925.709	12654
925.816	12566
925.924	12574
926.031	12665
926.138	12654
926.245	12547
926.352	12448
926.459	12700
926.566	12707
926.673	12498
926.779	12490
926.886	12407
926.993	12239
927.099	12232
927.206	12194
927.312	12281
927.419	12292
927.525	12235
927.631	12273
927.737	12129
927.843	12163
927.95	12034
928.056	12022
928.162	12026
928.267	12152
928.373	12669
928.479	12087
928.585	11866
928.69	12053
928.796	12057
928.901	11942
929.007	11832
929.112	11988
929.218	11954
929.323	11840
929.428	11752
929.533	11912
929.638	11760
929.743	11737
929.848	11779
929.953	11653
930.058	11680
930.163	11448
930.267	11455
930.372	11627
930.477	11471
930.581	11668
930.685	11547
930.79	11398
930.894	11402
930.998	11258
931.103	11532
931.207	11140
931.311	11025
931.415	10946
931.519	10816
931.623	10847
