Data from test_V78500241_3025.txt Node
Date: Fri Mar 25 15:30:55 CST 2022
User: usil
Spectrometer: V785-0024
Trigger mode: 0
Integration Time (sec): 4.000000E-1
Scans to average: 1
Nonlinearity correction enabled: false
Boxcar width: 0
Storing dark spectrum: false
XAxis mode: Wavelengths
Number of Pixels in Spectrum: 1024
>>>>>Begin Spectral Data<<<<<
801.071	27142
801.214	27199
801.356	26998
801.499	26899
801.641	26731
801.783	26697
801.926	26746
802.068	26701
802.211	26697
802.353	26693
802.496	26541
802.638	26438
802.78	26347
802.923	26324
803.065	26248
803.208	26233
803.35	26343
803.492	26431
803.635	26511
803.777	26317
803.919	26473
804.061	26925
804.204	26495
804.346	26431
804.488	26450
804.63	26476
804.773	26492
804.915	26568
805.057	26564
805.199	26434
805.341	26511
805.483	26651
805.626	26693
805.768	26579
805.91	26667
806.052	26708
806.194	26461
806.336	26830
806.478	26480
806.62	26617
806.762	26746
806.904	26883
807.046	27112
807.188	26990
807.33	26994
807.472	27123
807.614	27043
807.756	27013
807.898	26967
808.04	26689
808.182	26758
808.324	27001
808.465	26883
808.607	27123
808.749	27249
808.891	27264
809.033	27264
809.174	27298
809.316	27264
809.458	27230
809.6	27093
809.741	27313
809.883	27249
810.025	27500
810.166	27496
810.308	27481
810.45	27359
810.591	27321
810.733	27294
810.875	27195
811.016	27180
811.158	27176
811.299	27363
811.441	27374
811.582	27412
811.724	27340
811.865	27226
812.007	27192
812.148	27116
812.29	27283
812.431	27382
812.573	27473
812.714	27587
812.855	27679
812.997	27709
813.138	27903
813.279	27793
813.421	27728
813.562	27504
813.703	27564
813.845	27252
813.986	27100
814.127	26918
814.268	26853
814.41	26902
814.551	26838
814.692	26876
814.833	26754
814.974	26781
815.115	26868
815.256	26617
815.397	26899
815.539	26796
815.68	26720
815.821	26594
815.962	26629
816.103	26621
816.244	26511
816.385	26419
816.526	26465
816.666	26317
816.807	26020
816.948	26214
817.089	26138
817.23	26172
817.371	26126
817.512	26096
817.653	26043
817.793	26115
817.934	26176
818.075	26142
818.216	26062
818.356	26050
818.497	25986
818.638	25826
818.778	25925
818.919	25864
819.06	25982
819.2	26088
819.341	26073
819.481	26088
819.622	26183
819.762	26446
819.903	26404
820.043	26191
820.184	26195
820.324	26221
820.465	26358
820.605	26206
820.746	26058
820.886	26126
821.026	26176
821.167	26062
821.307	26278
821.447	26058
821.588	26054
821.728	25928
821.868	25704
822.008	25719
822.149	25590
822.289	25518
822.429	25304
822.569	25339
822.709	25381
822.849	25008
822.99	25084
823.13	24954
823.27	25031
823.41	24825
823.55	24867
823.69	24989
823.83	24989
823.97	24821
824.11	24604
824.25	24688
824.389	24661
824.529	24776
824.669	24798
824.809	24905
824.949	24753
825.089	24817
825.228	24779
825.368	24654
825.508	24646
825.648	24597
825.787	24498
825.927	24578
826.067	24445
826.206	24521
826.346	24631
826.485	24700
826.625	24505
826.765	24620
826.904	24677
827.044	24437
827.183	24353
827.323	24247
827.462	24350
827.601	24308
827.741	24258
827.88	24338
828.02	24178
828.159	24292
828.298	24251
828.437	24296
828.577	24235
828.716	24289
828.855	24224
828.994	24049
829.134	23996
829.273	24079
829.412	23996
829.551	24011
829.69	23977
829.829	24106
829.968	23996
830.107	24015
830.246	23935
830.385	23935
830.524	23824
830.663	23802
830.802	23687
830.941	23630
831.08	23547
831.219	23630
831.357	23646
831.496	23748
831.635	23600
831.774	23368
831.913	23429
832.051	23364
832.19	23395
832.329	23436
832.467	23220
832.606	23269
832.744	23284
832.883	23223
833.022	23197
833.16	23155
833.299	23261
833.437	23265
833.576	23353
833.714	23315
833.852	23471
833.991	23395
834.129	23417
834.267	23345
834.406	23391
834.544	23269
834.682	23315
834.821	23402
834.959	23391
835.097	23098
835.235	23482
835.373	23307
835.511	23239
835.65	23227
835.788	23212
835.926	23033
836.064	22892
836.202	23048
836.34	23113
836.478	23273
836.615	23037
836.753	23128
836.891	23117
837.029	23052
837.167	23185
837.305	22991
837.443	22885
837.58	22911
837.718	23029
837.856	22980
837.993	22938
838.131	23033
838.269	22911
838.406	22774
838.544	22812
838.681	22634
838.819	22615
838.956	22527
839.094	22386
839.231	22550
839.369	22637
839.506	22908
839.643	22653
839.781	22451
839.918	22470
840.055	22489
840.193	22474
840.33	22443
840.467	22531
840.604	22428
840.742	22603
840.879	22242
841.016	22382
841.153	22329
841.29	22489
841.427	22329
841.564	22474
841.701	22363
841.838	22329
841.975	22341
842.112	22398
842.249	22284
842.385	22207
842.522	22459
842.659	22211
842.796	22223
842.933	22196
843.069	22169
843.206	22013
843.343	22314
843.479	22158
843.616	22086
843.752	22097
843.889	21819
844.025	22036
844.162	21998
844.298	22032
844.435	21903
844.571	21797
844.708	21884
844.844	22234
844.98	21987
845.117	22116
845.253	21934
845.389	21907
845.525	21861
845.661	21762
845.798	21667
845.934	21644
846.07	21599
846.206	21743
846.342	21911
846.478	21694
846.614	21496
846.75	21424
846.886	21321
847.022	21492
847.158	21291
847.294	21515
847.429	21496
847.565	21367
847.701	21698
847.837	21119
847.972	21081
848.108	21180
848.244	21180
848.379	21039
848.515	20990
848.65	20967
848.786	20956
848.921	21081
849.057	21096
849.192	21195
849.328	20918
849.463	20960
849.598	20967
849.734	20746
849.869	20887
850.004	20716
850.14	20834
850.275	20815
850.41	20739
850.545	20693
850.68	20731
850.815	20705
850.95	20682
851.085	20765
851.22	20804
851.355	20758
851.49	20686
851.625	20571
851.76	20842
851.895	20644
852.03	20712
852.165	20773
852.299	20705
852.434	20933
852.569	20758
852.703	20712
852.838	20765
852.973	20857
853.107	20868
853.242	20769
853.376	20689
853.511	20457
853.645	20651
853.78	20815
853.914	20686
854.048	20598
854.183	20484
854.317	20655
854.451	20762
854.585	20571
854.72	20648
854.854	20674
854.988	20568
855.122	20537
855.256	20434
855.39	20541
855.524	20564
855.658	20606
855.792	20511
855.926	20625
856.06	20571
856.194	20762
856.327	20594
856.461	20602
856.595	20545
856.729	20609
856.862	20777
856.996	20602
857.13	20587
857.263	20674
857.397	20587
857.53	20541
857.664	20583
857.797	20697
857.931	20640
858.064	20667
858.197	20735
858.331	20503
858.464	20549
858.597	20412
858.731	20583
858.864	20514
858.997	20465
859.13	20549
859.263	20594
859.396	20693
859.529	20636
859.662	20518
859.795	20530
859.928	20587
860.061	20724
860.194	20906
860.327	20636
860.46	20621
860.592	20781
860.725	20765
860.858	20712
860.99	20609
861.123	20499
861.256	20533
861.388	20568
861.521	21116
861.653	20492
861.786	20400
861.918	20431
862.05	20450
862.183	20389
862.315	20488
862.447	20571
862.58	20552
862.712	20347
862.844	20339
862.976	20317
863.108	20317
863.24	20864
863.372	20187
863.504	20358
863.636	20313
863.768	20415
863.9	20320
864.032	20119
864.164	20324
864.296	20396
864.428	20450
864.559	20256
864.691	20495
864.823	20275
864.954	20332
865.086	20324
865.217	20301
865.349	20153
865.48	20092
865.612	20237
865.743	20286
865.875	20263
866.006	20347
866.137	20324
866.269	20202
866.4	20107
866.531	20210
866.662	20115
866.793	20107
866.924	20149
867.055	20077
867.186	20138
867.317	20126
867.448	20130
867.579	20149
867.71	19978
867.841	19989
867.972	20107
868.103	20050
868.233	20164
868.364	20172
868.495	20240
868.625	20336
868.756	20511
868.886	20305
869.017	20343
869.147	20473
869.278	20400
869.408	20370
869.539	20400
869.669	20476
869.799	20583
869.929	20533
870.06	20480
870.19	20727
870.32	20731
870.45	20727
870.58	20788
870.71	20941
870.84	21013
870.97	20887
871.1	20651
871.23	20941
871.36	20963
871.489	20937
871.619	20941
871.749	21070
871.879	21055
872.008	21089
872.138	21074
872.267	21001
872.397	20861
872.526	20826
872.656	20731
872.785	20823
872.915	21051
873.044	21047
873.173	20948
873.303	21009
873.432	21062
873.561	21104
873.69	21036
873.819	20982
873.948	21077
874.077	20998
874.206	20933
874.335	21001
874.464	21017
874.593	21241
874.722	21108
874.851	21291
874.979	21252
875.108	21306
875.237	21188
875.365	21058
875.494	21173
875.623	21260
875.751	21275
875.88	21325
876.008	21488
876.136	21393
876.265	21644
876.393	21789
876.521	21701
876.65	21739
876.778	21739
876.906	21679
877.034	21549
877.162	21534
877.29	21629
877.418	21648
877.546	21614
877.674	21545
877.802	21618
877.93	21545
878.058	21534
878.185	21454
878.313	21412
878.441	21637
878.568	21488
878.696	21545
878.824	21622
878.951	21694
879.079	21804
879.206	21949
879.333	21694
879.461	21755
879.588	21572
879.715	21778
879.842	21857
879.97	21694
880.097	21412
880.224	21420
880.351	21439
880.478	21534
880.605	21416
880.732	21534
880.859	21652
880.986	21351
881.112	21424
881.239	21294
881.366	21233
881.493	21161
881.619	20944
881.746	21036
881.872	20834
881.999	21005
882.125	20994
882.252	21020
882.378	20963
882.505	21104
882.631	20902
882.757	20712
882.883	20754
883.01	20701
883.136	20674
883.262	20670
883.388	20651
883.514	20640
883.64	20777
883.766	20712
883.892	20503
884.018	20537
884.143	20838
884.269	20712
884.395	20374
884.52	20408
884.646	20404
884.772	20221
884.897	20187
885.023	20431
885.148	20518
885.274	20568
885.399	20419
885.524	20362
885.65	20275
885.775	20374
885.9	20400
886.025	20423
886.15	20400
886.275	20282
886.4	20275
886.525	20320
886.65	20339
886.775	20240
886.9	20374
887.025	20625
887.149	20343
887.274	20206
887.399	20084
887.523	20111
887.648	20100
887.773	19982
887.897	20210
888.021	20210
888.146	20043
888.27	20248
888.395	20218
888.519	20263
888.643	20199
888.767	20122
888.891	20031
889.015	19879
889.139	20001
889.263	20035
889.387	20050
889.511	20168
889.635	20050
889.759	19913
889.883	19807
890.006	19940
890.13	20088
890.254	19868
890.377	19845
890.501	19757
890.624	19616
890.748	19666
890.871	19613
890.995	19571
891.118	19510
891.241	19601
891.364	19495
891.488	19628
891.611	19468
891.734	19613
891.857	19537
891.98	19624
892.103	19582
892.226	19533
892.349	19384
892.471	19392
892.594	19533
892.717	19499
892.839	19563
892.962	19422
893.085	19491
893.207	19441
893.33	19251
893.452	19335
893.575	19480
893.697	19369
893.819	19594
893.941	19662
894.064	19540
894.186	19407
894.308	19514
894.43	19613
894.552	19525
894.674	19582
894.796	19289
894.918	19449
895.04	19460
895.161	19548
895.283	19502
895.405	19324
895.526	19438
895.648	19510
895.769	19445
895.891	19525
896.012	19548
896.134	19472
896.255	19430
896.376	19392
896.498	19544
896.619	19472
896.74	19586
896.861	19441
896.982	19883
897.103	19883
897.224	19780
897.345	19643
897.466	19567
897.587	19674
897.708	19883
897.828	19750
897.949	19624
898.07	19533
898.19	19670
898.311	19746
898.431	19750
898.552	19784
898.672	19887
898.792	19822
898.913	19674
899.033	19613
899.153	19468
899.273	19518
899.393	19476
899.513	19441
899.633	19384
899.753	19468
899.873	19324
899.993	19495
900.113	19438
900.232	19453
900.352	19403
900.472	19297
900.591	19202
900.711	19324
900.83	19168
900.95	19381
901.069	19369
901.189	19000
901.308	18970
901.427	18958
901.546	18779
901.665	18848
901.784	18844
901.904	18764
902.023	18597
902.141	18388
902.26	18410
902.379	18426
902.498	18311
902.617	18311
902.735	18388
902.854	18369
902.973	18323
903.091	18026
903.21	18068
903.328	18068
903.446	17874
903.565	17923
903.683	17805
903.801	17775
903.919	17786
904.038	17786
904.156	17703
904.274	17733
904.392	17554
904.51	17604
904.627	17630
904.745	17623
904.863	17623
904.981	17440
905.098	17307
905.216	17349
905.334	17334
905.451	17216
905.569	17185
905.686	17341
905.803	17299
905.921	17052
906.038	17159
906.155	17033
906.272	17041
906.389	17029
906.506	16896
906.623	16854
906.74	16858
906.857	16698
906.974	16687
907.091	16911
907.208	17025
907.324	16835
907.441	16820
907.557	16592
907.674	16538
907.79	16436
907.907	16512
908.023	16569
908.139	16550
908.256	16519
908.372	16428
908.488	16310
908.604	16363
908.72	16268
908.836	16424
908.952	16162
909.068	16280
909.184	16375
909.3	16325
909.415	16287
909.531	16265
909.647	16051
909.762	15915
909.878	16086
909.993	15918
910.108	15994
910.224	15895
910.339	15884
910.454	15907
910.57	15918
910.685	15694
910.8	16036
910.915	16006
911.03	15770
911.145	15614
911.259	15587
911.374	15564
911.489	15553
911.604	15435
911.718	15355
911.833	15291
911.947	15218
912.062	15302
912.176	15348
912.291	15370
912.405	15389
912.519	15561
912.633	15523
912.748	15249
912.862	15313
912.976	15184
913.09	15100
913.204	15119
913.318	15176
913.431	15302
913.545	15272
913.659	15287
913.772	15089
913.886	15051
914	14998
914.113	14975
914.226	15108
914.34	15028
914.453	14868
914.566	14960
914.68	14925
914.793	14849
914.906	14727
915.019	14602
915.132	14473
915.245	14507
915.358	14575
915.47	14697
915.583	14625
915.696	14533
915.809	14670
915.921	14674
916.034	14492
916.146	14541
916.259	14499
916.371	14636
916.483	14526
916.595	14446
916.708	14503
916.82	14438
916.932	14305
917.044	14294
917.156	14294
917.268	14252
917.38	14324
917.491	14263
917.603	14221
917.715	14305
917.826	14343
917.938	14210
918.049	14084
918.161	14339
918.272	14362
918.384	14271
918.495	14145
918.606	14096
918.717	14005
918.828	13989
918.939	14092
919.05	14020
919.161	14027
919.272	13784
919.383	13921
919.494	14077
919.604	14252
919.715	14096
919.826	13909
919.936	13963
920.047	14153
920.157	14065
920.267	14221
920.378	14100
920.488	13993
920.598	14130
920.708	14271
920.818	14130
920.928	14199
921.038	14263
921.148	14317
921.258	13913
921.368	13856
921.477	13761
921.587	13708
921.697	13677
921.806	13788
921.916	13563
922.025	13381
922.134	13415
922.244	13445
922.353	13422
922.462	13251
922.571	13198
922.68	13152
922.789	13110
922.898	13072
923.007	13000
923.116	13126
923.224	13091
923.333	13061
923.442	12935
923.55	12814
923.659	12825
923.767	12958
923.876	12741
923.984	12951
924.092	12787
924.201	12821
924.309	12787
924.417	12859
924.525	12779
924.633	12684
924.741	13453
924.849	12635
924.956	12669
925.064	12460
925.172	12483
925.279	12509
925.387	12494
925.494	12422
925.602	12650
925.709	12528
925.816	12372
925.924	12433
926.031	12513
926.138	12460
926.245	12422
926.352	12346
926.459	12521
926.566	12445
926.673	12319
926.779	12292
926.886	12254
926.993	12136
927.099	12121
927.206	12030
927.312	12038
927.419	12121
927.525	12144
927.631	12114
927.737	12060
927.843	11984
927.95	11783
928.056	11824
928.162	11882
928.267	11935
928.373	12551
928.479	12019
928.585	11729
928.69	11870
928.796	11931
928.901	11790
929.007	11688
929.112	11855
929.218	11722
929.323	11665
929.428	11562
929.533	11764
929.638	11589
929.743	11718
929.848	11653
929.953	11581
930.058	11505
930.163	11311
930.267	11368
930.372	11471
930.477	11315
930.581	11516
930.685	11356
930.79	11223
930.894	11277
930.998	11151
931.103	11334
931.207	10953
931.311	10938
931.415	10854
931.519	10618
931.623	10653
