Data from test_V78500241_1496.txt Node
Date: Fri Mar 25 15:20:16 CST 2022
User: usil
Spectrometer: V785-0024
Trigger mode: 0
Integration Time (sec): 4.000000E-1
Scans to average: 1
Nonlinearity correction enabled: false
Boxcar width: 0
Storing dark spectrum: false
XAxis mode: Wavelengths
Number of Pixels in Spectrum: 1024
>>>>>Begin Spectral Data<<<<<
801.071	28185
801.214	28166
801.356	27922
801.499	27869
801.641	27564
801.783	27724
801.926	27622
802.068	27759
802.211	27656
802.353	27553
802.496	27344
802.638	27416
802.78	27382
802.923	27245
803.065	27249
803.208	27329
803.35	27321
803.492	27450
803.635	27462
803.777	27557
803.919	27614
804.061	27865
804.204	27576
804.346	27454
804.488	27439
804.63	27564
804.773	27526
804.915	27644
805.057	27523
805.199	27553
805.341	27614
805.483	27656
805.626	27660
805.768	27530
805.91	27633
806.052	27724
806.194	27732
806.336	27812
806.478	27808
806.62	27720
806.762	27873
806.904	27975
807.046	28166
807.188	27991
807.33	28086
807.472	28097
807.614	28131
807.756	28109
807.898	27930
808.04	28006
808.182	27937
808.324	28048
808.465	28143
808.607	28303
808.749	28455
808.891	28405
809.033	28512
809.174	28421
809.316	28337
809.458	28261
809.6	28303
809.741	28417
809.883	28417
810.025	28694
810.166	28607
810.308	28603
810.45	28660
810.591	28592
810.733	28401
810.875	28284
811.016	28226
811.158	28185
811.299	28306
811.441	28531
811.582	28557
811.724	28371
811.865	28341
812.007	28352
812.148	28242
812.29	28398
812.431	28546
812.573	28653
812.714	28786
812.855	28957
812.997	29147
813.138	29117
813.279	29022
813.421	28816
813.562	28904
813.703	28717
813.845	28607
813.986	28322
814.127	28280
814.268	28166
814.41	27979
814.551	28116
814.692	28166
814.833	27895
814.974	28029
815.115	28128
815.256	27972
815.397	27873
815.539	27998
815.68	27861
815.821	27865
815.962	27831
816.103	27816
816.244	27606
816.385	27652
816.526	27656
816.666	27458
816.807	27275
816.948	27424
817.089	27420
817.23	27416
817.371	27351
817.512	27332
817.653	27207
817.793	27256
817.934	27370
818.075	27332
818.216	27359
818.356	27359
818.497	27313
818.638	27116
818.778	27161
818.919	27070
819.06	27218
819.2	27313
819.341	27287
819.481	27424
819.622	27549
819.762	27599
819.903	27629
820.043	27492
820.184	27485
820.324	27401
820.465	27523
820.605	27443
820.746	27374
820.886	27302
821.026	27545
821.167	27545
821.307	27477
821.447	27359
821.588	27252
821.728	27096
821.868	26937
822.008	26834
822.149	26629
822.289	26735
822.429	26720
822.569	26514
822.709	26609
822.849	26313
822.99	26259
823.13	26355
823.27	26408
823.41	26096
823.55	25993
823.69	26191
823.83	26035
823.97	26180
824.11	25947
824.25	25837
824.389	25970
824.529	26001
824.669	25993
824.809	26119
824.949	26138
825.089	26088
825.228	26005
825.368	25807
825.508	25917
825.648	25921
825.787	25871
825.927	25959
826.067	25788
826.206	25799
826.346	25875
826.485	25841
826.625	25875
826.765	25947
826.904	25906
827.044	25537
827.183	25578
827.323	25518
827.462	25616
827.601	25632
827.741	25586
827.88	25537
828.02	25426
828.159	25616
828.298	25518
828.437	25674
828.577	25426
828.716	25693
828.855	25422
828.994	25240
829.134	25270
829.273	25175
829.412	25316
829.551	25217
829.69	25255
829.829	25168
829.968	25308
830.107	25377
830.246	25145
830.385	25247
830.524	25206
830.663	25072
830.802	25034
830.941	24924
831.08	24798
831.219	24806
831.357	24939
831.496	25088
831.635	24703
831.774	24856
831.913	24753
832.051	24681
832.19	24749
832.329	24677
832.467	24612
832.606	24464
832.744	24452
832.883	24513
833.022	24479
833.16	24532
833.299	24547
833.437	24521
833.576	24513
833.714	24604
833.852	24658
833.991	24642
834.129	24730
834.267	24772
834.406	24578
834.544	24536
834.682	24547
834.821	24509
834.959	24502
835.097	24521
835.235	24612
835.373	24441
835.511	24532
835.65	24479
835.788	24422
835.926	24376
836.064	24171
836.202	24144
836.34	24388
836.478	24494
836.615	24300
836.753	24437
836.891	24372
837.029	24460
837.167	24456
837.305	24357
837.443	24304
837.58	24182
837.718	24304
837.856	24235
837.993	24106
838.131	24133
838.269	24007
838.406	24136
838.544	23992
838.681	23901
838.819	23874
838.956	23783
839.094	23729
839.231	23809
839.369	23885
839.506	24098
839.643	23923
839.781	23767
839.918	23623
840.055	23699
840.193	23710
840.33	23608
840.467	23604
840.604	23573
840.742	23794
840.879	23478
841.016	23680
841.153	23646
841.29	23748
841.427	23786
841.564	23672
841.701	23516
841.838	23497
841.975	23505
842.112	23516
842.249	23391
842.385	23368
842.522	23627
842.659	23467
842.796	23395
842.933	23322
843.069	23356
843.206	23246
843.343	23467
843.479	23345
843.616	23414
843.752	23071
843.889	23204
844.025	23296
844.162	23090
844.298	23136
844.435	23086
844.571	23098
844.708	23197
844.844	23349
844.98	23166
845.117	23254
845.253	23037
845.389	22961
845.525	23071
845.661	23075
845.798	22850
845.934	22942
846.07	22850
846.206	22816
846.342	22934
846.478	22778
846.614	22626
846.75	22542
846.886	22580
847.022	22675
847.158	22649
847.294	22618
847.429	22535
847.565	22622
847.701	22790
847.837	22421
847.972	22306
848.108	22363
848.244	22352
848.379	22253
848.515	22261
848.65	22074
848.786	22169
848.921	22169
849.057	22287
849.192	22280
849.328	22291
849.463	22192
849.598	22150
849.734	22025
849.869	22010
850.004	21812
850.14	22025
850.275	22029
850.41	21964
850.545	21861
850.68	21869
850.815	21956
850.95	21937
851.085	22086
851.22	22025
851.355	22082
851.49	21907
851.625	21884
851.76	21876
851.895	21895
852.03	21915
852.165	21964
852.299	21968
852.434	21983
852.569	21911
852.703	21854
852.838	22002
852.973	22078
853.107	22166
853.242	21975
853.376	21812
853.511	21800
853.645	21800
853.78	21831
853.914	21842
854.048	21720
854.183	21846
854.317	21713
854.451	22032
854.585	21850
854.72	21774
854.854	21816
854.988	21698
855.122	21808
855.256	21633
855.39	21797
855.524	21949
855.658	21759
855.792	21785
855.926	21781
856.06	21743
856.194	21797
856.327	21823
856.461	21732
856.595	21797
856.729	21728
856.862	21823
856.996	21709
857.13	21781
857.263	21785
857.397	21941
857.53	21778
857.664	21823
857.797	21793
857.931	21899
858.064	21808
858.197	21781
858.331	21739
858.464	21747
858.597	21823
858.731	21652
858.864	21648
858.997	21827
859.13	21808
859.263	21724
859.396	21838
859.529	21812
859.662	21755
859.795	21679
859.928	21675
860.061	21930
860.194	21964
860.327	21842
860.46	21842
860.592	21915
860.725	21842
860.858	21949
860.99	21789
861.123	21663
861.256	21679
861.388	21766
861.521	22310
861.653	21637
861.786	21500
861.918	21534
862.05	21629
862.183	21652
862.315	21671
862.447	21838
862.58	21660
862.712	21534
862.844	21431
862.976	21542
863.108	21458
863.24	22078
863.372	21477
863.504	21496
863.636	21469
863.768	21469
863.9	21603
864.032	21439
864.164	21515
864.296	21511
864.428	21606
864.559	21614
864.691	21504
864.823	21466
864.954	21462
865.086	21458
865.217	21450
865.349	21329
865.48	21416
865.612	21412
865.743	21485
865.875	21340
866.006	21329
866.137	21306
866.269	21321
866.4	21268
866.531	21142
866.662	21188
866.793	21306
866.924	21386
867.055	21378
867.186	21298
867.317	21195
867.448	21241
867.579	21298
867.71	21180
867.841	21188
867.972	21237
868.103	21146
868.233	21306
868.364	21466
868.495	21321
868.625	21519
868.756	21473
868.886	21469
869.017	21473
869.147	21606
869.278	21542
869.408	21572
869.539	21599
869.669	21591
869.799	21523
869.929	21614
870.06	21679
870.19	21873
870.32	21728
870.45	21797
870.58	21842
870.71	22078
870.84	21975
870.97	21880
871.1	21945
871.23	22173
871.36	22116
871.489	21953
871.619	22109
871.749	22067
871.879	22044
872.008	22204
872.138	22158
872.267	22074
872.397	21979
872.526	21964
872.656	21937
872.785	21941
872.915	22215
873.044	22185
873.173	22166
873.303	22196
873.432	22143
873.561	22238
873.69	22223
873.819	22082
873.948	22215
874.077	22181
874.206	22139
874.335	22196
874.464	22341
874.593	22424
874.722	22375
874.851	22500
874.979	22314
875.108	22424
875.237	22284
875.365	22443
875.494	22303
875.623	22436
875.751	22390
875.88	22451
876.008	22466
876.136	22618
876.265	22809
876.393	22877
876.521	22850
876.65	22850
876.778	22694
876.906	22675
877.034	22740
877.162	22713
877.29	22744
877.418	22672
877.546	22744
877.674	22626
877.802	22664
877.93	22626
878.058	22679
878.185	22687
878.313	22660
878.441	22713
878.568	22504
878.696	22672
878.824	22729
878.951	22797
879.079	22885
879.206	22908
879.333	22908
879.461	22740
879.588	22740
879.715	22824
879.842	22942
879.97	22934
880.097	22565
880.224	22455
880.351	22645
880.478	22584
880.605	22538
880.732	22542
880.859	22694
880.986	22455
881.112	22405
881.239	22455
881.366	22272
881.493	22276
881.619	22109
881.746	22082
881.872	22040
881.999	22017
882.125	22010
882.252	21998
882.378	22025
882.505	22162
882.631	21975
882.757	21865
882.883	21911
883.01	21751
883.136	21808
883.262	21625
883.388	21641
883.514	21762
883.64	21854
883.766	21732
883.892	21686
884.018	21545
884.143	21656
884.269	21774
884.395	21424
884.52	21359
884.646	21439
884.772	21355
884.897	21397
885.023	21405
885.148	21561
885.274	21606
885.399	21469
885.524	21321
885.65	21466
885.775	21504
885.9	21367
886.025	21443
886.15	21393
886.275	21340
886.4	21272
886.525	21420
886.65	21401
886.775	21359
886.9	21500
887.025	21549
887.149	21294
887.274	21146
887.399	21089
887.523	21157
887.648	21070
887.773	21138
887.897	21302
888.021	21173
888.146	21165
888.27	21275
888.395	21252
888.519	21131
888.643	21241
888.767	21249
888.891	21123
889.015	20933
889.139	20979
889.263	20941
889.387	21074
889.511	21169
889.635	21085
889.759	21020
889.883	20906
890.006	21070
890.13	21123
890.254	20952
890.377	20868
890.501	20758
890.624	20731
890.748	20792
890.871	20613
890.995	20511
891.118	20446
891.241	20587
891.364	20518
891.488	20720
891.611	20522
891.734	20556
891.857	20564
891.98	20606
892.103	20556
892.226	20552
892.349	20396
892.471	20195
892.594	20446
892.717	20484
892.839	20526
892.962	20332
893.085	20556
893.207	20434
893.33	20351
893.452	20294
893.575	20503
893.697	20396
893.819	20625
893.941	20564
894.064	20590
894.186	20381
894.308	20332
894.43	20587
894.552	20560
894.674	20621
894.796	20377
894.918	20408
895.04	20423
895.161	20484
895.283	20469
895.405	20294
895.526	20412
895.648	20362
895.769	20454
895.891	20537
896.012	20465
896.134	20442
896.255	20419
896.376	20366
896.498	20423
896.619	20488
896.74	20469
896.861	20533
896.982	20792
897.103	20872
897.224	20663
897.345	20663
897.466	20590
897.587	20579
897.708	20720
897.828	20648
897.949	20655
898.07	20427
898.19	20549
898.311	20746
898.431	20594
898.552	20568
898.672	20701
898.792	20689
898.913	20705
899.033	20609
899.153	20446
899.273	20138
899.393	20476
899.513	20473
899.633	20347
899.753	20469
899.873	20286
899.993	20358
900.113	20320
900.232	20434
900.352	20351
900.472	20191
900.591	20111
900.711	20267
900.83	20130
900.95	20240
901.069	20183
901.189	20081
901.308	19830
901.427	19788
901.546	19746
901.665	19757
901.784	19765
901.904	19635
902.023	19567
902.141	19228
902.26	19266
902.379	19308
902.498	19251
902.617	19187
902.735	19259
902.854	19301
902.973	19164
903.091	18970
903.21	18859
903.328	18897
903.446	18802
903.565	18802
903.683	18726
903.801	18620
903.919	18642
904.038	18616
904.156	18429
904.274	18707
904.392	18426
904.51	18521
904.627	18498
904.745	18471
904.863	18486
904.981	18232
905.098	18194
905.216	18232
905.334	18220
905.451	18182
905.569	18095
905.686	18098
905.803	18121
905.921	17946
906.038	18015
906.155	17916
906.272	17836
906.389	17950
906.506	17646
906.623	17695
906.74	17687
906.857	17653
906.974	17589
907.091	17767
907.208	17695
907.324	17726
907.441	17611
907.557	17417
907.674	17406
907.79	17303
907.907	17433
908.023	17398
908.139	17360
908.256	17356
908.372	17307
908.488	17288
908.604	17178
908.72	17231
908.836	17048
908.952	17048
909.068	17140
909.184	17227
909.3	17124
909.415	17140
909.531	17067
909.647	16877
909.762	16752
909.878	16820
909.993	16763
910.108	16740
910.224	16702
910.339	16752
910.454	16710
910.57	16649
910.685	16569
910.8	16748
910.915	16683
911.03	16675
911.145	16371
911.259	16394
911.374	16451
911.489	16291
911.604	16211
911.718	16173
911.833	16143
911.947	15994
912.062	15972
912.176	16120
912.291	16234
912.405	16128
912.519	16295
912.633	16219
912.748	16215
912.862	16139
912.976	15911
913.09	15781
913.204	15854
913.318	15888
913.431	16029
913.545	16025
913.659	16147
913.772	15991
913.886	15831
914	15808
914.113	15816
914.226	15915
914.34	15819
914.453	15682
914.566	15759
914.68	15720
914.793	15614
914.906	15408
915.019	15393
915.132	15336
915.245	15313
915.358	15321
915.47	15401
915.583	15344
915.696	15386
915.809	15469
915.921	15431
916.034	15313
916.146	15302
916.259	15291
916.371	15313
916.483	15363
916.595	15192
916.708	15165
916.82	15165
916.932	15199
917.044	15195
917.156	15093
917.268	15001
917.38	14990
917.491	14944
917.603	14971
917.715	15142
917.826	15077
917.938	14941
918.049	14853
918.161	15062
918.272	15089
918.384	15051
918.495	14975
918.606	14765
918.717	14731
918.828	14750
918.939	14807
919.05	14651
919.161	14781
919.272	14560
919.383	14598
919.494	14826
919.604	14925
919.715	14765
919.826	14636
919.936	14674
920.047	14739
920.157	14674
920.267	14952
920.378	14678
920.488	14670
920.598	14842
920.708	15017
920.818	14815
920.928	14796
921.038	14963
921.148	14918
921.258	14587
921.368	14522
921.477	14465
921.587	14389
921.697	14301
921.806	14469
921.916	14332
922.025	14081
922.134	14123
922.244	13997
922.353	14016
922.462	13967
922.571	13902
922.68	13769
922.789	13723
922.898	13708
923.007	13704
923.116	13655
923.224	13712
923.333	13746
923.442	13518
923.55	13533
923.659	13514
923.767	13616
923.876	13609
923.984	13563
924.092	13464
924.201	13502
924.309	13590
924.417	13441
924.525	13373
924.633	13476
924.741	14115
924.849	13107
924.956	13320
925.064	13198
925.172	13133
925.279	13107
925.387	13149
925.494	13091
925.602	13282
925.709	13149
925.816	13004
925.924	13099
926.031	13095
926.138	13095
926.245	13031
926.352	12897
926.459	13088
926.566	13050
926.673	12943
926.779	12875
926.886	12817
926.993	12658
927.099	12760
927.206	12593
927.312	12688
927.419	12726
927.525	12715
927.631	12760
927.737	12589
927.843	12521
927.95	12414
928.056	12498
928.162	12513
928.267	12623
928.373	13160
928.479	12597
928.585	12369
928.69	12445
928.796	12452
928.901	12350
929.007	12232
929.112	12391
929.218	12327
929.323	12159
929.428	12171
929.533	12376
929.638	12136
929.743	12182
929.848	12247
929.953	12216
930.058	12041
930.163	11893
930.267	11931
930.372	12041
930.477	11863
930.581	12019
930.685	11992
930.79	11802
930.894	11817
930.998	11767
931.103	11893
931.207	11547
931.311	11455
931.415	11318
931.519	11185
931.623	11197
