Data from test_V78500241_656.txt Node
Date: Fri Mar 25 15:14:25 CST 2022
User: usil
Spectrometer: V785-0024
Trigger mode: 0
Integration Time (sec): 4.000000E-1
Scans to average: 1
Nonlinearity correction enabled: false
Boxcar width: 0
Storing dark spectrum: false
XAxis mode: Wavelengths
Number of Pixels in Spectrum: 1024
>>>>>Begin Spectral Data<<<<<
801.071	27507
801.214	27473
801.356	27302
801.499	27245
801.641	27230
801.783	27135
801.926	27249
802.068	27077
802.211	27104
802.353	26929
802.496	26830
802.638	26720
802.78	26880
802.923	26674
803.065	26754
803.208	26678
803.35	26910
803.492	26921
803.635	26963
803.777	26781
803.919	26853
804.061	27195
804.204	26899
804.346	26853
804.488	26887
804.63	26979
804.773	26845
804.915	26952
805.057	27055
805.199	27009
805.341	27017
805.483	27017
805.626	27043
805.768	27017
805.91	26956
806.052	27131
806.194	27005
806.336	27279
806.478	27211
806.62	27249
806.762	27093
806.904	27207
807.046	27488
807.188	27469
807.33	27511
807.472	27580
807.614	27424
807.756	27405
807.898	27538
808.04	27298
808.182	27378
808.324	27439
808.465	27374
808.607	27500
808.749	27549
808.891	27701
809.033	27679
809.174	27785
809.316	27717
809.458	27953
809.6	27766
809.741	27785
809.883	27884
810.025	27964
810.166	28090
810.308	27930
810.45	28021
810.591	27941
810.733	27686
810.875	27724
811.016	27610
811.158	27656
811.299	27774
811.441	27911
811.582	27766
811.724	27698
811.865	27663
812.007	27629
812.148	27724
812.29	27739
812.431	27964
812.573	28029
812.714	28223
812.855	28131
812.997	28367
813.138	28394
813.279	28493
813.421	28253
813.562	28306
813.703	28093
813.845	27907
813.986	27629
814.127	27473
814.268	27443
814.41	27717
814.551	27264
814.692	27473
814.833	27348
814.974	27241
815.115	27374
815.256	27283
815.397	27264
815.539	27382
815.68	27180
815.821	27142
815.962	27211
816.103	27066
816.244	27211
816.385	27051
816.526	27028
816.666	26925
816.807	26769
816.948	26746
817.089	26785
817.23	26804
817.371	26731
817.512	26606
817.653	26590
817.793	26476
817.934	26651
818.075	26693
818.216	26769
818.356	26762
818.497	26571
818.638	26480
818.778	26396
818.919	26495
819.06	26469
819.2	26484
819.341	26636
819.481	26701
819.622	26724
819.762	26994
819.903	26800
820.043	26849
820.184	26796
820.324	26887
820.465	26796
820.605	26800
820.746	26712
820.886	26590
821.026	26693
821.167	26785
821.307	26857
821.447	26682
821.588	26545
821.728	26313
821.868	26271
822.008	26149
822.149	26145
822.289	26020
822.429	25879
822.569	25902
822.709	25788
822.849	25776
822.99	25761
823.13	25677
823.27	25613
823.41	25377
823.55	25381
823.69	25464
823.83	25479
823.97	25426
824.11	25297
824.25	25285
824.389	25278
824.529	25354
824.669	25358
824.809	25510
824.949	25396
825.089	25491
825.228	25472
825.368	25251
825.508	25148
825.648	25160
825.787	25133
825.927	25164
826.067	25137
826.206	25175
826.346	25217
826.485	25251
826.625	25263
826.765	25247
826.904	25312
827.044	24943
827.183	25004
827.323	24795
827.462	24954
827.601	24913
827.741	24798
827.88	24867
828.02	24745
828.159	24795
828.298	24909
828.437	25076
828.577	24829
828.716	24943
828.855	24886
828.994	24623
829.134	24525
829.273	24703
829.412	24677
829.551	24521
829.69	24540
829.829	24532
829.968	24631
830.107	24753
830.246	24631
830.385	24483
830.524	24471
830.663	24327
830.802	24338
830.941	24201
831.08	24182
831.219	24350
831.357	24273
831.496	24433
831.635	24209
831.774	24060
831.913	24072
832.051	24049
832.19	24129
832.329	24102
832.467	23950
832.606	23863
832.744	23916
832.883	23783
833.022	23764
833.16	23817
833.299	23942
833.437	23870
833.576	23999
833.714	23996
833.852	23904
833.991	23946
834.129	24034
834.267	23988
834.406	23980
834.544	23889
834.682	23897
834.821	23901
834.959	23969
835.097	23821
835.235	24015
835.373	23984
835.511	24045
835.65	23828
835.788	23726
835.926	23490
836.064	23551
836.202	23619
836.34	23821
836.478	23912
836.615	23756
836.753	23714
836.891	23748
837.029	23672
837.167	23699
837.305	23695
837.443	23672
837.58	23577
837.718	23676
837.856	23653
837.993	23608
838.131	23623
838.269	23459
838.406	23520
838.544	23414
838.681	23322
838.819	23174
838.956	23086
839.094	22991
839.231	23071
839.369	23132
839.506	23490
839.643	23364
839.781	23147
839.918	23029
840.055	23113
840.193	22999
840.33	22934
840.467	23086
840.604	22995
840.742	23360
840.879	22923
841.016	23003
841.153	22858
841.29	23018
841.427	22942
841.564	22991
841.701	22911
841.838	23041
841.975	23010
842.112	22793
842.249	22767
842.385	22698
842.522	23037
842.659	22816
842.796	22831
842.933	22675
843.069	22790
843.206	22710
843.343	22736
843.479	22706
843.616	22824
843.752	22588
843.889	22752
844.025	22535
844.162	22497
844.298	22702
844.435	22527
844.571	22432
844.708	22440
844.844	22740
844.98	22717
845.117	22687
845.253	22390
845.389	22455
845.525	22413
845.661	22557
845.798	22185
845.934	22363
846.07	22325
846.206	22318
846.342	22478
846.478	22272
846.614	22074
846.75	21930
846.886	22032
847.022	22120
847.158	22074
847.294	22101
847.429	22036
847.565	21937
847.701	22219
847.837	21797
847.972	21717
848.108	21911
848.244	21895
848.379	21663
848.515	21591
848.65	21488
848.786	21595
848.921	21686
849.057	21785
849.192	21713
849.328	21652
849.463	21595
849.598	21534
849.734	21530
849.869	21557
850.004	21386
850.14	21344
850.275	21310
850.41	21302
850.545	21325
850.68	21405
850.815	21511
850.95	21355
851.085	21500
851.22	21443
851.355	21382
851.49	21496
851.625	21325
851.76	21287
851.895	21233
852.03	21363
852.165	21386
852.299	21401
852.434	21469
852.569	21431
852.703	21431
852.838	21340
852.973	21515
853.107	21397
853.242	21256
853.376	21226
853.511	21119
853.645	21169
853.78	21226
853.914	21096
854.048	21138
854.183	21195
854.317	21245
854.451	21431
854.585	21192
854.72	21233
854.854	21249
854.988	21116
855.122	21233
855.256	21093
855.39	21096
855.524	21180
855.658	21195
855.792	21226
855.926	21176
856.06	21260
856.194	21310
856.327	21226
856.461	21176
856.595	21176
856.729	21184
856.862	21211
856.996	21131
857.13	21260
857.263	21313
857.397	21268
857.53	21077
857.664	21260
857.797	21249
857.931	21272
858.064	21180
858.197	21233
858.331	21233
858.464	21192
858.597	21093
858.731	21157
858.864	21108
858.997	21211
859.13	21241
859.263	21203
859.396	21218
859.529	21165
859.662	21192
859.795	21096
859.928	21161
860.061	21207
860.194	21294
860.327	21256
860.46	21233
860.592	21275
860.725	21408
860.858	21310
860.99	21138
861.123	21154
861.256	21222
861.388	21161
861.521	21831
861.653	21020
861.786	20762
861.918	21051
862.05	21127
862.183	21150
862.315	21058
862.447	21207
862.58	21100
862.712	20952
862.844	20872
862.976	21001
863.108	21020
863.24	21344
863.372	20929
863.504	20887
863.636	20960
863.768	21013
863.9	20876
864.032	20887
864.164	20807
864.296	20963
864.428	20979
864.559	20853
864.691	21017
864.823	20952
864.954	20899
865.086	20895
865.217	20891
865.349	20686
865.48	20792
865.612	20785
865.743	20914
865.875	20834
866.006	20853
866.137	20758
866.269	20823
866.4	20857
866.531	20724
866.662	20708
866.793	20838
866.924	20659
867.055	20834
867.186	20701
867.317	20689
867.448	20712
867.579	20667
867.71	20625
867.841	20659
867.972	20697
868.103	20743
868.233	20754
868.364	20773
868.495	20845
868.625	20960
868.756	21142
868.886	20868
869.017	21108
869.147	21108
869.278	20998
869.408	21070
869.539	20872
869.669	20994
869.799	20986
869.929	21032
870.06	21089
870.19	21184
870.32	21237
870.45	21401
870.58	21348
870.71	21488
870.84	21447
870.97	21428
871.1	21408
871.23	21534
871.36	21549
871.489	21428
871.619	21538
871.749	21466
871.879	21603
872.008	21610
872.138	21412
872.267	21538
872.397	21412
872.526	21351
872.656	21488
872.785	21298
872.915	21663
873.044	21488
873.173	21557
873.303	21595
873.432	21656
873.561	21717
873.69	21614
873.819	21785
873.948	21595
874.077	21599
874.206	21656
874.335	21500
874.464	21622
874.593	21873
874.722	21816
874.851	21781
874.979	21778
875.108	21876
875.237	21755
875.365	21694
875.494	21835
875.623	21800
875.751	21713
875.88	21793
876.008	21968
876.136	22048
876.265	22200
876.393	22299
876.521	22371
876.65	22230
876.778	22158
876.906	22158
877.034	22177
877.162	22215
877.29	22082
877.418	22177
877.546	22177
877.674	22200
877.802	22169
877.93	22093
878.058	22063
878.185	22128
878.313	22112
878.441	22215
878.568	21953
878.696	22010
878.824	22147
878.951	22226
879.079	22508
879.206	22459
879.333	22299
879.461	22261
879.588	22185
879.715	22314
879.842	22462
879.97	22257
880.097	22059
880.224	21983
880.351	21899
880.478	22070
880.605	21854
880.732	21945
880.859	22162
880.986	21915
881.112	21945
881.239	21831
881.366	21728
881.493	21542
881.619	21519
881.746	21641
881.872	21545
881.999	21606
882.125	21553
882.252	21622
882.378	21488
882.505	21667
882.631	21397
882.757	21367
882.883	21382
883.01	21325
883.136	21142
883.262	21283
883.388	21256
883.514	21169
883.64	21291
883.766	21294
883.892	21093
884.018	21123
884.143	21272
884.269	21355
884.395	21108
884.52	20933
884.646	20979
884.772	20861
884.897	20910
885.023	20937
885.148	21047
885.274	21032
885.399	21093
885.524	20883
885.65	21036
885.775	20967
885.9	20925
886.025	21096
886.15	20971
886.275	20899
886.4	20758
886.525	20952
886.65	20857
886.775	20880
886.9	20963
887.025	21131
887.149	20925
887.274	20765
887.399	20727
887.523	20655
887.648	20621
887.773	20629
887.897	20739
888.021	20811
888.146	20655
888.27	20735
888.395	20746
888.519	20724
888.643	20754
888.767	20804
888.891	20590
889.015	20526
889.139	20514
889.263	20564
889.387	20545
889.511	20716
889.635	20629
889.759	20556
889.883	20480
890.006	20476
890.13	20636
890.254	20339
890.377	20400
890.501	20195
890.624	20286
890.748	20309
890.871	20115
890.995	20130
891.118	20031
891.241	20202
891.364	20130
891.488	20115
891.611	20164
891.734	20050
891.857	20130
891.98	20096
892.103	20161
892.226	20081
892.349	19974
892.471	19875
892.594	20035
892.717	19928
892.839	20031
892.962	19879
893.085	20050
893.207	19951
893.33	19928
893.452	19890
893.575	20058
893.697	19970
893.819	20088
893.941	20130
894.064	20153
894.186	19902
894.308	19936
894.43	19982
894.552	20145
894.674	20119
894.796	19932
894.918	20027
895.04	20016
895.161	20043
895.283	20058
895.405	19955
895.526	20016
895.648	20039
895.769	19967
895.891	19963
896.012	20031
896.134	19982
896.255	20031
896.376	19803
896.498	19974
896.619	19982
896.74	20077
896.861	20035
896.982	20275
897.103	20419
897.224	20233
897.345	20240
897.466	20088
897.587	20301
897.708	20412
897.828	20282
897.949	20176
898.07	20100
898.19	20138
898.311	20305
898.431	19959
898.552	20206
898.672	20176
898.792	20210
898.913	20195
899.033	20206
899.153	19925
899.273	19951
899.393	20012
899.513	20069
899.633	20005
899.753	19963
899.873	19875
899.993	20031
900.113	19970
900.232	19989
900.352	19902
900.472	19837
900.591	19852
900.711	19830
900.83	19731
900.95	19871
901.069	19860
901.189	19613
901.308	19354
901.427	19316
901.546	19297
901.665	19331
901.784	19369
901.904	19247
902.023	19152
902.141	18958
902.26	18920
902.379	18977
902.498	18734
902.617	18840
902.735	18890
902.854	18939
902.973	18673
903.091	18639
903.21	18509
903.328	18502
903.446	18471
903.565	18433
903.683	18426
903.801	18254
903.919	18296
904.038	18235
904.156	18239
904.274	18182
904.392	18125
904.51	18003
904.627	18049
904.745	18178
904.863	18049
904.981	17840
905.098	17809
905.216	17893
905.334	17779
905.451	17836
905.569	17786
905.686	17699
905.803	17817
905.921	17554
906.038	17646
906.155	17642
906.272	17425
906.389	17459
906.506	17349
906.623	17387
906.74	17265
906.857	17159
906.974	17231
907.091	17299
907.208	17387
907.324	17307
907.441	17189
907.557	17105
907.674	17014
907.79	17025
907.907	17022
908.023	16995
908.139	17064
908.256	16934
908.372	16991
908.488	16767
908.604	16683
908.72	16717
908.836	16668
908.952	16793
909.068	16771
909.184	16824
909.3	16733
909.415	16679
909.531	16687
909.647	16451
909.762	16462
909.878	16428
909.993	16478
910.108	16424
910.224	16508
910.339	16428
910.454	16352
910.57	16291
910.685	16169
910.8	16478
910.915	16466
911.03	16318
911.145	16166
911.259	16059
911.374	15884
911.489	15998
911.604	15880
911.718	15686
911.833	15751
911.947	15656
912.062	15690
912.176	15762
912.291	15686
912.405	15797
912.519	15918
912.633	15949
912.748	15747
912.862	15762
912.976	15603
913.09	15485
913.204	15538
913.318	15656
913.431	15591
913.545	15644
913.659	15652
913.772	15534
913.886	15584
914	15344
914.113	15534
914.226	15534
914.34	15389
914.453	15367
914.566	15549
914.68	15344
914.793	15275
914.906	15123
915.019	15036
915.132	14895
915.245	15020
915.358	15062
915.47	15085
915.583	15005
915.696	15062
915.809	15180
915.921	15127
916.034	14967
916.146	14979
916.259	14979
916.371	15020
916.483	14925
916.595	14826
916.708	14933
916.82	14937
916.932	14746
917.044	14804
917.156	14815
917.268	14750
917.38	14731
917.491	14682
917.603	14689
917.715	14769
917.826	14720
917.938	14648
918.049	14488
918.161	14773
918.272	14724
918.384	14754
918.495	14598
918.606	14499
918.717	14370
918.828	14499
918.939	14442
919.05	14339
919.161	14461
919.272	14267
919.383	14305
919.494	14450
919.604	14594
919.715	14374
919.826	14309
919.936	14366
920.047	14518
920.157	14362
920.267	14590
920.378	14324
920.488	14290
920.598	14511
920.708	14697
920.818	14617
920.928	14545
921.038	14663
921.148	14701
921.258	14336
921.368	14271
921.477	14161
921.587	14210
921.697	14035
921.806	14130
921.916	14008
922.025	13864
922.134	13784
922.244	13662
922.353	13757
922.462	13609
922.571	13556
922.68	13388
922.789	13438
922.898	13426
923.007	13388
923.116	13415
923.224	13388
923.333	13335
923.442	13285
923.55	13228
923.659	13354
923.767	13396
923.876	13206
923.984	13369
924.092	13225
924.201	13213
924.309	13251
924.417	13304
924.525	13133
924.633	13061
924.741	13890
924.849	12928
924.956	13061
925.064	12882
925.172	12894
925.279	12867
925.387	12890
925.494	12783
925.602	12916
925.709	12932
925.816	12726
925.924	12840
926.031	12829
926.138	12821
926.245	12810
926.352	12730
926.459	12916
926.566	12749
926.673	12696
926.779	12654
926.886	12604
926.993	12555
927.099	12475
927.206	12410
927.312	12334
927.419	12437
927.525	12464
927.631	12376
927.737	12254
927.843	12277
927.95	12106
928.056	12220
928.162	12220
928.267	12273
928.373	12951
928.479	12342
928.585	12076
928.69	12178
928.796	12342
928.901	12068
929.007	11958
929.112	12102
929.218	12110
929.323	11984
929.428	11980
929.533	12140
929.638	11901
929.743	11992
929.848	12038
929.953	11908
930.058	11733
930.163	11585
930.267	11668
930.372	11855
930.477	11585
930.581	11847
930.685	11707
930.79	11619
930.894	11543
930.998	11558
931.103	11672
931.207	11368
931.311	11307
931.415	11235
931.519	11033
931.623	10946
