Data from test_V78500241_3605.txt Node
Date: Fri Mar 25 15:34:57 CST 2022
User: usil
Spectrometer: V785-0024
Trigger mode: 0
Integration Time (sec): 4.000000E-1
Scans to average: 1
Nonlinearity correction enabled: false
Boxcar width: 0
Storing dark spectrum: false
XAxis mode: Wavelengths
Number of Pixels in Spectrum: 1024
>>>>>Begin Spectral Data<<<<<
801.071	27310
801.214	27192
801.356	26918
801.499	26979
801.641	26815
801.783	26967
801.926	26807
802.068	26861
802.211	26648
802.353	26724
802.496	26556
802.638	26511
802.78	26473
802.923	26355
803.065	26313
803.208	26317
803.35	26469
803.492	26473
803.635	26575
803.777	26556
803.919	26663
804.061	26876
804.204	26625
804.346	26530
804.488	26598
804.63	26632
804.773	26480
804.915	26640
805.057	26773
805.199	26541
805.341	26701
805.483	26769
805.626	26621
805.768	26560
805.91	26686
806.052	26765
806.194	26754
806.336	26887
806.478	26727
806.62	26792
806.762	26804
806.904	26910
807.046	27161
807.188	27135
807.33	27157
807.472	27237
807.614	27017
807.756	27112
807.898	26998
808.04	26963
808.182	27055
808.324	26986
808.465	26948
808.607	27074
808.749	27412
808.891	27454
809.033	27427
809.174	27416
809.316	27317
809.458	27344
809.6	27291
809.741	27401
809.883	27382
810.025	27686
810.166	27469
810.308	27610
810.45	27618
810.591	27576
810.733	27325
810.875	27321
811.016	27233
811.158	27272
811.299	27504
811.441	27496
811.582	27466
811.724	27313
811.865	27321
812.007	27306
812.148	27279
812.29	27336
812.431	27462
812.573	27511
812.714	27781
812.855	27660
812.997	27903
813.138	28055
813.279	28002
813.421	27869
813.562	27800
813.703	27641
813.845	27583
813.986	27230
814.127	27081
814.268	26940
814.41	26902
814.551	26944
814.692	27032
814.833	26971
814.974	26933
815.115	27066
815.256	26849
815.397	26853
815.539	26796
815.68	26815
815.821	26762
815.962	26880
816.103	26773
816.244	26655
816.385	26613
816.526	26473
816.666	26476
816.807	26225
816.948	26282
817.089	26355
817.23	26305
817.371	26320
817.512	26271
817.653	26195
817.793	26218
817.934	26347
818.075	26267
818.216	26301
818.356	26271
818.497	26134
818.638	25947
818.778	25982
818.919	26069
819.06	25974
819.2	26309
819.341	26214
819.481	26157
819.622	26552
819.762	26613
819.903	26453
820.043	26408
820.184	26434
820.324	26389
820.465	26343
820.605	26278
820.746	26336
820.886	26183
821.026	26301
821.167	26317
821.307	26465
821.447	26305
821.588	26164
821.728	25966
821.868	25925
822.008	25772
822.149	25666
822.289	25803
822.429	25590
822.569	25483
822.709	25381
822.849	25232
822.99	25202
823.13	25156
823.27	25065
823.41	25053
823.55	24920
823.69	24947
823.83	25050
823.97	25046
824.11	24863
824.25	24802
824.389	24951
824.529	24852
824.669	24802
824.809	24985
824.949	24894
825.089	25053
825.228	24909
825.368	24734
825.508	24681
825.648	24719
825.787	24745
825.927	24814
826.067	24741
826.206	24738
826.346	24844
826.485	24817
826.625	24802
826.765	24867
826.904	24814
827.044	24627
827.183	24376
827.323	24445
827.462	24563
827.601	24498
827.741	24513
827.88	24513
828.02	24266
828.159	24346
828.298	24490
828.437	24502
828.577	24277
828.716	24532
828.855	24330
828.994	24102
829.134	24239
829.273	24095
829.412	24190
829.551	24076
829.69	24038
829.829	24129
829.968	24285
830.107	24182
830.246	24136
830.385	24072
830.524	24136
830.663	24102
830.802	23927
830.941	23889
831.08	23703
831.219	23866
831.357	23942
831.496	23863
831.635	23817
831.774	23714
831.913	23710
832.051	23577
832.19	23406
832.329	23718
832.467	23497
832.606	23398
832.744	23471
832.883	23455
833.022	23296
833.16	23490
833.299	23528
833.437	23547
833.576	23482
833.714	23566
833.852	23615
833.991	23573
834.129	23630
834.267	23627
834.406	23547
834.544	23630
834.682	23573
834.821	23512
834.959	23661
835.097	23341
835.235	23668
835.373	23581
835.511	23531
835.65	23467
835.788	23486
835.926	23322
836.064	23124
836.202	23246
836.34	23440
836.478	23398
836.615	23444
836.753	23341
836.891	23299
837.029	23383
837.167	23322
837.305	23269
837.443	23204
837.58	23227
837.718	23242
837.856	23254
837.993	23254
838.131	23193
838.269	23128
838.406	23117
838.544	22972
838.681	22812
838.819	22889
838.956	22733
839.094	22687
839.231	22820
839.369	22820
839.506	23155
839.643	22923
839.781	22748
839.918	22733
840.055	22740
840.193	22698
840.33	22554
840.467	22820
840.604	22790
840.742	22995
840.879	22538
841.016	22573
841.153	22497
841.29	22835
841.427	22557
841.564	22782
841.701	22603
841.838	22523
841.975	22637
842.112	22618
842.249	22512
842.385	22508
842.522	22694
842.659	22478
842.796	22508
842.933	22512
843.069	22348
843.206	22382
843.343	22512
843.479	22386
843.616	22318
843.752	22150
843.889	22219
844.025	22424
844.162	22207
844.298	22306
844.435	22162
844.571	22265
844.708	22299
844.844	22356
844.98	22386
845.117	22166
845.253	22139
845.389	22128
845.525	22143
845.661	22128
845.798	21907
845.934	21972
846.07	21911
846.206	21960
846.342	22002
846.478	21899
846.614	21869
846.75	21625
846.886	21679
847.022	21736
847.158	21690
847.294	21629
847.429	21739
847.565	21652
847.701	21899
847.837	21397
847.972	21424
848.108	21431
848.244	21542
848.379	21397
848.515	21207
848.65	21161
848.786	21165
848.921	21161
849.057	21363
849.192	21287
849.328	21355
849.463	21264
849.598	21173
849.734	21055
849.869	21169
850.004	21051
850.14	20986
850.275	21161
850.41	20895
850.545	20975
850.68	21028
850.815	21066
850.95	20971
851.085	21275
851.22	21104
851.355	20963
851.49	21009
851.625	21074
851.76	21032
851.895	20956
852.03	20887
852.165	21036
852.299	21154
852.434	21173
852.569	21055
852.703	21058
852.838	21104
852.973	21108
853.107	21135
853.242	21047
853.376	20845
853.511	20705
853.645	20849
853.78	20941
853.914	20834
854.048	20880
854.183	20834
854.317	20895
854.451	21123
854.585	20891
854.72	20842
854.854	20998
854.988	20933
855.122	21005
855.256	20773
855.39	20758
855.524	20902
855.658	20861
855.792	20864
855.926	21001
856.06	20792
856.194	20952
856.327	20796
856.461	20849
856.595	20712
856.729	20800
856.862	20861
856.996	20918
857.13	20754
857.263	20838
857.397	20876
857.53	20842
857.664	20906
857.797	20796
857.931	20982
858.064	20979
858.197	20876
858.331	20834
858.464	20739
858.597	20769
858.731	20823
858.864	20838
858.997	20899
859.13	20929
859.263	20925
859.396	20914
859.529	20910
859.662	20849
859.795	20880
859.928	20933
860.061	21127
860.194	21081
860.327	20895
860.46	20811
860.592	20933
860.725	21001
860.858	20967
860.99	20937
861.123	20686
861.256	20804
861.388	20788
861.521	21739
861.653	20655
861.786	20659
861.918	20750
862.05	20876
862.183	20804
862.315	20891
862.447	20891
862.58	20811
862.712	20663
862.844	20492
862.976	20697
863.108	20579
863.24	20861
863.372	20415
863.504	20590
863.636	20492
863.768	20495
863.9	20583
864.032	20469
864.164	20431
864.296	20526
864.428	20632
864.559	20629
864.691	20678
864.823	20590
864.954	20575
865.086	20457
865.217	20537
865.349	20461
865.48	20427
865.612	20503
865.743	20625
865.875	20495
866.006	20469
866.137	20560
866.269	20434
866.4	20408
866.531	20438
866.662	20385
866.793	20370
866.924	20415
867.055	20454
867.186	20545
867.317	20400
867.448	20358
867.579	20336
867.71	20438
867.841	20294
867.972	20332
868.103	20374
868.233	20408
868.364	20385
868.495	20488
868.625	20621
868.756	20800
868.886	20594
869.017	20632
869.147	20769
869.278	20788
869.408	20609
869.539	20617
869.669	20800
869.799	20815
869.929	20743
870.06	20636
870.19	20872
870.32	20994
870.45	20952
870.58	20979
870.71	21142
870.84	21226
870.97	21032
871.1	21131
871.23	21321
871.36	21188
871.489	21161
871.619	21260
871.749	21131
871.879	21275
872.008	21332
872.138	21344
872.267	21294
872.397	21157
872.526	21104
872.656	21062
872.785	21066
872.915	21291
873.044	21473
873.173	21218
873.303	21294
873.432	21351
873.561	21325
873.69	21447
873.819	21233
873.948	21386
874.077	21408
874.206	21188
874.335	21264
874.464	21462
874.593	21625
874.722	21481
874.851	21553
874.979	21618
875.108	21561
875.237	21507
875.365	21416
875.494	21595
875.623	21637
875.751	21572
875.88	21526
876.008	21656
876.136	21743
876.265	21922
876.393	22120
876.521	22002
876.65	22166
876.778	21865
876.906	21926
877.034	21922
877.162	21922
877.29	21739
877.418	21911
877.546	21915
877.674	21972
877.802	21869
877.93	21888
878.058	21884
878.185	21797
878.313	21842
878.441	21835
878.568	21743
878.696	21827
878.824	21953
878.951	21949
879.079	21998
879.206	22226
879.333	21953
879.461	21884
879.588	21899
879.715	22059
879.842	22112
879.97	21960
880.097	21743
880.224	21660
880.351	21637
880.478	21770
880.605	21709
880.732	21785
880.859	21979
880.986	21724
881.112	21667
881.239	21561
881.366	21500
881.493	21310
881.619	21291
881.746	21428
881.872	21245
881.999	21279
882.125	21249
882.252	21363
882.378	21275
882.505	21351
882.631	21058
882.757	21032
882.883	21070
883.01	21112
883.136	20910
883.262	20853
883.388	20864
883.514	20982
883.64	21039
883.766	20902
883.892	20750
884.018	20849
884.143	20979
884.269	20960
884.395	20705
884.52	20560
884.646	20701
884.772	20594
884.897	20503
885.023	20667
885.148	20632
885.274	20762
885.399	20811
885.524	20788
885.65	20689
885.775	20636
885.9	20716
886.025	20708
886.15	20735
886.275	20625
886.4	20568
886.525	20621
886.65	20556
886.775	20530
886.9	20651
887.025	20834
887.149	20571
887.274	20480
887.399	20404
887.523	20343
887.648	20438
887.773	20336
887.897	20503
888.021	20476
888.146	20419
888.27	20564
888.395	20442
888.519	20423
888.643	20499
888.767	20457
888.891	20309
889.015	20229
889.139	20294
889.263	20130
889.387	20362
889.511	20480
889.635	20278
889.759	20256
889.883	20229
890.006	20122
890.13	20256
890.254	20172
890.377	20027
890.501	19955
890.624	19879
890.748	19982
890.871	19849
890.995	19685
891.118	19700
891.241	19742
891.364	19841
891.488	19921
891.611	19833
891.734	19814
891.857	19856
891.98	19803
892.103	19807
892.226	19818
892.349	19750
892.471	19700
892.594	19715
892.717	19715
892.839	19651
892.962	19658
893.085	19826
893.207	19693
893.33	19548
893.452	19624
893.575	19799
893.697	19635
893.819	19890
893.941	19947
894.064	19841
894.186	19647
894.308	19651
894.43	19772
894.552	19845
894.674	19761
894.796	19597
894.918	19647
895.04	19677
895.161	19818
895.283	19814
895.405	19613
895.526	19750
895.648	19738
895.769	19708
895.891	19693
896.012	19776
896.134	19753
896.255	19750
896.376	19662
896.498	19784
896.619	19769
896.74	19784
896.861	19811
896.982	20100
897.103	20126
897.224	19936
897.345	19955
897.466	19837
897.587	19864
897.708	20058
897.828	19890
897.949	19887
898.07	19780
898.19	19993
898.311	20012
898.431	19902
898.552	19947
898.672	20046
898.792	19978
898.913	19947
899.033	19833
899.153	19712
899.273	19529
899.393	19719
899.513	19761
899.633	19662
899.753	19575
899.873	19590
899.993	19662
900.113	19582
900.232	19731
900.352	19605
900.472	19556
900.591	19377
900.711	19464
900.83	19354
900.95	19556
901.069	19540
901.189	19316
901.308	19099
901.427	18932
901.546	19114
901.665	19031
901.784	19012
901.904	18878
902.023	18875
902.141	18681
902.26	18525
902.379	18707
902.498	18551
902.617	18429
902.735	18502
902.854	18559
902.973	18471
903.091	18289
903.21	18174
903.328	18247
903.446	18133
903.565	18178
903.683	18117
903.801	17988
903.919	18030
904.038	17969
904.156	17897
904.274	17946
904.392	17809
904.51	17824
904.627	17870
904.745	17878
904.863	17866
904.981	17634
905.098	17524
905.216	17497
905.334	17608
905.451	17592
905.569	17436
905.686	17474
905.803	17528
905.921	17311
906.038	17398
906.155	17318
906.272	17200
906.389	17216
906.506	17056
906.623	17098
906.74	17033
906.857	16866
906.974	16961
907.091	17067
907.208	17143
907.324	17094
907.441	16873
907.557	16816
907.674	16721
907.79	16793
907.907	16778
908.023	16831
908.139	16694
908.256	16660
908.372	16748
908.488	16641
908.604	16519
908.72	16371
908.836	16550
908.952	16386
909.068	16596
909.184	16596
909.3	16455
909.415	16455
909.531	16402
909.647	16112
909.762	16086
909.878	16097
909.993	16207
910.108	16219
910.224	16158
910.339	16128
910.454	16063
910.57	15956
910.685	15945
910.8	16306
910.915	16215
911.03	16055
911.145	15972
911.259	15789
911.374	15739
911.489	15781
911.604	15622
911.718	15614
911.833	15584
911.947	15515
912.062	15443
912.176	15595
912.291	15629
912.405	15587
912.519	15743
912.633	15778
912.748	15656
912.862	15526
912.976	15405
913.09	15207
913.204	15359
913.318	15386
913.431	15511
913.545	15416
913.659	15416
913.772	15252
913.886	15268
914	15146
914.113	15184
914.226	15287
914.34	15241
914.453	15077
914.566	15275
914.68	15001
914.793	14979
914.906	14883
915.019	14762
915.132	14743
915.245	14811
915.358	14823
915.47	14826
915.583	14842
915.696	14880
915.809	14948
915.921	14895
916.034	14640
916.146	14701
916.259	14651
916.371	14781
916.483	14750
916.595	14598
916.708	14636
916.82	14602
916.932	14659
917.044	14648
917.156	14594
917.268	14476
917.38	14431
917.491	14450
917.603	14564
917.715	14450
917.826	14648
917.938	14492
918.049	14313
918.161	14317
918.272	14476
918.384	14594
918.495	14343
918.606	14229
918.717	14210
918.828	14225
918.939	14214
919.05	14126
919.161	14199
919.272	14058
919.383	14069
919.494	14191
919.604	14347
919.715	14263
919.826	14123
919.936	14088
920.047	14229
920.157	14237
920.267	14347
920.378	14115
920.488	14054
920.598	14419
920.708	14396
920.818	14309
920.928	14351
921.038	14454
921.148	14434
921.258	14172
921.368	14081
921.477	13902
921.587	13898
921.697	13830
921.806	13947
921.916	13818
922.025	13647
922.134	13529
922.244	13582
922.353	13636
922.462	13438
922.571	13369
922.68	13289
922.789	13232
922.898	13225
923.007	13137
923.116	13266
923.224	13179
923.333	13164
923.442	13050
923.55	13156
923.659	13107
923.767	13171
923.876	13012
923.984	13122
924.092	12928
924.201	12935
924.309	12966
924.417	12985
924.525	12901
924.633	12894
924.741	13761
924.849	12715
924.956	12825
925.064	12730
925.172	12696
925.279	12623
925.387	12730
925.494	12608
925.602	12703
925.709	12715
925.816	12513
925.924	12585
926.031	12589
926.138	12658
926.245	12650
926.352	12540
926.459	12532
926.566	12692
926.673	12483
926.779	12414
926.886	12418
926.993	12311
927.099	12171
927.206	12117
927.312	12121
927.419	12258
927.525	12251
927.631	12270
927.737	12114
927.843	12114
927.95	11992
928.056	11961
928.162	12167
928.267	12114
928.373	12536
928.479	12155
928.585	11874
928.69	12019
928.796	11988
928.901	11954
929.007	11847
929.112	11923
929.218	11874
929.323	11779
929.428	11745
929.533	11988
929.638	11786
929.743	11775
929.848	11764
929.953	11741
930.058	11665
930.163	11417
930.267	11532
930.372	11630
930.477	11391
930.581	11707
930.685	11471
930.79	11364
930.894	11326
930.998	11330
931.103	11516
931.207	11189
931.311	11041
931.415	10930
931.519	10752
931.623	10755
