Data from test_V78500241_1355.txt Node
Date: Fri Mar 25 15:19:17 CST 2022
User: usil
Spectrometer: V785-0024
Trigger mode: 0
Integration Time (sec): 4.000000E-1
Scans to average: 1
Nonlinearity correction enabled: false
Boxcar width: 0
Storing dark spectrum: false
XAxis mode: Wavelengths
Number of Pixels in Spectrum: 1024
>>>>>Begin Spectral Data<<<<<
801.071	28333
801.214	28234
801.356	27854
801.499	27785
801.641	27747
801.783	27751
801.926	27705
802.068	27701
802.211	27644
802.353	27709
802.496	27397
802.638	27424
802.78	27401
802.923	27325
803.065	27420
803.208	27241
803.35	27427
803.492	27599
803.635	27644
803.777	27431
803.919	27587
804.061	27968
804.204	27705
804.346	27443
804.488	27618
804.63	27587
804.773	27488
804.915	27675
805.057	27705
805.199	27583
805.341	27717
805.483	27774
805.626	27648
805.768	27591
805.91	27622
806.052	27804
806.194	27679
806.336	27998
806.478	27812
806.62	27789
806.762	27926
806.904	28074
807.046	28341
807.188	28200
807.33	28128
807.472	28219
807.614	28093
807.756	28181
807.898	27945
808.04	27922
808.182	27960
808.324	28105
808.465	28128
808.607	28238
808.749	28398
808.891	28481
809.033	28497
809.174	28519
809.316	28348
809.458	28363
809.6	28440
809.741	28550
809.883	28512
810.025	28645
810.166	28672
810.308	28626
810.45	28675
810.591	28569
810.733	28363
810.875	28303
811.016	28261
811.158	28280
811.299	28462
811.441	28634
811.582	28550
811.724	28474
811.865	28367
812.007	28421
812.148	28295
812.29	28493
812.431	28561
812.573	28759
812.714	28820
812.855	28869
812.997	29029
813.138	29185
813.279	28927
813.421	29006
813.562	28835
813.703	28698
813.845	28653
813.986	28417
814.127	28124
814.268	28242
814.41	28169
814.551	28131
814.692	28185
814.833	28013
814.974	28048
815.115	27972
815.256	27979
815.397	28017
815.539	27998
815.68	27884
815.821	27827
815.962	28051
816.103	27827
816.244	27618
816.385	27709
816.526	27724
816.666	27538
816.807	27279
816.948	27591
817.089	27644
817.23	27473
817.371	27287
817.512	27344
817.653	27264
817.793	27302
817.934	27302
818.075	27488
818.216	27321
818.356	27485
818.497	27294
818.638	27096
818.778	27100
818.919	27165
819.06	27249
819.2	27279
819.341	27283
819.481	27382
819.622	27553
819.762	27736
819.903	27675
820.043	27526
820.184	27591
820.324	27485
820.465	27568
820.605	27492
820.746	27496
820.886	27214
821.026	27477
821.167	27519
821.307	27530
821.447	27386
821.588	27287
821.728	27100
821.868	26998
822.008	26750
822.149	26853
822.289	26830
822.429	26594
822.569	26568
822.709	26602
822.849	26396
822.99	26214
823.13	26336
823.27	26259
823.41	26103
823.55	26058
823.69	26298
823.83	26221
823.97	26138
824.11	25993
824.25	25932
824.389	25936
824.529	26008
824.669	26035
824.809	26164
824.949	26062
825.089	26020
825.228	26164
825.368	25921
825.508	25898
825.648	25906
825.787	25913
825.927	26016
826.067	25947
826.206	25921
826.346	25951
826.485	25925
826.625	25780
826.765	26168
826.904	25875
827.044	25731
827.183	25746
827.323	25685
827.462	25719
827.601	25563
827.741	25632
827.88	25738
828.02	25479
828.159	25616
828.298	25582
828.437	25567
828.577	25571
828.716	25658
828.855	25529
828.994	25301
829.134	25400
829.273	25362
829.412	25198
829.551	25236
829.69	25236
829.829	25400
829.968	25270
830.107	25373
830.246	25266
830.385	25240
830.524	25213
830.663	25175
830.802	25088
830.941	24905
831.08	24817
831.219	25168
831.357	25023
831.496	25031
831.635	24783
831.774	24795
831.913	24654
832.051	24909
832.19	24559
832.329	24669
832.467	24749
832.606	24445
832.744	24532
832.883	24715
833.022	24597
833.16	24608
833.299	24597
833.437	24684
833.576	24692
833.714	24544
833.852	24700
833.991	24711
834.129	24760
834.267	24616
834.406	24616
834.544	24722
834.682	24757
834.821	24555
834.959	24802
835.097	24711
835.235	24722
835.373	24597
835.511	24700
835.65	24475
835.788	24399
835.926	24338
836.064	24338
836.202	24338
836.34	24479
836.478	24661
836.615	24494
836.753	24486
836.891	24460
837.029	24635
837.167	24433
837.305	24403
837.443	24445
837.58	24243
837.718	24376
837.856	24258
837.993	24300
838.131	24232
838.269	24327
838.406	24262
838.544	24083
838.681	23927
838.819	23973
838.956	23813
839.094	23779
839.231	23878
839.369	23980
839.506	24114
839.643	23969
839.781	23893
839.918	23813
840.055	23786
840.193	23729
840.33	23611
840.467	23843
840.604	23623
840.742	23874
840.879	23604
841.016	23474
841.153	23543
841.29	23699
841.427	23649
841.564	23756
841.701	23699
841.838	23756
841.975	23570
842.112	23604
842.249	23535
842.385	23417
842.522	23570
842.659	23417
842.796	23421
842.933	23368
843.069	23356
843.206	23364
843.343	23615
843.479	23379
843.616	23383
843.752	23181
843.889	23307
844.025	23387
844.162	23124
844.298	23273
844.435	23151
844.571	23094
844.708	23231
844.844	23395
844.98	23265
845.117	23326
845.253	23079
845.389	22991
845.525	23178
845.661	23181
845.798	22938
845.934	23052
846.07	22942
846.206	22949
846.342	23018
846.478	23060
846.614	22831
846.75	22630
846.886	22649
847.022	22653
847.158	22672
847.294	22752
847.429	22702
847.565	22573
847.701	22862
847.837	22489
847.972	22462
848.108	22573
848.244	22481
848.379	22436
848.515	22234
848.65	22333
848.786	22299
848.921	22291
849.057	22329
849.192	22382
849.328	22299
849.463	22291
849.598	22249
849.734	22173
849.869	22177
850.004	22002
850.14	22101
850.275	22147
850.41	21979
850.545	21937
850.68	21945
850.815	22078
850.95	21979
851.085	22207
851.22	22238
851.355	22051
851.49	22059
851.625	22032
851.76	21949
851.895	22013
852.03	22002
852.165	22086
852.299	21937
852.434	22082
852.569	22135
852.703	22059
852.838	22082
852.973	22185
853.107	22169
853.242	22013
853.376	21937
853.511	21747
853.645	21831
853.78	21865
853.914	21991
854.048	21869
854.183	21899
854.317	21987
854.451	22040
854.585	21861
854.72	21842
854.854	21884
854.988	21915
855.122	21789
855.256	21789
855.39	21797
855.524	21937
855.658	21857
855.792	21838
855.926	21781
856.06	21857
856.194	22006
856.327	21789
856.461	21717
856.595	21751
856.729	21789
856.862	21918
856.996	21819
857.13	21987
857.263	21949
857.397	21869
857.53	21778
857.664	21823
857.797	21926
857.931	22021
858.064	21956
858.197	21987
858.331	21918
858.464	21899
858.597	21732
858.731	21865
858.864	21770
858.997	21762
859.13	21991
859.263	21835
859.396	21926
859.529	21800
859.662	21972
859.795	21816
859.928	21964
860.061	22029
860.194	22070
860.327	21964
860.46	21793
860.592	22063
860.725	21994
860.858	21968
860.99	21823
861.123	21850
861.256	21717
861.388	21827
861.521	22333
861.653	21751
861.786	21713
861.918	21641
862.05	21720
862.183	21637
862.315	21823
862.447	21861
862.58	21641
862.712	21500
862.844	21553
862.976	21625
863.108	21682
863.24	21861
863.372	21462
863.504	21507
863.636	21591
863.768	21469
863.9	21591
864.032	21492
864.164	21401
864.296	21523
864.428	21667
864.559	21618
864.691	21629
864.823	21538
864.954	21469
865.086	21382
865.217	21576
865.349	21405
865.48	21622
865.612	21424
865.743	21587
865.875	21458
866.006	21428
866.137	21469
866.269	21389
866.4	21351
866.531	21348
866.662	21336
866.793	21397
866.924	21291
867.055	21351
867.186	21405
867.317	21317
867.448	21211
867.579	21412
867.71	21291
867.841	21256
867.972	21321
868.103	21329
868.233	21382
868.364	21397
868.495	21507
868.625	21591
868.756	21793
868.886	21469
869.017	21542
869.147	21766
869.278	21679
869.408	21682
869.539	21485
869.669	21648
869.799	21732
869.929	21717
870.06	21755
870.19	21743
870.32	21861
870.45	22013
870.58	21991
870.71	22059
870.84	22013
870.97	22078
871.1	21975
871.23	22177
871.36	22257
871.489	22101
871.619	22086
871.749	22116
871.879	22200
872.008	22318
872.138	22101
872.267	22162
872.397	21960
872.526	22051
872.656	22013
872.785	21964
872.915	22162
873.044	22287
873.173	22204
873.303	22268
873.432	22150
873.561	22337
873.69	22261
873.819	22215
873.948	22192
874.077	22284
874.206	22154
874.335	22188
874.464	22337
874.593	22436
874.722	22390
874.851	22493
874.979	22424
875.108	22497
875.237	22341
875.365	22360
875.494	22360
875.623	22550
875.751	22417
875.88	22405
876.008	22565
876.136	22683
876.265	22778
876.393	22793
876.521	22900
876.65	22915
876.778	22835
876.906	22763
877.034	22725
877.162	22866
877.29	22717
877.418	22782
877.546	22786
877.674	22801
877.802	22915
877.93	22755
878.058	22607
878.185	22554
878.313	22729
878.441	22698
878.568	22474
878.696	22672
878.824	22934
878.951	22854
879.079	22828
879.206	23098
879.333	22927
879.461	22866
879.588	22873
879.715	22991
879.842	23121
879.97	22797
880.097	22561
880.224	22615
880.351	22717
880.478	22618
880.605	22516
880.732	22573
880.859	22976
880.986	22523
881.112	22443
881.239	22470
881.366	22348
881.493	22284
881.619	22166
881.746	22181
881.872	22204
881.999	22109
882.125	22032
882.252	22181
882.378	22150
882.505	22181
882.631	22036
882.757	21789
882.883	21892
883.01	21823
883.136	21781
883.262	21766
883.388	21732
883.514	21869
883.64	21831
883.766	21705
883.892	21614
884.018	21580
884.143	21728
884.269	21797
884.395	21641
884.52	21519
884.646	21435
884.772	21485
884.897	21367
885.023	21481
885.148	21580
885.274	21549
885.399	21637
885.524	21469
885.65	21397
885.775	21557
885.9	21424
886.025	21564
886.15	21587
886.275	21511
886.4	21351
886.525	21428
886.65	21374
886.775	21466
886.9	21572
887.025	21587
887.149	21386
887.274	21233
887.399	21214
887.523	21332
887.648	21100
887.773	21218
887.897	21332
888.021	21340
888.146	21161
888.27	21291
888.395	21340
888.519	21173
888.643	21351
888.767	21329
888.891	21207
889.015	21028
889.139	21051
889.263	20982
889.387	21138
889.511	21321
889.635	21176
889.759	21176
889.883	21138
890.006	20960
890.13	21093
890.254	21032
890.377	20952
890.501	20834
890.624	20743
890.748	20811
890.871	20727
890.995	20579
891.118	20632
891.241	20674
891.364	20587
891.488	20762
891.611	20670
891.734	20651
891.857	20457
891.98	20720
892.103	20716
892.226	20590
892.349	20590
892.471	20438
892.594	20503
892.717	20503
892.839	20473
892.962	20522
893.085	20530
893.207	20484
893.33	20385
893.452	20499
893.575	20571
893.697	20480
893.819	20522
893.941	20644
894.064	20549
894.186	20431
894.308	20374
894.43	20526
894.552	20621
894.674	20552
894.796	20351
894.918	20579
895.04	20396
895.161	20571
895.283	20438
895.405	20507
895.526	20473
895.648	20469
895.769	20503
895.891	20594
896.012	20606
896.134	20511
896.255	20560
896.376	20362
896.498	20530
896.619	20499
896.74	20526
896.861	20606
896.982	20815
897.103	20941
897.224	20724
897.345	20670
897.466	20727
897.587	20762
897.708	20868
897.828	20720
897.949	20583
898.07	20473
898.19	20602
898.311	20788
898.431	20564
898.552	20765
898.672	20693
898.792	20796
898.913	20788
899.033	20617
899.153	20545
899.273	20362
899.393	20434
899.513	20408
899.633	20484
899.753	20564
899.873	20320
899.993	20469
900.113	20400
900.232	20332
900.352	20286
900.472	20229
900.591	20130
900.711	20275
900.83	20210
900.95	20286
901.069	20298
901.189	20039
901.308	19894
901.427	19795
901.546	19837
901.665	19803
901.784	19799
901.904	19552
902.023	19609
902.141	19483
902.26	19343
902.379	19289
902.498	19354
902.617	19343
902.735	19350
902.854	19304
902.973	19171
903.091	18970
903.21	19038
903.328	18966
903.446	18783
903.565	18753
903.683	18810
903.801	18684
903.919	18635
904.038	18719
904.156	18467
904.274	18654
904.392	18532
904.51	18437
904.627	18490
904.745	18513
904.863	18547
904.981	18353
905.098	18064
905.216	18224
905.334	18254
905.451	18258
905.569	18190
905.686	18251
905.803	18292
905.921	17977
906.038	18072
906.155	18060
906.272	17916
906.389	17969
906.506	17855
906.623	17729
906.74	17695
906.857	17638
906.974	17566
907.091	17775
907.208	17897
907.324	17691
907.441	17608
907.557	17512
907.674	17467
907.79	17398
907.907	17383
908.023	17402
908.139	17509
908.256	17425
908.372	17307
908.488	17292
908.604	17197
908.72	17109
908.836	17132
908.952	17147
909.068	17178
909.184	17261
909.3	17102
909.415	17140
909.531	17086
909.647	16915
909.762	16649
909.878	16866
909.993	16850
910.108	16900
910.224	16858
910.339	16847
910.454	16679
910.57	16603
910.685	16615
910.8	16812
910.915	16717
911.03	16615
911.145	16546
911.259	16436
911.374	16409
911.489	16371
911.604	16310
911.718	16139
911.833	16261
911.947	16124
912.062	16010
912.176	16173
912.291	16112
912.405	16204
912.519	16367
912.633	16325
912.748	16196
912.862	16040
912.976	15975
913.09	15903
913.204	16044
913.318	15956
913.431	16166
913.545	16078
913.659	16112
913.772	16036
913.886	15880
914	15766
914.113	15956
914.226	15869
914.34	15861
914.453	15789
914.566	15793
914.68	15545
914.793	15717
914.906	15496
915.019	15439
915.132	15355
915.245	15424
915.358	15473
915.47	15443
915.583	15340
915.696	15477
915.809	15511
915.921	15523
916.034	15355
916.146	15317
916.259	15359
916.371	15443
916.483	15325
916.595	15260
916.708	15256
916.82	15348
916.932	15169
917.044	15207
917.156	15127
917.268	15051
917.38	15119
917.491	15138
917.603	14990
917.715	15127
917.826	15154
917.938	14986
918.049	14937
918.161	15070
918.272	15108
918.384	15116
918.495	15001
918.606	14921
918.717	14735
918.828	14853
918.939	14895
919.05	14781
919.161	14800
919.272	14610
919.383	14697
919.494	14994
919.604	14948
919.715	14804
919.826	14773
919.936	14826
920.047	14845
920.157	14754
920.267	15036
920.378	14834
920.488	14648
920.598	14906
920.708	15089
920.818	14876
920.928	14956
921.038	15123
921.148	15055
921.258	14773
921.368	14724
921.477	14587
921.587	14587
921.697	14450
921.806	14583
921.916	14339
922.025	14271
922.134	14259
922.244	14138
922.353	14183
922.462	14050
922.571	13864
922.68	13944
922.789	13830
922.898	13784
923.007	13807
923.116	13845
923.224	13753
923.333	13795
923.442	13620
923.55	13643
923.659	13632
923.767	13651
923.876	13624
923.984	13765
924.092	13552
924.201	13518
924.309	13556
924.417	13495
924.525	13468
924.633	13529
924.741	14240
924.849	13236
924.956	13434
925.064	13251
925.172	13110
925.279	13228
925.387	13331
925.494	13202
925.602	13327
925.709	13346
925.816	13046
925.924	13175
926.031	13168
926.138	13023
926.245	13202
926.352	12981
926.459	13164
926.566	13160
926.673	13080
926.779	12867
926.886	12981
926.993	12821
927.099	12802
927.206	12665
927.312	12658
927.419	12772
927.525	12650
927.631	12730
927.737	12639
927.843	12612
927.95	12502
928.056	12551
928.162	12589
928.267	12677
928.373	13126
928.479	12673
928.585	12509
928.69	12582
928.796	12574
928.901	12532
929.007	12262
929.112	12414
929.218	12437
929.323	12342
929.428	12277
929.533	12456
929.638	12224
929.743	12232
929.848	12262
929.953	12224
930.058	12213
930.163	11927
930.267	11942
930.372	12091
930.477	11973
930.581	12175
930.685	11984
930.79	11805
930.894	11889
930.998	11851
931.103	11908
931.207	11630
931.311	11562
931.415	11493
931.519	11284
931.623	11189
