Data from test_V78500241_1459.txt Node
Date: Fri Mar 25 15:20:00 CST 2022
User: usil
Spectrometer: V785-0024
Trigger mode: 0
Integration Time (sec): 4.000000E-1
Scans to average: 1
Nonlinearity correction enabled: false
Boxcar width: 0
Storing dark spectrum: false
XAxis mode: Wavelengths
Number of Pixels in Spectrum: 1024
>>>>>Begin Spectral Data<<<<<
801.071	27747
801.214	27762
801.356	27542
801.499	27351
801.641	27264
801.783	27321
801.926	27431
802.068	27302
802.211	27264
802.353	27233
802.496	26914
802.638	26952
802.78	26948
802.923	26765
803.065	26944
803.208	26853
803.35	26902
803.492	26944
803.635	27104
803.777	27005
803.919	27047
804.061	27488
804.204	27154
804.346	27043
804.488	27154
804.63	27138
804.773	26910
804.915	27173
805.057	27157
805.199	27062
805.341	27275
805.483	27146
805.626	27161
805.768	27070
805.91	27291
806.052	27233
806.194	27150
806.336	27283
806.478	27252
806.62	27214
806.762	27492
806.904	27481
807.046	27652
807.188	27595
807.33	27412
807.472	27648
807.614	27557
807.756	27747
807.898	27576
808.04	27458
808.182	27519
808.324	27698
808.465	27591
808.607	27724
808.749	27930
808.891	28067
809.033	28105
809.174	27907
809.316	27880
809.458	27838
809.6	27873
809.741	28017
809.883	28173
810.025	28173
810.166	28219
810.308	28116
810.45	28147
810.591	28044
810.733	27968
810.875	27823
811.016	27861
811.158	27747
811.299	27983
811.441	27972
811.582	28013
811.724	27926
811.865	27979
812.007	27892
812.148	27823
812.29	28067
812.431	28036
812.573	28318
812.714	28352
812.855	28424
812.997	28538
813.138	28542
813.279	28630
813.421	28428
813.562	28447
813.703	28261
813.845	28105
813.986	27934
814.127	27835
814.268	27603
814.41	27717
814.551	27534
814.692	27553
814.833	27469
814.974	27462
815.115	27599
815.256	27458
815.397	27458
815.539	27504
815.68	27420
815.821	27287
815.962	27298
816.103	27348
816.244	27100
816.385	27165
816.526	27028
816.666	26971
816.807	26811
816.948	26891
817.089	26948
817.23	26838
817.371	26842
817.512	26868
817.653	26838
817.793	26735
817.934	26830
818.075	26895
818.216	26876
818.356	26925
818.497	26758
818.638	26560
818.778	26686
818.919	26674
819.06	26579
819.2	26689
819.341	26804
819.481	26785
819.622	26940
819.762	27203
819.903	27028
820.043	27043
820.184	27032
820.324	26994
820.465	27085
820.605	26887
820.746	26948
820.886	26727
821.026	27020
821.167	26948
821.307	27036
821.447	26906
821.588	26750
821.728	26720
821.868	26533
822.008	26469
822.149	26358
822.289	26252
822.429	26168
822.569	25966
822.709	25978
822.849	25906
822.99	25803
823.13	25803
823.27	25887
823.41	25620
823.55	25540
823.69	25677
823.83	25723
823.97	25643
824.11	25479
824.25	25434
824.389	25476
824.529	25476
824.669	25483
824.809	25609
824.949	25533
825.089	25525
825.228	25483
825.368	25335
825.508	25346
825.648	25282
825.787	25282
825.927	25369
826.067	25324
826.206	25282
826.346	25362
826.485	25320
826.625	25236
826.765	25464
826.904	25308
827.044	25171
827.183	25137
827.323	25080
827.462	25072
827.601	25076
827.741	25118
827.88	25152
828.02	24901
828.159	24962
828.298	24947
828.437	25088
828.577	24977
828.716	25164
828.855	25015
828.994	24673
829.134	24730
829.273	24844
829.412	24627
829.551	24646
829.69	24764
829.829	24764
829.968	24783
830.107	24776
830.246	24787
830.385	24688
830.524	24604
830.663	24597
830.802	24494
830.941	24403
831.08	24311
831.219	24456
831.357	24490
831.496	24646
831.635	24429
831.774	24235
831.913	24247
832.051	24026
832.19	24220
832.329	24072
832.467	24057
832.606	24018
832.744	23927
832.883	24053
833.022	23980
833.16	24087
833.299	24026
833.437	23939
833.576	24140
833.714	24178
833.852	24026
833.991	24026
834.129	24076
834.267	24292
834.406	24038
834.544	24136
834.682	23916
834.821	23920
834.959	24148
835.097	24087
835.235	24038
835.373	23992
835.511	23973
835.65	23923
835.788	23863
835.926	23756
836.064	23832
836.202	23722
836.34	23908
836.478	24007
836.615	23863
836.753	23923
836.891	23912
837.029	24022
837.167	23889
837.305	23878
837.443	23756
837.58	23870
837.718	23817
837.856	23828
837.993	23653
838.131	23783
838.269	23524
838.406	23672
838.544	23600
838.681	23387
838.819	23280
838.956	23136
839.094	23212
839.231	23360
839.369	23315
839.506	23531
839.643	23391
839.781	23105
839.918	23265
840.055	23315
840.193	23121
840.33	23117
840.467	23113
840.604	23132
840.742	23318
840.879	22831
841.016	22980
841.153	22965
841.29	23140
841.427	23147
841.564	23166
841.701	23159
841.838	22934
841.975	22968
842.112	23006
842.249	22900
842.385	22862
842.522	22953
842.659	23006
842.796	22862
842.933	22805
843.069	22858
843.206	22843
843.343	22869
843.479	22866
843.616	22809
843.752	22729
843.889	22592
844.025	22782
844.162	22672
844.298	22736
844.435	22687
844.571	22649
844.708	22717
844.844	22805
844.98	22778
845.117	22797
845.253	22584
845.389	22554
845.525	22421
845.661	22554
845.798	22337
845.934	22474
846.07	22337
846.206	22451
846.342	22523
846.478	22352
846.614	22124
846.75	22029
846.886	22082
847.022	22211
847.158	22200
847.294	22166
847.429	22192
847.565	22044
847.701	22322
847.837	21778
847.972	21808
848.108	21937
848.244	21835
848.379	21800
848.515	21652
848.65	21637
848.786	21686
848.921	21823
849.057	21804
849.192	21827
849.328	21808
849.463	21709
849.598	21644
849.734	21523
849.869	21519
850.004	21473
850.14	21523
850.275	21519
850.41	21416
850.545	21481
850.68	21416
850.815	21488
850.95	21458
851.085	21641
851.22	21568
851.355	21507
851.49	21424
851.625	21458
851.76	21481
851.895	21294
852.03	21420
852.165	21405
852.299	21549
852.434	21469
852.569	21386
852.703	21363
852.838	21485
852.973	21496
853.107	21450
853.242	21523
853.376	21279
853.511	21260
853.645	21173
853.78	21317
853.914	21252
854.048	21340
854.183	21249
854.317	21378
854.451	21382
854.585	21268
854.72	21207
854.854	21241
854.988	21180
855.122	21367
855.256	21138
855.39	21393
855.524	21310
855.658	21329
855.792	21233
855.926	21325
856.06	21313
856.194	21397
856.327	21329
856.461	21310
856.595	21218
856.729	21226
856.862	21401
856.996	21355
857.13	21401
857.263	21454
857.397	21325
857.53	21363
857.664	21359
857.797	21439
857.931	21348
858.064	21256
858.197	21420
858.331	21169
858.464	21287
858.597	21096
858.731	21256
858.864	21283
858.997	21211
859.13	21294
859.263	21374
859.396	21252
859.529	21252
859.662	21287
859.795	21260
859.928	21332
860.061	21389
860.194	21488
860.327	21313
860.46	21291
860.592	21393
860.725	21359
860.858	21401
860.99	21252
861.123	21214
861.256	21150
861.388	21313
861.521	21880
861.653	21192
861.786	21009
861.918	21013
862.05	21214
862.183	21169
862.315	21169
862.447	21310
862.58	21150
862.712	20967
862.844	21017
862.976	21055
863.108	21017
863.24	21401
863.372	20952
863.504	20994
863.636	21043
863.768	21070
863.9	21020
864.032	20876
864.164	20979
864.296	20914
864.428	20948
864.559	21119
864.691	20986
864.823	20883
864.954	21108
865.086	20941
865.217	20933
865.349	20807
865.48	20963
865.612	21013
865.743	20925
865.875	20918
866.006	20933
866.137	20838
866.269	20944
866.4	20823
866.531	20834
866.662	20743
866.793	20682
866.924	20796
867.055	20811
867.186	20849
867.317	20739
867.448	20716
867.579	20716
867.71	20712
867.841	20811
867.972	20815
868.103	20785
868.233	20807
868.364	20796
868.495	21131
868.625	20910
868.756	21074
868.886	20952
869.017	20986
869.147	21066
869.278	21127
869.408	21123
869.539	21013
869.669	21093
869.799	21116
869.929	21188
870.06	21116
870.19	21363
870.32	21321
870.45	21370
870.58	21382
870.71	21466
870.84	21511
870.97	21378
871.1	21473
871.23	21511
871.36	21660
871.489	21580
871.619	21595
871.749	21743
871.879	21591
872.008	21728
872.138	21633
872.267	21641
872.397	21572
872.526	21466
872.656	21416
872.785	21431
872.915	21739
873.044	21747
873.173	21663
873.303	21682
873.432	21743
873.561	21698
873.69	21827
873.819	21713
873.948	21690
874.077	21679
874.206	21526
874.335	21644
874.464	21648
874.593	21937
874.722	21736
874.851	21983
874.979	21945
875.108	22032
875.237	21838
875.365	21812
875.494	21831
875.623	21945
875.751	21808
875.88	21903
876.008	21949
876.136	22055
876.265	22310
876.393	22474
876.521	22386
876.65	22405
876.778	22287
876.906	22276
877.034	22257
877.162	22188
877.29	22215
877.418	22325
877.546	22139
877.674	22196
877.802	22219
877.93	22185
878.058	22166
878.185	22078
878.313	22249
878.441	22204
878.568	22120
878.696	22177
878.824	22291
878.951	22265
879.079	22481
879.206	22550
879.333	22375
879.461	22287
879.588	22474
879.715	22382
879.842	22523
879.97	22219
880.097	22120
880.224	22078
880.351	22120
880.478	22070
880.605	21998
880.732	22048
880.859	22226
880.986	22112
881.112	21994
881.239	21956
881.366	21876
881.493	21755
881.619	21671
881.746	21637
881.872	21568
881.999	21720
882.125	21709
882.252	21637
882.378	21564
882.505	21736
882.631	21473
882.757	21275
882.883	21382
883.01	21397
883.136	21218
883.262	21332
883.388	21211
883.514	21344
883.64	21176
883.766	21203
883.892	21055
884.018	21154
884.143	21188
884.269	21340
884.395	21070
884.52	20937
884.646	21047
884.772	20834
884.897	20823
885.023	20994
885.148	21176
885.274	21127
885.399	21028
885.524	20990
885.65	21032
885.775	21066
885.9	20861
886.025	21093
886.15	21100
886.275	20952
886.4	20960
886.525	20838
886.65	20895
886.775	20792
886.9	20979
887.025	21230
887.149	21013
887.274	20773
887.399	20682
887.523	20750
887.648	20674
887.773	20636
887.897	20769
888.021	20663
888.146	20792
888.27	20769
888.395	20804
888.519	20716
888.643	20781
888.767	20731
888.891	20590
889.015	20476
889.139	20644
889.263	20579
889.387	20545
889.511	20750
889.635	20598
889.759	20514
889.883	20396
890.006	20606
890.13	20598
890.254	20465
890.377	20583
890.501	20286
890.624	20218
890.748	20309
890.871	20157
890.995	20077
891.118	20073
891.241	19993
891.364	20145
891.488	20214
891.611	20100
891.734	20168
891.857	20180
891.98	19989
892.103	20199
892.226	20084
892.349	20130
892.471	19947
892.594	20027
892.717	20142
892.839	20088
892.962	19936
893.085	20210
893.207	20008
893.33	19906
893.452	19970
893.575	19993
893.697	20035
893.819	20180
893.941	20225
894.064	20130
894.186	20046
894.308	19947
894.43	20206
894.552	20218
894.674	20119
894.796	19986
894.918	19974
895.04	19951
895.161	20043
895.283	20161
895.405	19928
895.526	20092
895.648	20031
895.769	20001
895.891	19982
896.012	20126
896.134	20054
896.255	20039
896.376	20054
896.498	19849
896.619	20065
896.74	19986
896.861	20008
896.982	20377
897.103	20454
897.224	20271
897.345	20161
897.466	20176
897.587	20191
897.708	20275
897.828	20309
897.949	20176
898.07	20088
898.19	20161
898.311	20347
898.431	20206
898.552	20161
898.672	20267
898.792	20259
898.913	20233
899.033	20077
899.153	19982
899.273	19921
899.393	20069
899.513	19974
899.633	19970
899.753	20092
899.873	19986
899.993	19936
900.113	19986
900.232	19906
900.352	19970
900.472	19776
900.591	19693
900.711	19909
900.83	19700
900.95	19932
901.069	19833
901.189	19689
901.308	19464
901.427	19426
901.546	19377
901.665	19411
901.784	19369
901.904	19118
902.023	19084
902.141	18901
902.26	19019
902.379	18981
902.498	18814
902.617	18890
902.735	18719
902.854	18696
902.973	18779
903.091	18555
903.21	18517
903.328	18509
903.446	18502
903.565	18308
903.683	18365
903.801	18254
903.919	18190
904.038	18220
904.156	18194
904.274	18258
904.392	18045
904.51	18083
904.627	18102
904.745	18114
904.863	18121
904.981	17950
905.098	17760
905.216	17741
905.334	17786
905.451	17828
905.569	17737
905.686	17760
905.803	17805
905.921	17691
906.038	17627
906.155	17623
906.272	17497
906.389	17528
906.506	17341
906.623	17345
906.74	17356
906.857	17258
906.974	17216
907.091	17353
907.208	17509
907.324	17417
907.441	17235
907.557	17045
907.674	17067
907.79	17045
907.907	17022
908.023	17086
908.139	17003
908.256	16908
908.372	16976
908.488	16938
908.604	16904
908.72	16752
908.836	16824
908.952	16710
909.068	16801
909.184	16911
909.3	16736
909.415	16752
909.531	16820
909.647	16516
909.762	16535
909.878	16451
909.993	16443
910.108	16478
910.224	16466
910.339	16356
910.454	16291
910.57	16299
910.685	16207
910.8	16554
910.915	16405
911.03	16310
911.145	16090
911.259	16105
911.374	16051
911.489	15983
911.604	15972
911.718	15743
911.833	15781
911.947	15694
912.062	15603
912.176	15846
912.291	15835
912.405	15812
912.519	15975
912.633	15915
912.748	15789
912.862	15819
912.976	15610
913.09	15447
913.204	15595
913.318	15561
913.431	15648
913.545	15606
913.659	15770
913.772	15610
913.886	15466
914	15450
914.113	15500
914.226	15572
914.34	15557
914.453	15340
914.566	15389
914.68	15340
914.793	15287
914.906	15161
915.019	15051
915.132	15051
915.245	14967
915.358	14967
915.47	15116
915.583	15001
915.696	15017
915.809	15062
915.921	15081
916.034	15020
916.146	14975
916.259	14918
916.371	14971
916.483	14971
916.595	14849
916.708	14815
916.82	14826
916.932	14785
917.044	14906
917.156	14750
917.268	14659
917.38	14754
917.491	14716
917.603	14720
917.715	14781
917.826	14800
917.938	14606
918.049	14556
918.161	14667
918.272	14800
918.384	14693
918.495	14632
918.606	14457
918.717	14419
918.828	14492
918.939	14469
919.05	14309
919.161	14347
919.272	14176
919.383	14233
919.494	14492
919.604	14670
919.715	14393
919.826	14366
919.936	14362
920.047	14488
920.157	14396
920.267	14579
920.378	14404
920.488	14374
920.598	14594
920.708	14697
920.818	14594
920.928	14640
921.038	14746
921.148	14716
921.258	14290
921.368	14282
921.477	14149
921.587	14119
921.697	14020
921.806	14164
921.916	13978
922.025	13803
922.134	13750
922.244	13715
922.353	13856
922.462	13734
922.571	13605
922.68	13453
922.789	13487
922.898	13445
923.007	13377
923.116	13533
923.224	13495
923.333	13453
923.442	13335
923.55	13194
923.659	13270
923.767	13301
923.876	13160
923.984	13331
924.092	13091
924.201	13107
924.309	13198
924.417	13202
924.525	13122
924.633	13091
924.741	13982
924.849	12894
924.956	12962
925.064	12894
925.172	12875
925.279	12814
925.387	12772
925.494	12844
925.602	12993
925.709	12977
925.816	12711
925.924	12829
926.031	12863
926.138	12772
926.245	12848
926.352	12745
926.459	12890
926.566	12863
926.673	12722
926.779	12616
926.886	12589
926.993	12471
927.099	12471
927.206	12300
927.312	12403
927.419	12422
927.525	12369
927.631	12391
927.737	12308
927.843	12338
927.95	12155
928.056	12270
928.162	12285
928.267	12353
928.373	12825
928.479	12330
928.585	12053
928.69	12281
928.796	12251
928.901	12102
929.007	11973
929.112	12121
929.218	12117
929.323	12064
929.428	11939
929.533	12072
929.638	11901
929.743	11828
929.848	11942
929.953	11984
930.058	11832
930.163	11714
930.267	11646
930.372	11748
930.477	11551
930.581	11866
930.685	11745
930.79	11570
930.894	11649
930.998	11528
931.103	11665
931.207	11273
931.311	11280
931.415	11170
931.519	10915
931.623	10953
