Data from test_V78500241_904.txt Node
Date: Fri Mar 25 15:16:09 CST 2022
User: usil
Spectrometer: V785-0024
Trigger mode: 0
Integration Time (sec): 4.000000E-1
Scans to average: 1
Nonlinearity correction enabled: false
Boxcar width: 0
Storing dark spectrum: false
XAxis mode: Wavelengths
Number of Pixels in Spectrum: 1024
>>>>>Begin Spectral Data<<<<<
801.071	28287
801.214	28207
801.356	27930
801.499	27922
801.641	27663
801.783	27823
801.926	27778
802.068	27755
802.211	27835
802.353	27778
802.496	27568
802.638	27511
802.78	27519
802.923	27439
803.065	27458
803.208	27332
803.35	27424
803.492	27507
803.635	27515
803.777	27557
803.919	27755
804.061	28067
804.204	27770
804.346	27576
804.488	27500
804.63	27557
804.773	27469
804.915	27698
805.057	27759
805.199	27705
805.341	27736
805.483	27747
805.626	27850
805.768	27770
805.91	27857
806.052	27770
806.194	27762
806.336	28032
806.478	27888
806.62	27804
806.762	28082
806.904	28211
807.046	28398
807.188	28246
807.33	28128
807.472	28299
807.614	28025
807.756	28280
807.898	28188
808.04	28109
808.182	28181
808.324	28177
808.465	28226
808.607	28226
808.749	28462
808.891	28489
809.033	28691
809.174	28436
809.316	28546
809.458	28428
809.6	28462
809.741	28512
809.883	28668
810.025	28736
810.166	28797
810.308	28812
810.45	28721
810.591	28767
810.733	28451
810.875	28409
811.016	28413
811.158	28424
811.299	28542
811.441	28603
811.582	28702
811.724	28371
811.865	28512
812.007	28478
812.148	28504
812.29	28588
812.431	28660
812.573	28904
812.714	28858
812.855	29033
812.997	29121
813.138	29273
813.279	29162
813.421	29132
813.562	29010
813.703	28938
813.845	28839
813.986	28508
814.127	28253
814.268	28173
814.41	28173
814.551	28150
814.692	28329
814.833	28097
814.974	28253
815.115	28230
815.256	27953
815.397	28074
815.539	28128
815.68	28063
815.821	27953
815.962	28048
816.103	27937
816.244	27964
816.385	27918
816.526	27778
816.666	27625
816.807	27462
816.948	27549
817.089	27614
817.23	27606
817.371	27633
817.512	27435
817.653	27507
817.793	27587
817.934	27507
818.075	27450
818.216	27481
818.356	27549
818.497	27447
818.638	27218
818.778	27306
818.919	27306
819.06	27374
819.2	27523
819.341	27591
819.481	27648
819.622	27679
819.762	27759
819.903	27842
820.043	27713
820.184	27633
820.324	27549
820.465	27591
820.605	27595
820.746	27694
820.886	27561
821.026	27534
821.167	27583
821.307	27701
821.447	27614
821.588	27447
821.728	27154
821.868	27104
822.008	27062
822.149	27100
822.289	26956
822.429	26724
822.569	26613
822.709	26655
822.849	26461
822.99	26609
823.13	26396
823.27	26370
823.41	26301
823.55	26100
823.69	26393
823.83	26320
823.97	26309
824.11	26119
824.25	26149
824.389	26065
824.529	26278
824.669	26191
824.809	26183
824.949	26233
825.089	26176
825.228	26183
825.368	26001
825.508	26073
825.648	26012
825.787	26088
825.927	26187
826.067	26153
826.206	25989
826.346	26046
826.485	26096
826.625	26119
826.765	26221
826.904	26016
827.044	25803
827.183	25738
827.323	25685
827.462	25864
827.601	25677
827.741	25655
827.88	25704
828.02	25677
828.159	25776
828.298	25693
828.437	25769
828.577	25597
828.716	25917
828.855	25715
828.994	25388
829.134	25525
829.273	25464
829.412	25346
829.551	25502
829.69	25384
829.829	25426
829.968	25525
830.107	25460
830.246	25282
830.385	25426
830.524	25320
830.663	25213
830.802	25164
830.941	25065
831.08	25053
831.219	25069
831.357	25110
831.496	25316
831.635	25008
831.774	25031
831.913	24970
832.051	24909
832.19	24764
832.329	24863
832.467	24722
832.606	24642
832.744	24722
832.883	24798
833.022	24829
833.16	24814
833.299	24753
833.437	24882
833.576	24833
833.714	24722
833.852	24863
833.991	24916
834.129	24863
834.267	24920
834.406	24829
834.544	24776
834.682	24783
834.821	24768
834.959	24958
835.097	24650
835.235	24901
835.373	24844
835.511	24787
835.65	24532
835.788	24700
835.926	24414
836.064	24437
836.202	24410
836.34	24620
836.478	24661
836.615	24475
836.753	24555
836.891	24696
837.029	24608
837.167	24540
837.305	24574
837.443	24502
837.58	24414
837.718	24635
837.856	24570
837.993	24403
838.131	24338
838.269	24247
838.406	24464
838.544	24102
838.681	24072
838.819	24087
838.956	24018
839.094	23996
839.231	23939
839.369	24133
839.506	24395
839.643	24201
839.781	23969
839.918	23912
840.055	24057
840.193	23855
840.33	23870
840.467	23912
840.604	23904
840.742	24224
840.879	23726
841.016	23714
841.153	23695
841.29	23939
841.427	23843
841.564	23805
841.701	23908
841.838	23798
841.975	23718
842.112	23722
842.249	23596
842.385	23520
842.522	23786
842.659	23699
842.796	23589
842.933	23600
843.069	23581
843.206	23551
843.343	23741
843.479	23589
843.616	23543
843.752	23463
843.889	23376
844.025	23528
844.162	23429
844.298	23551
844.435	23368
844.571	23478
844.708	23391
844.844	23528
844.98	23649
845.117	23372
845.253	23265
845.389	23185
845.525	23223
845.661	23132
845.798	23064
845.934	23143
846.07	23014
846.206	23102
846.342	23235
846.478	23094
846.614	23033
846.75	22683
846.886	22767
847.022	22858
847.158	22900
847.294	22927
847.429	22934
847.565	22653
847.701	23006
847.837	22660
847.972	22599
848.108	22634
848.244	22622
848.379	22546
848.515	22474
848.65	22424
848.786	22341
848.921	22519
849.057	22561
849.192	22554
849.328	22371
849.463	22535
849.598	22436
849.734	22177
849.869	22394
850.004	22169
850.14	22226
850.275	22150
850.41	22090
850.545	22154
850.68	22082
850.815	22253
850.95	22181
851.085	22424
851.22	22322
851.355	22272
851.49	22116
851.625	22116
851.76	22143
851.895	22135
852.03	22082
852.165	22196
852.299	22192
852.434	22405
852.569	22128
852.703	22223
852.838	22261
852.973	22230
853.107	22299
853.242	22101
853.376	22010
853.511	21941
853.645	21994
853.78	22112
853.914	21949
854.048	22025
854.183	22093
854.317	22204
854.451	22196
854.585	21968
854.72	21960
854.854	22169
854.988	21937
855.122	22032
855.256	21918
855.39	21964
855.524	22112
855.658	21975
855.792	21926
855.926	21842
856.06	21979
856.194	22078
856.327	22067
856.461	21831
856.595	21960
856.729	22013
856.862	21983
856.996	21968
857.13	22074
857.263	22242
857.397	22139
857.53	22070
857.664	22025
857.797	22036
857.931	22044
858.064	22040
858.197	22135
858.331	21934
858.464	22006
858.597	21869
858.731	21968
858.864	21865
858.997	22006
859.13	21983
859.263	22097
859.396	22029
859.529	22013
859.662	22021
859.795	21918
859.928	22048
860.061	22150
860.194	22223
860.327	21994
860.46	21972
860.592	22055
860.725	22150
860.858	22124
860.99	22013
861.123	21907
861.256	21949
861.388	21991
861.521	22759
861.653	21979
861.786	21743
861.918	21701
862.05	21865
862.183	22021
862.315	21857
862.447	21972
862.58	21945
862.712	21724
862.844	21717
862.976	21694
863.108	21755
863.24	21991
863.372	21698
863.504	21713
863.636	21747
863.768	21797
863.9	21766
864.032	21652
864.164	21576
864.296	21663
864.428	21819
864.559	21797
864.691	21667
864.823	21648
864.954	21595
865.086	21675
865.217	21663
865.349	21622
865.48	21542
865.612	21515
865.743	21827
865.875	21606
866.006	21568
866.137	21656
866.269	21614
866.4	21595
866.531	21500
866.662	21557
866.793	21538
866.924	21625
867.055	21580
867.186	21557
867.317	21500
867.448	21435
867.579	21519
867.71	21462
867.841	21389
867.972	21439
868.103	21458
868.233	21523
868.364	21492
868.495	21564
868.625	21648
868.756	21838
868.886	21652
869.017	21705
869.147	21831
869.278	21899
869.408	21686
869.539	21720
869.669	21892
869.799	21789
869.929	21926
870.06	21823
870.19	22029
870.32	22040
870.45	22105
870.58	22139
870.71	22272
870.84	22188
870.97	22135
871.1	22265
871.23	22360
871.36	22329
871.489	22188
871.619	22272
871.749	22219
871.879	22493
872.008	22489
872.138	22341
872.267	22211
872.397	22261
872.526	22272
872.656	22143
872.785	22078
872.915	22348
873.044	22451
873.173	22417
873.303	22554
873.432	22409
873.561	22493
873.69	22382
873.819	22390
873.948	22398
874.077	22325
874.206	22390
874.335	22295
874.464	22489
874.593	22497
874.722	22615
874.851	22694
874.979	22512
875.108	22596
875.237	22538
875.365	22599
875.494	22413
875.623	22622
875.751	22535
875.88	22618
876.008	22634
876.136	22771
876.265	23067
876.393	23041
876.521	23048
876.65	22995
876.778	22953
876.906	22885
877.034	22816
877.162	22843
877.29	22896
877.418	23022
877.546	22942
877.674	22801
877.802	22923
877.93	22904
878.058	22946
878.185	22843
878.313	22839
878.441	22820
878.568	22748
878.696	22858
878.824	23014
878.951	23041
879.079	23071
879.206	23231
879.333	23075
879.461	22976
879.588	23006
879.715	23033
879.842	23220
879.97	23048
880.097	22771
880.224	22752
880.351	22873
880.478	22801
880.605	22740
880.732	22733
880.859	23029
880.986	22710
881.112	22634
881.239	22561
881.366	22462
881.493	22371
881.619	22249
881.746	22291
881.872	22421
881.999	22207
882.125	22200
882.252	22394
882.378	22249
882.505	22325
882.631	22086
882.757	22048
882.883	22006
883.01	22029
883.136	21998
883.262	21850
883.388	21831
883.514	21968
883.64	22067
883.766	21979
883.892	21663
884.018	21846
884.143	21838
884.269	22048
884.395	21850
884.52	21553
884.646	21557
884.772	21656
884.897	21671
885.023	21599
885.148	21603
885.274	21698
885.399	21781
885.524	21698
885.65	21671
885.775	21698
885.9	21557
886.025	21736
886.15	21724
886.275	21488
886.4	21641
886.525	21591
886.65	21469
886.775	21580
886.9	21785
887.025	21880
887.149	21603
887.274	21321
887.399	21435
887.523	21378
887.648	21393
887.773	21272
887.897	21458
888.021	21481
888.146	21378
888.27	21447
888.395	21450
888.519	21469
888.643	21363
888.767	21424
888.891	21313
889.015	21283
889.139	21176
889.263	21230
889.387	21260
889.511	21351
889.635	21252
889.759	21100
889.883	21230
890.006	21188
890.13	21252
890.254	21077
890.377	21157
890.501	20967
890.624	20895
890.748	20887
890.871	20876
890.995	20735
891.118	20655
891.241	20735
891.364	20785
891.488	20994
891.611	20697
891.734	20758
891.857	20739
891.98	20845
892.103	20731
892.226	20727
892.349	20705
892.471	20495
892.594	20640
892.717	20773
892.839	20602
892.962	20609
893.085	20579
893.207	20716
893.33	20492
893.452	20434
893.575	20678
893.697	20636
893.819	20868
893.941	20830
894.064	20769
894.186	20499
894.308	20545
894.43	20701
894.552	20765
894.674	20659
894.796	20636
894.918	20678
895.04	20625
895.161	20606
895.283	20613
895.405	20636
895.526	20629
895.648	20640
895.769	20621
895.891	20507
896.012	20785
896.134	20701
896.255	20640
896.376	20590
896.498	20655
896.619	20655
896.74	20602
896.861	20606
896.982	20902
897.103	21123
897.224	20826
897.345	20819
897.466	20861
897.587	20750
897.708	20872
897.828	20910
897.949	20697
898.07	20556
898.19	20777
898.311	20948
898.431	20731
898.552	20823
898.672	20937
898.792	20921
898.913	20746
899.033	20670
899.153	20648
899.273	20617
899.393	20511
899.513	20609
899.633	20587
899.753	20602
899.873	20552
899.993	20686
900.113	20560
900.232	20594
900.352	20438
900.472	20446
900.591	20294
900.711	20358
900.83	20298
900.95	20431
901.069	20434
901.189	20294
901.308	20103
901.427	19925
901.546	19890
901.665	19982
901.784	19883
901.904	19906
902.023	19529
902.141	19457
902.26	19396
902.379	19582
902.498	19533
902.617	19476
902.735	19411
902.854	19411
902.973	19377
903.091	19141
903.21	19183
903.328	19050
903.446	19031
903.565	18943
903.683	18863
903.801	18738
903.919	18981
904.038	18772
904.156	18646
904.274	18817
904.392	18608
904.51	18532
904.627	18612
904.745	18642
904.863	18669
904.981	18353
905.098	18395
905.216	18330
905.334	18380
905.451	18361
905.569	18266
905.686	18311
905.803	18422
905.921	18182
906.038	18262
906.155	18136
906.272	18079
906.389	18011
906.506	17889
906.623	17897
906.74	17771
906.857	17726
906.974	17840
907.091	17912
907.208	17920
907.324	17767
907.441	17836
907.557	17600
907.674	17528
907.79	17535
907.907	17532
908.023	17512
908.139	17585
908.256	17596
908.372	17452
908.488	17463
908.604	17364
908.72	17208
908.836	17421
908.952	17311
909.068	17311
909.184	17398
909.3	17258
909.415	17322
909.531	17379
909.647	17052
909.762	16915
909.878	16953
909.993	16885
910.108	16968
910.224	16873
910.339	16965
910.454	16820
910.57	16725
910.685	16736
910.8	16953
910.915	16930
911.03	16797
911.145	16577
911.259	16580
911.374	16588
911.489	16478
911.604	16360
911.718	16405
911.833	16261
911.947	16207
912.062	16139
912.176	16238
912.291	16272
912.405	16363
912.519	16508
912.633	16523
912.748	16303
912.862	16242
912.976	16086
913.09	15998
913.204	16090
913.318	16192
913.431	16284
913.545	16147
913.659	16280
913.772	16093
913.886	15911
914	15903
914.113	16021
914.226	16059
914.34	15835
914.453	15816
914.566	15968
914.68	15842
914.793	15762
914.906	15534
915.019	15500
915.132	15534
915.245	15477
915.358	15507
915.47	15466
915.583	15504
915.696	15492
915.809	15599
915.921	15686
916.034	15416
916.146	15378
916.259	15370
916.371	15488
916.483	15389
916.595	15435
916.708	15321
916.82	15287
916.932	15207
917.044	15294
917.156	15298
917.268	15203
917.38	15112
917.491	15116
917.603	15131
917.715	15173
917.826	15233
917.938	15085
918.049	14998
918.161	15135
918.272	15252
918.384	15127
918.495	15051
918.606	14960
918.717	14834
918.828	14876
918.939	14921
919.05	14777
919.161	14872
919.272	14682
919.383	14716
919.494	14956
919.604	15058
919.715	14944
919.826	14769
919.936	14727
920.047	14918
920.157	14796
920.267	14921
920.378	14838
920.488	14861
920.598	15017
920.708	15180
920.818	15062
920.928	15009
921.038	15077
921.148	15032
921.258	14769
921.368	14689
921.477	14575
921.587	14575
921.697	14454
921.806	14526
921.916	14461
922.025	14259
922.134	14187
922.244	14187
922.353	14294
922.462	14103
922.571	14073
922.68	13856
922.789	13818
922.898	13864
923.007	13814
923.116	13822
923.224	13769
923.333	13860
923.442	13791
923.55	13605
923.659	13616
923.767	13746
923.876	13636
923.984	13704
924.092	13586
924.201	13613
924.309	13651
924.417	13651
924.525	13502
924.633	13567
924.741	14225
924.849	13422
924.956	13563
925.064	13282
925.172	13221
925.279	13335
925.387	13259
925.494	13202
925.602	13407
925.709	13304
925.816	13137
925.924	13213
926.031	13289
926.138	13194
926.245	13308
926.352	13164
926.459	13183
926.566	13301
926.673	13088
926.779	13008
926.886	12989
926.993	12814
927.099	12897
927.206	12783
927.312	12734
927.419	12837
927.525	12825
927.631	12875
927.737	12741
927.843	12639
927.95	12673
928.056	12650
928.162	12650
928.267	12703
928.373	13247
928.479	12677
928.585	12433
928.69	12574
928.796	12669
928.901	12521
929.007	12346
929.112	12517
929.218	12369
929.323	12403
929.428	12365
929.533	12471
929.638	12296
929.743	12251
929.848	12395
929.953	12205
930.058	12220
930.163	12015
930.267	12057
930.372	12163
930.477	11931
930.581	12178
930.685	12095
930.79	11828
930.894	11878
930.998	11954
931.103	12015
931.207	11657
931.311	11562
931.415	11520
931.519	11250
931.623	11174
