Data from test_V78500241_1492.txt Node
Date: Fri Mar 25 15:20:14 CST 2022
User: usil
Spectrometer: V785-0024
Trigger mode: 0
Integration Time (sec): 4.000000E-1
Scans to average: 1
Nonlinearity correction enabled: false
Boxcar width: 0
Storing dark spectrum: false
XAxis mode: Wavelengths
Number of Pixels in Spectrum: 1024
>>>>>Begin Spectral Data<<<<<
801.071	28029
801.214	28059
801.356	27895
801.499	27762
801.641	27637
801.783	27614
801.926	27705
802.068	27717
802.211	27682
802.353	27519
802.496	27272
802.638	27329
802.78	27355
802.923	27287
803.065	27298
803.208	27150
803.35	27214
803.492	27427
803.635	27507
803.777	27359
803.919	27561
804.061	27838
804.204	27557
804.346	27595
804.488	27515
804.63	27557
804.773	27454
804.915	27606
805.057	27656
805.199	27458
805.341	27679
805.483	27808
805.626	27736
805.768	27637
805.91	27793
806.052	27793
806.194	27656
806.336	27857
806.478	27698
806.62	27778
806.762	27884
806.904	27861
807.046	28211
807.188	28150
807.33	28078
807.472	28257
807.614	28105
807.756	28135
807.898	27941
808.04	27903
808.182	27994
808.324	27964
808.465	28036
808.607	28211
808.749	28329
808.891	28352
809.033	28485
809.174	28325
809.316	28280
809.458	28386
809.6	28280
809.741	28504
809.883	28607
810.025	28535
810.166	28618
810.308	28592
810.45	28596
810.591	28546
810.733	28287
810.875	28405
811.016	28078
811.158	28223
811.299	28325
811.441	28485
811.582	28679
811.724	28512
811.865	28318
812.007	28348
812.148	28215
812.29	28440
812.431	28569
812.573	28733
812.714	28733
812.855	28908
812.997	29071
813.138	29094
813.279	29056
813.421	28824
813.562	28873
813.703	28752
813.845	28683
813.986	28287
814.127	28093
814.268	28093
814.41	28109
814.551	28006
814.692	28177
814.833	27987
814.974	28048
815.115	28139
815.256	27949
815.397	27911
815.539	27941
815.68	27926
815.821	27865
815.962	27914
816.103	27903
816.244	27690
816.385	27713
816.526	27713
816.666	27397
816.807	27306
816.948	27351
817.089	27363
817.23	27348
817.371	27431
817.512	27466
817.653	27344
817.793	27313
817.934	27329
818.075	27427
818.216	27264
818.356	27378
818.497	27184
818.638	27074
818.778	27089
818.919	27077
819.06	27192
819.2	27264
819.341	27256
819.481	27386
819.622	27412
819.762	27660
819.903	27530
820.043	27443
820.184	27530
820.324	27492
820.465	27526
820.605	27564
820.746	27477
820.886	27317
821.026	27363
821.167	27450
821.307	27317
821.447	27367
821.588	27214
821.728	27150
821.868	26868
822.008	26716
822.149	26731
822.289	26758
822.429	26583
822.569	26568
822.709	26442
822.849	26453
822.99	26408
823.13	26381
823.27	26362
823.41	26081
823.55	26069
823.69	26084
823.83	26225
823.97	26077
824.11	25925
824.25	26001
824.389	25997
824.529	26092
824.669	25917
824.809	26149
824.949	26191
825.089	26001
825.228	26031
825.368	25871
825.508	25909
825.648	25883
825.787	25807
825.927	25909
826.067	25883
826.206	25776
826.346	25845
826.485	25860
826.625	25772
826.765	25788
826.904	25913
827.044	25609
827.183	25731
827.323	25495
827.462	25727
827.601	25529
827.741	25575
827.88	25662
828.02	25369
828.159	25582
828.298	25609
828.437	25582
828.577	25476
828.716	25731
828.855	25544
828.994	25365
829.134	25270
829.273	25304
829.412	25255
829.551	25122
829.69	25236
829.829	25365
829.968	25320
830.107	25396
830.246	25240
830.385	25354
830.524	25152
830.663	25168
830.802	24966
830.941	24909
831.08	24859
831.219	24954
831.357	24878
831.496	25263
831.635	24852
831.774	24890
831.913	24734
832.051	24665
832.19	24829
832.329	24722
832.467	24650
832.606	24502
832.744	24540
832.883	24563
833.022	24369
833.16	24658
833.299	24593
833.437	24623
833.576	24547
833.714	24547
833.852	24810
833.991	24585
834.129	24639
834.267	24684
834.406	24585
834.544	24620
834.682	24726
834.821	24528
834.959	24772
835.097	24513
835.235	24631
835.373	24505
835.511	24681
835.65	24460
835.788	24342
835.926	24243
836.064	24235
836.202	24216
836.34	24540
836.478	24467
836.615	24399
836.753	24456
836.891	24490
837.029	24414
837.167	24330
837.305	24365
837.443	24243
837.58	24266
837.718	24426
837.856	24296
837.993	24194
838.131	24205
838.269	24148
838.406	24159
838.544	24060
838.681	23840
838.819	23870
838.956	23676
839.094	23649
839.231	23722
839.369	23916
839.506	24136
839.643	24140
839.781	23847
839.918	23657
840.055	23592
840.193	23604
840.33	23638
840.467	23672
840.604	23748
840.742	23958
840.879	23558
841.016	23448
841.153	23665
841.29	23813
841.427	23699
841.564	23665
841.701	23619
841.838	23600
841.975	23505
842.112	23433
842.249	23539
842.385	23414
842.522	23566
842.659	23436
842.796	23395
842.933	23376
843.069	23337
843.206	23292
843.343	23433
843.479	23326
843.616	23292
843.752	23143
843.889	23193
844.025	23410
844.162	23079
844.298	23269
844.435	23124
844.571	23128
844.708	23277
844.844	23254
844.98	23254
845.117	23227
845.253	23132
845.389	22938
845.525	23067
845.661	22934
845.798	22915
845.934	23014
846.07	22824
846.206	22790
846.342	22942
846.478	22923
846.614	22691
846.75	22664
846.886	22557
847.022	22698
847.158	22725
847.294	22637
847.429	22721
847.565	22713
847.701	22919
847.837	22352
847.972	22314
848.108	22504
848.244	22371
848.379	22284
848.515	22154
848.65	22150
848.786	22169
848.921	22177
849.057	22249
849.192	22352
849.328	22272
849.463	22139
849.598	22226
849.734	22051
849.869	22051
850.004	22013
850.14	22124
850.275	22017
850.41	21861
850.545	21975
850.68	21945
850.815	21956
850.95	21956
851.085	22112
851.22	21994
851.355	22044
851.49	21899
851.625	21922
851.76	21895
851.895	21793
852.03	21979
852.165	21918
852.299	21968
852.434	22006
852.569	21907
852.703	22040
852.838	21994
852.973	22120
853.107	22109
853.242	21819
853.376	21701
853.511	21629
853.645	21717
853.78	21865
853.914	21800
854.048	21835
854.183	21717
854.317	21873
854.451	22025
854.585	21869
854.72	21789
854.854	21873
854.988	21838
855.122	21819
855.256	21701
855.39	21831
855.524	21694
855.658	21972
855.792	21698
855.926	21991
856.06	21831
856.194	21842
856.327	21755
856.461	21739
856.595	21797
856.729	21743
856.862	21850
856.996	21865
857.13	21804
857.263	21907
857.397	21808
857.53	21686
857.664	21819
857.797	21781
857.931	21911
858.064	21747
858.197	21774
858.331	21789
858.464	21823
858.597	21667
858.731	21648
858.864	21667
858.997	21747
859.13	21895
859.263	21819
859.396	21953
859.529	21793
859.662	21720
859.795	21736
859.928	21854
860.061	21949
860.194	22021
860.327	21850
860.46	21838
860.592	21945
860.725	21842
860.858	21850
860.99	21774
861.123	21694
861.256	21606
861.388	21720
861.521	22348
861.653	21614
861.786	21515
861.918	21637
862.05	21637
862.183	21789
862.315	21694
862.447	21778
862.58	21698
862.712	21492
862.844	21386
862.976	21549
863.108	21603
863.24	21956
863.372	21374
863.504	21500
863.636	21458
863.768	21397
863.9	21359
864.032	21431
864.164	21469
864.296	21564
864.428	21511
864.559	21587
864.691	21519
864.823	21466
864.954	21431
865.086	21447
865.217	21367
865.349	21306
865.48	21291
865.612	21515
865.743	21473
865.875	21405
866.006	21424
866.137	21405
866.269	21287
866.4	21367
866.531	21287
866.662	21348
866.793	21374
866.924	21298
867.055	21408
867.186	21401
867.317	21192
867.448	21264
867.579	21268
867.71	21192
867.841	21241
867.972	21317
868.103	21287
868.233	21298
868.364	21321
868.495	21374
868.625	21557
868.756	21580
868.886	21458
869.017	21530
869.147	21492
869.278	21637
869.408	21622
869.539	21428
869.669	21595
869.799	21599
869.929	21583
870.06	21778
870.19	21953
870.32	21747
870.45	21861
870.58	21915
870.71	22025
870.84	21854
870.97	21911
871.1	21941
871.23	22131
871.36	22139
871.489	21983
871.619	22200
871.749	22181
871.879	22188
872.008	22177
872.138	22078
872.267	22002
872.397	22093
872.526	21964
872.656	21972
872.785	21861
872.915	22166
873.044	22200
873.173	22158
873.303	22162
873.432	22226
873.561	22253
873.69	22143
873.819	22162
873.948	22124
874.077	22188
874.206	22192
874.335	22025
874.464	22261
874.593	22443
874.722	22394
874.851	22382
874.979	22386
875.108	22421
875.237	22299
875.365	22310
875.494	22352
875.623	22356
875.751	22360
875.88	22371
876.008	22470
876.136	22580
876.265	22721
876.393	22896
876.521	22782
876.65	22755
876.778	22733
876.906	22683
877.034	22729
877.162	22805
877.29	22649
877.418	22679
877.546	22706
877.674	22679
877.802	22653
877.93	22721
878.058	22679
878.185	22504
878.313	22603
878.441	22660
878.568	22584
878.696	22565
878.824	22653
878.951	22824
879.079	22957
879.206	23064
879.333	22999
879.461	22767
879.588	22843
879.715	22869
879.842	22965
879.97	22679
880.097	22474
880.224	22611
880.351	22519
880.478	22588
880.605	22481
880.732	22512
880.859	22805
880.986	22470
881.112	22557
881.239	22375
881.366	22451
881.493	22139
881.619	22048
881.746	22181
881.872	22116
881.999	22070
882.125	21983
882.252	22158
882.378	22086
882.505	22158
882.631	21968
882.757	21838
882.883	21861
883.01	21827
883.136	21835
883.262	21587
883.388	21781
883.514	21660
883.64	21876
883.766	21603
883.892	21606
884.018	21591
884.143	21755
884.269	21846
884.395	21534
884.52	21329
884.646	21370
884.772	21420
884.897	21348
885.023	21481
885.148	21450
885.274	21500
885.399	21412
885.524	21439
885.65	21523
885.775	21435
885.9	21408
886.025	21462
886.15	21504
886.275	21287
886.4	21340
886.525	21332
886.65	21348
886.775	21351
886.9	21515
887.025	21564
887.149	21458
887.274	21211
887.399	21211
887.523	21264
887.648	21096
887.773	21112
887.897	21355
888.021	21173
888.146	21096
888.27	21268
888.395	21256
888.519	21165
888.643	21218
888.767	21237
888.891	21032
889.015	21070
889.139	21032
889.263	20990
889.387	21036
889.511	21199
889.635	21138
889.759	20914
889.883	20941
890.006	20941
890.13	21085
890.254	20925
890.377	20952
890.501	20727
890.624	20613
890.748	20830
890.871	20560
890.995	20632
891.118	20503
891.241	20579
891.364	20640
891.488	20689
891.611	20545
891.734	20400
891.857	20568
891.98	20480
892.103	20476
892.226	20465
892.349	20583
892.471	20423
892.594	20404
892.717	20476
892.839	20450
892.962	20393
893.085	20484
893.207	20473
893.33	20282
893.452	20290
893.575	20511
893.697	20396
893.819	20613
893.941	20636
894.064	20655
894.186	20442
894.308	20355
894.43	20503
894.552	20648
894.674	20446
894.796	20343
894.918	20381
895.04	20370
895.161	20473
895.283	20351
895.405	20446
895.526	20522
895.648	20526
895.769	20412
895.891	20514
896.012	20560
896.134	20469
896.255	20492
896.376	20431
896.498	20473
896.619	20454
896.74	20317
896.861	20526
896.982	20708
897.103	20929
897.224	20811
897.345	20648
897.466	20636
897.587	20693
897.708	20701
897.828	20724
897.949	20583
898.07	20514
898.19	20564
898.311	20636
898.431	20560
898.552	20598
898.672	20651
898.792	20651
898.913	20579
899.033	20636
899.153	20503
899.273	20313
899.393	20434
899.513	20355
899.633	20480
899.753	20385
899.873	20290
899.993	20507
900.113	20366
900.232	20454
900.352	20256
900.472	20244
900.591	20168
900.711	20195
900.83	20096
900.95	20187
901.069	20206
901.189	20046
901.308	19868
901.427	19681
901.546	19700
901.665	19799
901.784	19746
901.904	19601
902.023	19559
902.141	19320
902.26	19354
902.379	19335
902.498	19145
902.617	19221
902.735	19259
902.854	19225
902.973	19148
903.091	18878
903.21	18871
903.328	18894
903.446	18745
903.565	18654
903.683	18681
903.801	18677
903.919	18681
904.038	18665
904.156	18532
904.274	18601
904.392	18399
904.51	18456
904.627	18479
904.745	18582
904.863	18642
904.981	18251
905.098	18148
905.216	18152
905.334	18114
905.451	18148
905.569	18121
905.686	18190
905.803	18110
905.921	17847
906.038	17977
906.155	17996
906.272	17783
906.389	17889
906.506	17722
906.623	17665
906.74	17691
906.857	17516
906.974	17573
907.091	17752
907.208	17824
907.324	17707
907.441	17547
907.557	17395
907.674	17353
907.79	17406
907.907	17322
908.023	17410
908.139	17414
908.256	17360
908.372	17273
908.488	17235
908.604	17189
908.72	17041
908.836	17159
908.952	17143
909.068	17105
909.184	17197
909.3	17006
909.415	17212
909.531	16984
909.647	16923
909.762	16767
909.878	16885
909.993	16820
910.108	16805
910.224	16774
910.339	16744
910.454	16656
910.57	16755
910.685	16565
910.8	16850
910.915	16763
911.03	16592
911.145	16417
911.259	16379
911.374	16417
911.489	16230
911.604	16310
911.718	16112
911.833	16135
911.947	16048
912.062	16013
912.176	16040
912.291	16150
912.405	16097
912.519	16207
912.633	16318
912.748	16166
912.862	16097
912.976	16048
913.09	15880
913.204	15983
913.318	15918
913.431	16063
913.545	16055
913.659	15968
913.772	15892
913.886	15762
914	15789
914.113	15926
914.226	15838
914.34	15899
914.453	15618
914.566	15717
914.68	15610
914.793	15553
914.906	15462
915.019	15359
915.132	15294
915.245	15389
915.358	15325
915.47	15336
915.583	15302
915.696	15359
915.809	15485
915.921	15599
916.034	15336
916.146	15245
916.259	15306
916.371	15378
916.483	15283
916.595	15173
916.708	15180
916.82	15176
916.932	15112
917.044	15043
917.156	15176
917.268	15013
917.38	15020
917.491	14994
917.603	15047
917.715	15028
917.826	15169
917.938	14967
918.049	14811
918.161	15009
918.272	15028
918.384	15039
918.495	14796
918.606	14762
918.717	14716
918.828	14739
918.939	14697
919.05	14610
919.161	14765
919.272	14537
919.383	14590
919.494	14842
919.604	14872
919.715	14758
919.826	14541
919.936	14667
920.047	14750
920.157	14674
920.267	14937
920.378	14781
920.488	14705
920.598	14933
920.708	15005
920.818	14773
920.928	14758
921.038	14895
921.148	14929
921.258	14655
921.368	14602
921.477	14526
921.587	14438
921.697	14366
921.806	14469
921.916	14290
922.025	14161
922.134	14134
922.244	14043
922.353	14107
922.462	13898
922.571	13906
922.68	13830
922.789	13731
922.898	13731
923.007	13696
923.116	13761
923.224	13731
923.333	13795
923.442	13597
923.55	13540
923.659	13563
923.767	13655
923.876	13483
923.984	13548
924.092	13422
924.201	13449
924.309	13472
924.417	13441
924.525	13339
924.633	13373
924.741	14191
924.849	13206
924.956	13335
925.064	13141
925.172	13088
925.279	13050
925.387	13183
925.494	13168
925.602	13343
925.709	13179
925.816	13053
925.924	13061
926.031	13110
926.138	13004
926.245	13141
926.352	13008
926.459	13046
926.566	13179
926.673	12996
926.779	12905
926.886	12867
926.993	12726
927.099	12582
927.206	12662
927.312	12635
927.419	12715
927.525	12673
927.631	12700
927.737	12513
927.843	12494
927.95	12391
928.056	12479
928.162	12540
928.267	12578
928.373	13137
928.479	12551
928.585	12323
928.69	12441
928.796	12422
928.901	12323
929.007	12235
929.112	12338
929.218	12330
929.323	12296
929.428	12213
929.533	12281
929.638	12140
929.743	12095
929.848	12175
929.953	12220
930.058	12019
930.163	11920
930.267	11893
930.372	12022
930.477	11863
930.581	12079
930.685	11965
930.79	11805
930.894	11805
930.998	11775
931.103	11882
931.207	11528
931.311	11516
931.415	11440
931.519	11201
931.623	11128
