Data from test_V78500241_946.txt Node
Date: Fri Mar 25 15:16:26 CST 2022
User: usil
Spectrometer: V785-0024
Trigger mode: 0
Integration Time (sec): 4.000000E-1
Scans to average: 1
Nonlinearity correction enabled: false
Boxcar width: 0
Storing dark spectrum: false
XAxis mode: Wavelengths
Number of Pixels in Spectrum: 1024
>>>>>Begin Spectral Data<<<<<
801.071	27876
801.214	27857
801.356	27660
801.499	27618
801.641	27405
801.783	27466
801.926	27545
802.068	27340
802.211	27386
802.353	27226
802.496	27138
802.638	27173
802.78	27085
802.923	27062
803.065	27119
803.208	27043
803.35	27154
803.492	27119
803.635	27329
803.777	27207
803.919	27344
804.061	27515
804.204	27321
804.346	27340
804.488	27093
804.63	27233
804.773	27298
804.915	27127
805.057	27439
805.199	27173
805.341	27291
805.483	27336
805.626	27348
805.768	27199
805.91	27435
806.052	27424
806.194	27443
806.336	27660
806.478	27519
806.62	27397
806.762	27507
806.904	27667
807.046	27918
807.188	27907
807.33	27857
807.472	27884
807.614	27861
807.756	27816
807.898	27793
808.04	27717
808.182	27538
808.324	27823
808.465	27698
808.607	27869
808.749	28112
808.891	28246
809.033	28230
809.174	28059
809.316	28154
809.458	28154
809.6	28086
809.741	28090
809.883	28215
810.025	28386
810.166	28276
810.308	28348
810.45	28394
810.591	28284
810.733	28097
810.875	28048
811.016	27956
811.158	27972
811.299	28200
811.441	28143
811.582	28112
811.724	28032
811.865	28105
812.007	28116
812.148	28112
812.29	28150
812.431	28371
812.573	28451
812.714	28546
812.855	28588
812.997	28786
813.138	28603
813.279	28858
813.421	28569
813.562	28546
813.703	28428
813.845	28443
813.986	28063
814.127	27842
814.268	27861
814.41	27892
814.551	27846
814.692	27819
814.833	27701
814.974	27705
815.115	27785
815.256	27663
815.397	27648
815.539	27698
815.68	27561
815.821	27454
815.962	27641
816.103	27549
816.244	27370
816.385	27374
816.526	27477
816.666	27272
816.807	27005
816.948	27245
817.089	27173
817.23	27135
817.371	27123
817.512	27135
817.653	27036
817.793	26994
817.934	27104
818.075	27093
818.216	27036
818.356	27116
818.497	27009
818.638	26872
818.778	26792
818.919	26769
819.06	26895
819.2	27043
819.341	27192
819.481	27154
819.622	27321
819.762	27382
819.903	27329
820.043	27386
820.184	27256
820.324	27272
820.465	27211
820.605	27100
820.746	27173
820.886	26910
821.026	27154
821.167	27096
821.307	27249
821.447	27051
821.588	26979
821.728	26940
821.868	26689
822.008	26636
822.149	26552
822.289	26571
822.429	26225
822.569	26355
822.709	26263
822.849	26084
822.99	26027
823.13	25997
823.27	26069
823.41	25936
823.55	25738
823.69	25925
823.83	26012
823.97	25818
824.11	25712
824.25	25693
824.389	25616
824.529	25860
824.669	25696
824.809	25841
824.949	25852
825.089	25715
825.228	25719
825.368	25609
825.508	25590
825.648	25594
825.787	25616
825.927	25658
826.067	25586
826.206	25582
826.346	25734
826.485	25643
826.625	25609
826.765	25643
826.904	25658
827.044	25213
827.183	25411
827.323	25285
827.462	25426
827.601	25400
827.741	25198
827.88	25354
828.02	25270
828.159	25228
828.298	25312
828.437	25343
828.577	25270
828.716	25365
828.855	25122
828.994	25099
829.134	24894
829.273	25118
829.412	24844
829.551	25004
829.69	25061
829.829	24920
829.968	25019
830.107	25202
830.246	24954
830.385	25057
830.524	24825
830.663	24825
830.802	24570
830.941	24574
831.08	24635
831.219	24719
831.357	24715
831.496	24753
831.635	24601
831.774	24574
831.913	24608
832.051	24391
832.19	24365
832.329	24372
832.467	24285
832.606	24251
832.744	24353
832.883	24300
833.022	24251
833.16	24361
833.299	24357
833.437	24133
833.576	24334
833.714	24441
833.852	24319
833.991	24365
834.129	24448
834.267	24380
834.406	24399
834.544	24479
834.682	24300
834.821	24285
834.959	24475
835.097	24266
835.235	24346
835.373	24330
835.511	24144
835.65	24209
835.788	24251
835.926	24057
836.064	23969
836.202	23946
836.34	24289
836.478	24186
836.615	24159
836.753	24140
836.891	24235
837.029	24292
837.167	24144
837.305	24026
837.443	23969
837.58	24076
837.718	24110
837.856	24114
837.993	23946
838.131	23992
838.269	23984
838.406	23992
838.544	23870
838.681	23745
838.819	23589
838.956	23486
839.094	23543
839.231	23482
839.369	23509
839.506	23885
839.643	23726
839.781	23623
839.918	23478
840.055	23497
840.193	23436
840.33	23490
840.467	23345
840.604	23501
840.742	23676
840.879	23356
841.016	23303
841.153	23315
841.29	23402
841.427	23368
841.564	23505
841.701	23429
841.838	23254
841.975	23376
842.112	23303
842.249	23258
842.385	23086
842.522	23417
842.659	23322
842.796	23121
842.933	23143
843.069	23090
843.206	23071
843.343	23223
843.479	23189
843.616	23159
843.752	22915
843.889	22915
844.025	23159
844.162	23003
844.298	23121
844.435	22980
844.571	23003
844.708	22999
844.844	23124
844.98	23124
845.117	23064
845.253	22927
845.389	22782
845.525	22949
845.661	22938
845.798	22565
845.934	22717
846.07	22702
846.206	22649
846.342	22797
846.478	22607
846.614	22447
846.75	22386
846.886	22371
847.022	22417
847.158	22386
847.294	22455
847.429	22447
847.565	22386
847.701	22733
847.837	22074
847.972	22124
848.108	22234
848.244	22219
848.379	22002
848.515	22040
848.65	22090
848.786	21998
848.921	22063
849.057	22131
849.192	22067
849.328	21998
849.463	22025
849.598	21979
849.734	21869
849.869	21865
850.004	21762
850.14	21895
850.275	21774
850.41	21682
850.545	21789
850.68	21789
850.815	21888
850.95	21778
851.085	21941
851.22	21873
851.355	21778
851.49	21857
851.625	21747
851.76	21766
851.895	21679
852.03	21785
852.165	21732
852.299	21854
852.434	21835
852.569	21846
852.703	21698
852.838	21804
852.973	21880
853.107	21880
853.242	21762
853.376	21587
853.511	21591
853.645	21583
853.78	21686
853.914	21671
854.048	21526
854.183	21542
854.317	21641
854.451	21770
854.585	21675
854.72	21511
854.854	21717
854.988	21553
855.122	21614
855.256	21473
855.39	21625
855.524	21728
855.658	21660
855.792	21671
855.926	21629
856.06	21652
856.194	21583
856.327	21622
856.461	21481
856.595	21564
856.729	21587
856.862	21793
856.996	21549
857.13	21656
857.263	21827
857.397	21679
857.53	21561
857.664	21698
857.797	21610
857.931	21667
858.064	21686
858.197	21686
858.331	21641
858.464	21519
858.597	21454
858.731	21591
858.864	21492
858.997	21481
859.13	21633
859.263	21641
859.396	21739
859.529	21549
859.662	21538
859.795	21557
859.928	21557
860.061	21736
860.194	21770
860.327	21587
860.46	21644
860.592	21785
860.725	21728
860.858	21770
860.99	21587
861.123	21515
861.256	21500
861.388	21736
861.521	22329
861.653	21477
861.786	21370
861.918	21572
862.05	21431
862.183	21431
862.315	21424
862.447	21538
862.58	21466
862.712	21302
862.844	21329
862.976	21481
863.108	21393
863.24	21888
863.372	21230
863.504	21237
863.636	21264
863.768	21374
863.9	21332
864.032	21116
864.164	21310
864.296	21443
864.428	21386
864.559	21283
864.691	21420
864.823	21408
864.954	21359
865.086	21218
865.217	21173
865.349	21157
865.48	21104
865.612	21184
865.743	21412
865.875	21256
866.006	21203
866.137	21169
866.269	21211
866.4	21150
866.531	21237
866.662	20994
866.793	21192
866.924	21138
867.055	20994
867.186	21043
867.317	21036
867.448	21036
867.579	21070
867.71	21085
867.841	21142
867.972	21070
868.103	21058
868.233	21051
868.364	21135
868.495	21218
868.625	21401
868.756	21416
868.886	21321
869.017	21344
869.147	21549
869.278	21530
869.408	21348
869.539	21355
869.669	21477
869.799	21386
869.929	21488
870.06	21519
870.19	21739
870.32	21660
870.45	21591
870.58	21755
870.71	21861
870.84	21838
870.97	21720
871.1	21789
871.23	21991
871.36	21846
871.489	21785
871.619	21869
871.749	21926
871.879	22086
872.008	22025
872.138	21979
872.267	21964
872.397	21857
872.526	21652
872.656	21774
872.785	21713
872.915	21816
873.044	21972
873.173	22048
873.303	21934
873.432	22086
873.561	21972
873.69	22067
873.819	22010
873.948	22131
874.077	22029
874.206	21975
874.335	21941
874.464	22120
874.593	22162
874.722	22093
874.851	22280
874.979	22234
875.108	22192
875.237	22162
875.365	22059
875.494	22185
875.623	22303
875.751	22268
875.88	22204
876.008	22325
876.136	22375
876.265	22538
876.393	22744
876.521	22565
876.65	22630
876.778	22618
876.906	22580
877.034	22493
877.162	22523
877.29	22519
877.418	22474
877.546	22535
877.674	22436
877.802	22474
877.93	22599
878.058	22459
878.185	22379
878.313	22481
878.441	22569
878.568	22314
878.696	22436
878.824	22424
878.951	22603
879.079	22698
879.206	22843
879.333	22618
879.461	22573
879.588	22565
879.715	22687
879.842	22816
879.97	22535
880.097	22337
880.224	22360
880.351	22440
880.478	22314
880.605	22481
880.732	22341
880.859	22645
880.986	22291
881.112	22356
881.239	22344
881.366	21987
881.493	22128
881.619	22010
881.746	21991
881.872	21892
881.999	21949
882.125	21975
882.252	21964
882.378	21888
882.505	22112
882.631	21918
882.757	21694
882.883	21667
883.01	21568
883.136	21591
883.262	21488
883.388	21511
883.514	21599
883.64	21629
883.766	21526
883.892	21454
884.018	21382
884.143	21679
884.269	21652
884.395	21405
884.52	21272
884.646	21252
884.772	21211
884.897	21150
885.023	21249
885.148	21336
885.274	21443
885.399	21291
885.524	21199
885.65	21272
885.775	21336
885.9	21302
886.025	21351
886.15	21401
886.275	21264
886.4	21135
886.525	21294
886.65	21241
886.775	21241
886.9	21325
887.025	21439
887.149	21317
887.274	21169
887.399	20895
887.523	20994
887.648	21127
887.773	21001
887.897	21123
888.021	21009
888.146	21013
888.27	21180
888.395	21024
888.519	21032
888.643	21093
888.767	21047
888.891	20944
889.015	20758
889.139	21013
889.263	20788
889.387	20967
889.511	20967
889.635	20891
889.759	20807
889.883	20750
890.006	20921
890.13	20887
890.254	20746
890.377	20674
890.501	20537
890.624	20651
890.748	20648
890.871	20537
890.995	20450
891.118	20336
891.241	20423
891.364	20461
891.488	20541
891.611	20339
891.734	20469
891.857	20541
891.98	20488
892.103	20393
892.226	20324
892.349	20419
892.471	20225
892.594	20336
892.717	20355
892.839	20267
892.962	20400
893.085	20446
893.207	20237
893.33	20271
893.452	20240
893.575	20396
893.697	20259
893.819	20362
893.941	20507
894.064	20381
894.186	20240
894.308	20237
894.43	20298
894.552	20396
894.674	20317
894.796	20244
894.918	20301
895.04	20252
895.161	20355
895.283	20370
895.405	20275
895.526	20214
895.648	20202
895.769	20374
895.891	20351
896.012	20309
896.134	20396
896.255	20225
896.376	20240
896.498	20244
896.619	20271
896.74	20374
896.861	20366
896.982	20621
897.103	20659
897.224	20492
897.345	20545
897.466	20511
897.587	20632
897.708	20697
897.828	20655
897.949	20511
898.07	20385
898.19	20400
898.311	20552
898.431	20473
898.552	20419
898.672	20530
898.792	20617
898.913	20522
899.033	20404
899.153	20320
899.273	20248
899.393	20134
899.513	20278
899.633	20191
899.753	20267
899.873	20111
899.993	20183
900.113	20259
900.232	20233
900.352	20164
900.472	20016
900.591	20142
900.711	20157
900.83	19921
900.95	20161
901.069	20119
901.189	19986
901.308	19601
901.427	19666
901.546	19575
901.665	19769
901.784	19651
901.904	19495
902.023	19266
902.141	19171
902.26	19194
902.379	19183
902.498	19141
902.617	19050
902.735	19160
902.854	19171
902.973	19012
903.091	18802
903.21	18745
903.328	18665
903.446	18753
903.565	18639
903.683	18684
903.801	18486
903.919	18650
904.038	18547
904.156	18422
904.274	18467
904.392	18262
904.51	18266
904.627	18403
904.745	18239
904.863	18330
904.981	18121
905.098	18015
905.216	18053
905.334	18083
905.451	18095
905.569	17992
905.686	18072
905.803	18064
905.921	17802
906.038	17996
906.155	17764
906.272	17687
906.389	17726
906.506	17524
906.623	17611
906.74	17440
906.857	17387
906.974	17512
907.091	17589
907.208	17653
907.324	17672
907.441	17493
907.557	17254
907.674	17379
907.79	17284
907.907	17220
908.023	17433
908.139	17242
908.256	17094
908.372	17140
908.488	17189
908.604	17124
908.72	16965
908.836	16991
908.952	16980
909.068	17006
909.184	17064
909.3	17075
909.415	16995
909.531	16987
909.647	16790
909.762	16706
909.878	16736
909.993	16771
910.108	16683
910.224	16683
910.339	16687
910.454	16527
910.57	16607
910.685	16402
910.8	16603
910.915	16558
911.03	16485
911.145	16246
911.259	16329
911.374	16211
911.489	16238
911.604	16154
911.718	16082
911.833	16010
911.947	15956
912.062	15922
912.176	16029
912.291	16067
912.405	15994
912.519	16128
912.633	16192
912.748	16086
912.862	16040
912.976	15861
913.09	15751
913.204	15785
913.318	15770
913.431	15922
913.545	15968
913.659	15956
913.772	15831
913.886	15682
914	15663
914.113	15686
914.226	15705
914.34	15717
914.453	15584
914.566	15671
914.68	15576
914.793	15500
914.906	15226
915.019	15264
915.132	15237
915.245	15272
915.358	15363
915.47	15230
915.583	15241
915.696	15393
915.809	15416
915.921	15325
916.034	15230
916.146	15287
916.259	15165
916.371	15279
916.483	15207
916.595	15093
916.708	15104
916.82	15070
916.932	14998
917.044	15036
917.156	14967
917.268	14891
917.38	14864
917.491	14872
917.603	14963
917.715	14956
917.826	15017
917.938	14811
918.049	14712
918.161	14872
918.272	14998
918.384	14948
918.495	14777
918.606	14705
918.717	14571
918.828	14663
918.939	14739
919.05	14575
919.161	14648
919.272	14385
919.383	14484
919.494	14606
919.604	14826
919.715	14716
919.826	14533
919.936	14575
920.047	14693
920.157	14659
920.267	14823
920.378	14587
920.488	14606
920.598	14777
920.708	14910
920.818	14788
920.928	14773
921.038	14891
921.148	14895
921.258	14514
921.368	14465
921.477	14362
921.587	14377
921.697	14328
921.806	14377
921.916	14161
922.025	14111
922.134	13955
922.244	13970
922.353	13917
922.462	13852
922.571	13849
922.68	13567
922.789	13594
922.898	13609
923.007	13636
923.116	13696
923.224	13647
923.333	13693
923.442	13491
923.55	13453
923.659	13521
923.767	13597
923.876	13400
923.984	13392
924.092	13331
924.201	13392
924.309	13400
924.417	13339
924.525	13278
924.633	13362
924.741	14149
924.849	13031
924.956	13228
925.064	13107
925.172	13008
925.279	13069
925.387	13019
925.494	12993
925.602	13129
925.709	13061
925.816	13008
925.924	13027
926.031	13091
926.138	12951
926.245	13046
926.352	12791
926.459	13091
926.566	13141
926.673	12966
926.779	12772
926.886	12840
926.993	12669
927.099	12677
927.206	12513
927.312	12612
927.419	12627
927.525	12563
927.631	12604
927.737	12422
927.843	12441
927.95	12342
928.056	12422
928.162	12429
928.267	12460
928.373	13076
928.479	12502
928.585	12239
928.69	12342
928.796	12433
928.901	12346
929.007	12159
929.112	12251
929.218	12216
929.323	12152
929.428	12114
929.533	12353
929.638	12030
929.743	12136
929.848	12117
929.953	12095
930.058	12019
930.163	11824
930.267	11771
930.372	12041
930.477	11767
930.581	12038
930.685	11836
930.79	11668
930.894	11680
930.998	11729
931.103	11813
931.207	11543
931.311	11425
931.415	11269
931.519	11102
931.623	11025
