Data from test_V78500241_1174.txt Node
Date: Fri Mar 25 15:18:01 CST 2022
User: usil
Spectrometer: V785-0024
Trigger mode: 0
Integration Time (sec): 4.000000E-1
Scans to average: 1
Nonlinearity correction enabled: false
Boxcar width: 0
Storing dark spectrum: false
XAxis mode: Wavelengths
Number of Pixels in Spectrum: 1024
>>>>>Begin Spectral Data<<<<<
801.071	28143
801.214	28055
801.356	27941
801.499	27816
801.641	27747
801.783	27656
801.926	27743
802.068	27854
802.211	27698
802.353	27599
802.496	27336
802.638	27462
802.78	27218
802.923	27233
803.065	27192
803.208	27233
803.35	27439
803.492	27492
803.635	27439
803.777	27275
803.919	27622
804.061	27884
804.204	27766
804.346	27420
804.488	27401
804.63	27580
804.773	27614
804.915	27663
805.057	27713
805.199	27545
805.341	27713
805.483	27759
805.626	27720
805.768	27625
805.91	27831
806.052	27762
806.194	27736
806.336	27880
806.478	27751
806.62	27766
806.762	27987
806.904	28093
807.046	28078
807.188	28025
807.33	28223
807.472	28154
807.614	27945
807.756	28211
807.898	27819
808.04	27907
808.182	28063
808.324	27918
808.465	28017
808.607	28166
808.749	28436
808.891	28344
809.033	28512
809.174	28356
809.316	28424
809.458	28329
809.6	28196
809.741	28462
809.883	28550
810.025	28713
810.166	28641
810.308	28744
810.45	28622
810.591	28584
810.733	28462
810.875	28272
811.016	28379
811.158	28173
811.299	28360
811.441	28550
811.582	28516
811.724	28363
811.865	28356
812.007	28337
812.148	28535
812.29	28584
812.431	28493
812.573	28649
812.714	28847
812.855	28892
812.997	29010
813.138	29037
813.279	28953
813.421	28900
813.562	28930
813.703	28767
813.845	28607
813.986	28257
814.127	28074
814.268	28147
814.41	28162
814.551	28048
814.692	28135
814.833	28097
814.974	28074
815.115	28021
815.256	27968
815.397	27987
815.539	27918
815.68	27739
815.821	27736
815.962	27956
816.103	27945
816.244	27785
816.385	27633
816.526	27732
816.666	27469
816.807	27374
816.948	27439
817.089	27564
817.23	27450
817.371	27382
817.512	27397
817.653	27492
817.793	27431
817.934	27473
818.075	27405
818.216	27264
818.356	27397
818.497	27237
818.638	27150
818.778	27066
818.919	27093
819.06	27173
819.2	27302
819.341	27294
819.481	27321
819.622	27507
819.762	27804
819.903	27682
820.043	27652
820.184	27618
820.324	27549
820.465	27481
820.605	27583
820.746	27469
820.886	27450
821.026	27424
821.167	27348
821.307	27427
821.447	27340
821.588	27264
821.728	27070
821.868	26910
822.008	26788
822.149	26853
822.289	26842
822.429	26571
822.569	26598
822.709	26606
822.849	26381
822.99	26355
823.13	26415
823.27	26240
823.41	26119
823.55	26183
823.69	26142
823.83	26195
823.97	26248
824.11	25959
824.25	25955
824.389	26084
824.529	26092
824.669	26058
824.809	26134
824.949	26153
825.089	26195
825.228	26149
825.368	25799
825.508	25902
825.648	25856
825.787	25944
825.927	26046
826.067	25837
826.206	25753
826.346	26005
826.485	25982
826.625	25902
826.765	26039
826.904	26027
827.044	25696
827.183	25753
827.323	25693
827.462	25685
827.601	25502
827.741	25807
827.88	25772
828.02	25495
828.159	25689
828.298	25700
828.437	25521
828.577	25620
828.716	25708
828.855	25472
828.994	25384
829.134	25228
829.273	25460
829.412	25407
829.551	25362
829.69	25354
829.829	25411
829.968	25392
830.107	25316
830.246	25285
830.385	25190
830.524	25247
830.663	25046
830.802	25095
830.941	25008
831.08	25000
831.219	25057
831.357	25012
831.496	25168
831.635	24989
831.774	24810
831.913	24764
832.051	24795
832.19	24802
832.329	24734
832.467	24760
832.606	24734
832.744	24467
832.883	24700
833.022	24601
833.16	24661
833.299	24650
833.437	24604
833.576	24700
833.714	24696
833.852	24703
833.991	24943
834.129	24722
834.267	24829
834.406	24715
834.544	24760
834.682	24772
834.821	24688
834.959	24939
835.097	24707
835.235	24741
835.373	24661
835.511	24684
835.65	24574
835.788	24661
835.926	24407
836.064	24464
836.202	24403
836.34	24372
836.478	24658
836.615	24448
836.753	24551
836.891	24692
837.029	24479
837.167	24601
837.305	24490
837.443	24494
837.58	24479
837.718	24369
837.856	24456
837.993	24285
838.131	24311
838.269	24338
838.406	24289
838.544	24243
838.681	24015
838.819	24007
838.956	23802
839.094	23870
839.231	23927
839.369	24053
839.506	24220
839.643	24167
839.781	23916
839.918	23802
840.055	23901
840.193	23775
840.33	23767
840.467	23805
840.604	23817
840.742	24022
840.879	23729
841.016	23665
841.153	23608
841.29	23931
841.427	23718
841.564	23798
841.701	23790
841.838	23729
841.975	23646
842.112	23630
842.249	23509
842.385	23474
842.522	23718
842.659	23474
842.796	23528
842.933	23573
843.069	23554
843.206	23543
843.343	23596
843.479	23570
843.616	23535
843.752	23193
843.889	23269
844.025	23410
844.162	23337
844.298	23307
844.435	23402
844.571	23387
844.708	23383
844.844	23467
844.98	23360
845.117	23376
845.253	23277
845.389	23216
845.525	23140
845.661	23193
845.798	23029
845.934	23010
846.07	23109
846.206	23060
846.342	23147
846.478	22946
846.614	22786
846.75	22759
846.886	22683
847.022	22854
847.158	22736
847.294	22687
847.429	22934
847.565	22717
847.701	23010
847.837	22569
847.972	22592
848.108	22630
848.244	22557
848.379	22478
848.515	22405
848.65	22318
848.786	22432
848.921	22382
849.057	22447
849.192	22485
849.328	22394
849.463	22428
849.598	22291
849.734	22367
849.869	22295
850.004	22131
850.14	22166
850.275	22185
850.41	22124
850.545	22131
850.68	22101
850.815	22139
850.95	22139
851.085	22276
851.22	22166
851.355	22131
851.49	22124
851.625	22238
851.76	22219
851.895	22006
852.03	22067
852.165	22105
852.299	22135
852.434	22246
852.569	22188
852.703	22032
852.838	22246
852.973	22211
853.107	22356
853.242	22147
853.376	22101
853.511	21823
853.645	21968
853.78	22109
853.914	22059
854.048	21960
854.183	21926
854.317	22048
854.451	22188
854.585	21998
854.72	22040
854.854	22010
854.988	21827
855.122	21983
855.256	21831
855.39	21949
855.524	22166
855.658	22059
855.792	21968
855.926	22074
856.06	21987
856.194	21998
856.327	21903
856.461	21854
856.595	21922
856.729	21941
856.862	22200
856.996	21998
857.13	22097
857.263	22139
857.397	22192
857.53	21953
857.664	21945
857.797	22055
857.931	22082
858.064	21960
858.197	22067
858.331	21895
858.464	21873
858.597	21895
858.731	22017
858.864	21930
858.997	21861
859.13	21922
859.263	21895
859.396	22086
859.529	21930
859.662	21876
859.795	21979
859.928	21884
860.061	22139
860.194	22135
860.327	22044
860.46	21873
860.592	22120
860.725	22135
860.858	22128
860.99	21960
861.123	21888
861.256	21831
861.388	21998
861.521	22729
861.653	21915
861.786	21922
861.918	21831
862.05	21831
862.183	21781
862.315	21956
862.447	21922
862.58	21934
862.712	21652
862.844	21705
862.976	21701
863.108	21819
863.24	22059
863.372	21496
863.504	21690
863.636	21625
863.768	21660
863.9	21572
864.032	21515
864.164	21511
864.296	21614
864.428	21698
864.559	21732
864.691	21720
864.823	21747
864.954	21709
865.086	21572
865.217	21500
865.349	21599
865.48	21534
865.612	21606
865.743	21679
865.875	21622
866.006	21553
866.137	21576
866.269	21557
866.4	21564
866.531	21477
866.662	21454
866.793	21363
866.924	21431
867.055	21428
867.186	21542
867.317	21412
867.448	21454
867.579	21367
867.71	21454
867.841	21439
867.972	21469
868.103	21336
868.233	21538
868.364	21416
868.495	21557
868.625	21770
868.756	21842
868.886	21618
869.017	21739
869.147	21842
869.278	21865
869.408	21713
869.539	21781
869.669	21823
869.799	21846
869.929	21949
870.06	21907
870.19	21930
870.32	21956
870.45	21994
870.58	22036
870.71	22192
870.84	22135
870.97	22032
871.1	22082
871.23	22261
871.36	22177
871.489	22249
871.619	22265
871.749	22196
871.879	22268
872.008	22398
872.138	22409
872.267	22287
872.397	22116
872.526	22246
872.656	22223
872.785	22025
872.915	22409
873.044	22363
873.173	22348
873.303	22348
873.432	22409
873.561	22443
873.69	22352
873.819	22375
873.948	22303
874.077	22276
874.206	22299
874.335	22192
874.464	22447
874.593	22668
874.722	22554
874.851	22554
874.979	22481
875.108	22535
875.237	22512
875.365	22394
875.494	22596
875.623	22561
875.751	22607
875.88	22542
876.008	22668
876.136	22733
876.265	22896
876.393	23052
876.521	23041
876.65	22881
876.778	22877
876.906	22828
877.034	22824
877.162	22934
877.29	22911
877.418	22809
877.546	22911
877.674	22869
877.802	22858
877.93	23022
878.058	22904
878.185	22713
878.313	22850
878.441	22877
878.568	22763
878.696	22812
878.824	22953
878.951	23033
879.079	23041
879.206	23227
879.333	23052
879.461	23014
879.588	22972
879.715	23018
879.842	23018
879.97	22862
880.097	22831
880.224	22687
880.351	22653
880.478	22740
880.605	22725
880.732	22713
880.859	22949
880.986	22615
881.112	22782
881.239	22584
881.366	22565
881.493	22341
881.619	22242
881.746	22333
881.872	22188
881.999	22291
882.125	22310
882.252	22169
882.378	22204
882.505	22329
882.631	22006
882.757	21937
882.883	22082
883.01	21915
883.136	22006
883.262	21766
883.388	21804
883.514	21941
883.64	22063
883.766	21922
883.892	21774
884.018	21838
884.143	21903
884.269	21895
884.395	21808
884.52	21580
884.646	21583
884.772	21553
884.897	21614
885.023	21698
885.148	21736
885.274	21819
885.399	21747
885.524	21705
885.65	21717
885.775	21504
885.9	21561
886.025	21762
886.15	21732
886.275	21656
886.4	21568
886.525	21622
886.65	21542
886.775	21466
886.9	21557
887.025	21831
887.149	21625
887.274	21374
887.399	21389
887.523	21412
887.648	21363
887.773	21241
887.897	21397
888.021	21332
888.146	21317
888.27	21469
888.395	21526
888.519	21523
888.643	21355
888.767	21401
888.891	21310
889.015	21203
889.139	21260
889.263	21138
889.387	21279
889.511	21370
889.635	21302
889.759	21096
889.883	21104
890.006	21081
890.13	21131
890.254	21135
890.377	21066
890.501	20804
890.624	20830
890.748	21017
890.871	20754
890.995	20811
891.118	20750
891.241	20743
891.364	20739
891.488	20857
891.611	20689
891.734	20682
891.857	20777
891.98	20762
892.103	20773
892.226	20750
892.349	20739
892.471	20492
892.594	20724
892.717	20594
892.839	20590
892.962	20655
893.085	20819
893.207	20507
893.33	20499
893.452	20541
893.575	20670
893.697	20568
893.819	20807
893.941	20918
894.064	20788
894.186	20629
894.308	20503
894.43	20613
894.552	20754
894.674	20815
894.796	20492
894.918	20549
895.04	20693
895.161	20606
895.283	20629
895.405	20667
895.526	20587
895.648	20533
895.769	20632
895.891	20655
896.012	20663
896.134	20644
896.255	20568
896.376	20636
896.498	20651
896.619	20708
896.74	20503
896.861	20606
896.982	20838
897.103	21100
897.224	20819
897.345	20777
897.466	20750
897.587	20819
897.708	20895
897.828	20720
897.949	20678
898.07	20629
898.19	20705
898.311	20773
898.431	20914
898.552	20682
898.672	20967
898.792	20811
898.913	20796
899.033	20609
899.153	20609
899.273	20434
899.393	20579
899.513	20503
899.633	20526
899.753	20541
899.873	20484
899.993	20621
900.113	20518
900.232	20473
900.352	20438
900.472	20404
900.591	20377
900.711	20290
900.83	20130
900.95	20404
901.069	20377
901.189	20100
901.308	19928
901.427	19974
901.546	19925
901.665	19925
901.784	20016
901.904	19757
902.023	19643
902.141	19381
902.26	19438
902.379	19540
902.498	19483
902.617	19441
902.735	19343
902.854	19403
902.973	19213
903.091	18958
903.21	18973
903.328	19080
903.446	18913
903.565	18787
903.683	18954
903.801	18768
903.919	18814
904.038	18867
904.156	18684
904.274	18730
904.392	18654
904.51	18593
904.627	18494
904.745	18665
904.863	18711
904.981	18391
905.098	18224
905.216	18300
905.334	18338
905.451	18338
905.569	18300
905.686	18273
905.803	18262
905.921	17999
906.038	18190
906.155	18125
906.272	17969
906.389	18026
906.506	17939
906.623	17843
906.74	17840
906.857	17646
906.974	17775
907.091	18007
907.208	17965
907.324	17866
907.441	17790
907.557	17634
907.674	17570
907.79	17455
907.907	17501
908.023	17577
908.139	17570
908.256	17474
908.372	17364
908.488	17421
908.604	17284
908.72	17326
908.836	17212
908.952	17151
909.068	17345
909.184	17242
909.3	17204
909.415	17368
909.531	17208
909.647	16976
909.762	16991
909.878	16892
909.993	16949
910.108	16911
910.224	16904
910.339	16801
910.454	16850
910.57	16759
910.685	16691
910.8	17075
910.915	16862
911.03	16733
911.145	16538
911.259	16512
911.374	16500
911.489	16459
911.604	16379
911.718	16223
911.833	16196
911.947	16101
912.062	16128
912.176	16238
912.291	16291
912.405	16226
912.519	16421
912.633	16405
912.748	16291
912.862	16181
912.976	16109
913.09	15972
913.204	16010
913.318	16116
913.431	16166
913.545	16204
913.659	16192
913.772	15918
913.886	15911
914	15987
914.113	16017
914.226	16032
914.34	15930
914.453	15873
914.566	15979
914.68	15819
914.793	15789
914.906	15542
915.019	15538
915.132	15408
915.245	15553
915.358	15622
915.47	15584
915.583	15526
915.696	15572
915.809	15618
915.921	15641
916.034	15416
916.146	15393
916.259	15325
916.371	15530
916.483	15401
916.595	15306
916.708	15325
916.82	15298
916.932	15321
917.044	15279
917.156	15294
917.268	15173
917.38	15287
917.491	15100
917.603	15165
917.715	15161
917.826	15344
917.938	15154
918.049	15001
918.161	15097
918.272	15222
918.384	15283
918.495	15028
918.606	14979
918.717	14891
918.828	14990
918.939	14902
919.05	14895
919.161	14868
919.272	14640
919.383	14716
919.494	14971
919.604	15039
919.715	14887
919.826	14758
919.936	14777
920.047	14918
920.157	14830
920.267	15085
920.378	14861
920.488	14861
920.598	15051
920.708	15195
920.818	14994
920.928	15020
921.038	15089
921.148	15142
921.258	14777
921.368	14708
921.477	14632
921.587	14659
921.697	14469
921.806	14613
921.916	14370
922.025	14244
922.134	14202
922.244	14195
922.353	14294
922.462	14107
922.571	14001
922.68	14008
922.789	13909
922.898	13807
923.007	13738
923.116	13932
923.224	13833
923.333	13925
923.442	13734
923.55	13723
923.659	13643
923.767	13807
923.876	13651
923.984	13704
924.092	13594
924.201	13624
924.309	13620
924.417	13590
924.525	13506
924.633	13655
924.741	14488
924.849	13369
924.956	13460
925.064	13388
925.172	13263
925.279	13259
925.387	13282
925.494	13259
925.602	13426
925.709	13259
925.816	13152
925.924	13183
926.031	13282
926.138	13304
926.245	13282
926.352	13118
926.459	13285
926.566	13270
926.673	13183
926.779	13012
926.886	13027
926.993	12886
927.099	12738
927.206	12932
927.312	12749
927.419	12802
927.525	12768
927.631	12817
927.737	12745
927.843	12658
927.95	12570
928.056	12574
928.162	12627
928.267	12681
928.373	13095
928.479	12688
928.585	12506
928.69	12536
928.796	12604
928.901	12544
929.007	12350
929.112	12414
929.218	12509
929.323	12407
929.428	12315
929.533	12509
929.638	12273
929.743	12334
929.848	12353
929.953	12330
930.058	12175
930.163	12053
930.267	12106
930.372	12155
930.477	12106
930.581	12220
930.685	12190
930.79	11977
930.894	11942
930.998	11798
931.103	12057
931.207	11710
931.311	11551
931.415	11512
931.519	11311
931.623	11292
