Data from test_V78500241_2669.txt Node
Date: Fri Mar 25 15:28:26 CST 2022
User: usil
Spectrometer: V785-0024
Trigger mode: 0
Integration Time (sec): 4.000000E-1
Scans to average: 1
Nonlinearity correction enabled: false
Boxcar width: 0
Storing dark spectrum: false
XAxis mode: Wavelengths
Number of Pixels in Spectrum: 1024
>>>>>Begin Spectral Data<<<<<
801.071	27127
801.214	27123
801.356	26842
801.499	26815
801.641	26716
801.783	26651
801.926	26777
802.068	26686
802.211	26606
802.353	26492
802.496	26351
802.638	26396
802.78	26343
802.923	26351
803.065	26271
803.208	26218
803.35	26252
803.492	26511
803.635	26465
803.777	26324
803.919	26602
804.061	26811
804.204	26427
804.346	26511
804.488	26427
804.63	26393
804.773	26332
804.915	26377
805.057	26457
805.199	26393
805.341	26571
805.483	26575
805.626	26693
805.768	26427
805.91	26655
806.052	26697
806.194	26552
806.336	26579
806.478	26579
806.62	26541
806.762	26769
806.904	26849
807.046	27081
807.188	26990
807.33	26979
807.472	26872
807.614	26971
807.756	26891
807.898	26902
808.04	26804
808.182	26800
808.324	26823
808.465	26834
808.607	27108
808.749	27287
808.891	27268
809.033	27321
809.174	27230
809.316	27218
809.458	27112
809.6	27055
809.741	27294
809.883	27310
810.025	27591
810.166	27481
810.308	27412
810.45	27466
810.591	27454
810.733	27135
810.875	27203
811.016	27047
811.158	27112
811.299	27287
811.441	27435
811.582	27310
811.724	27332
811.865	27093
812.007	27104
812.148	27123
812.29	27211
812.431	27317
812.573	27469
812.714	27526
812.855	27610
812.997	27743
813.138	27835
813.279	27701
813.421	27576
813.562	27564
813.703	27401
813.845	27302
813.986	26990
814.127	26899
814.268	26754
814.41	26777
814.551	26819
814.692	26899
814.833	26693
814.974	26792
815.115	26750
815.256	26590
815.397	26579
815.539	26552
815.68	26693
815.821	26518
815.962	26636
816.103	26442
816.244	26336
816.385	26282
816.526	26248
816.666	26161
816.807	26096
816.948	26134
817.089	26149
817.23	26016
817.371	25921
817.512	25978
817.653	26012
817.793	26111
817.934	26172
818.075	26164
818.216	26084
818.356	26005
818.497	25849
818.638	25845
818.778	25784
818.919	25791
819.06	25841
819.2	25955
819.341	26084
819.481	26005
819.622	26176
819.762	26339
819.903	26294
820.043	26126
820.184	26214
820.324	26134
820.465	26183
820.605	26256
820.746	26115
820.886	26024
821.026	26088
821.167	26046
821.307	26100
821.447	26092
821.588	25989
821.728	25955
821.868	25696
822.008	25578
822.149	25419
822.289	25521
822.429	25285
822.569	25168
822.709	25343
822.849	25168
822.99	24947
823.13	25034
823.27	25103
823.41	24825
823.55	24665
823.69	24905
823.83	24894
823.97	24810
824.11	24768
824.25	24631
824.389	24738
824.529	24745
824.669	24719
824.809	24840
824.949	24734
825.089	24772
825.228	24768
825.368	24578
825.508	24642
825.648	24517
825.787	24646
825.927	24627
826.067	24505
826.206	24563
826.346	24722
826.485	24570
826.625	24559
826.765	24639
826.904	24627
827.044	24357
827.183	24410
827.323	24342
827.462	24319
827.601	24315
827.741	24224
827.88	24254
828.02	24136
828.159	24178
828.298	24273
828.437	24403
828.577	24197
828.716	24330
828.855	24167
828.994	23980
829.134	24038
829.273	23977
829.412	23954
829.551	23901
829.69	23969
829.829	23973
829.968	23984
830.107	24114
830.246	23977
830.385	23874
830.524	23882
830.663	23878
830.802	23790
830.941	23695
831.08	23752
831.219	23684
831.357	23676
831.496	23897
831.635	23695
831.774	23638
831.913	23440
832.051	23311
832.19	23414
832.329	23414
832.467	23296
832.606	23071
832.744	23140
832.883	23273
833.022	23242
833.16	23254
833.299	23360
833.437	23334
833.576	23353
833.714	23330
833.852	23269
833.991	23505
834.129	23368
834.267	23425
834.406	23444
834.544	23376
834.682	23303
834.821	23337
834.959	23368
835.097	23242
835.235	23486
835.373	23273
835.511	23299
835.65	23261
835.788	23288
835.926	23124
836.064	22881
836.202	23071
836.34	23220
836.478	23273
836.615	23174
836.753	23227
836.891	23269
837.029	23273
837.167	23071
837.305	23128
837.443	23067
837.58	22976
837.718	23025
837.856	22942
837.993	23048
838.131	22946
838.269	22930
838.406	23044
838.544	23033
838.681	22687
838.819	22573
838.956	22462
839.094	22542
839.231	22527
839.369	22645
839.506	23022
839.643	22793
839.781	22687
839.918	22550
840.055	22546
840.193	22538
840.33	22402
840.467	22523
840.604	22481
840.742	22797
840.879	22436
841.016	22348
841.153	22375
841.29	22538
841.427	22565
841.564	22474
841.701	22329
841.838	22504
841.975	22329
842.112	22432
842.249	22318
842.385	22249
842.522	22436
842.659	22188
842.796	22128
842.933	22211
843.069	22086
843.206	22093
843.343	22379
843.479	22204
843.616	22166
843.752	22013
843.889	22055
844.025	22128
844.162	21987
844.298	22188
844.435	22006
844.571	21968
844.708	21975
844.844	22097
844.98	22021
845.117	22090
845.253	21975
845.389	21895
845.525	21953
845.661	21838
845.798	21774
845.934	21778
846.07	21633
846.206	21637
846.342	21884
846.478	21736
846.614	21572
846.75	21344
846.886	21488
847.022	21424
847.158	21462
847.294	21386
847.429	21511
847.565	21481
847.701	21606
847.837	21176
847.972	21192
848.108	21359
848.244	21321
848.379	21093
848.515	21055
848.65	21074
848.786	20929
848.921	21039
849.057	21176
849.192	20994
849.328	21001
849.463	21154
849.598	21009
849.734	20910
849.869	20891
850.004	20830
850.14	20781
850.275	20804
850.41	20804
850.545	20644
850.68	20746
850.815	20872
850.95	20716
851.085	20933
851.22	20975
851.355	20849
851.49	20910
851.625	20754
851.76	20838
851.895	20743
852.03	20712
852.165	20891
852.299	20918
852.434	20887
852.569	20853
852.703	20705
852.838	20902
852.973	20918
853.107	20899
853.242	20765
853.376	20739
853.511	20522
853.645	20579
853.78	20708
853.914	20663
854.048	20492
854.183	20724
854.317	20651
854.451	20845
854.585	20632
854.72	20590
854.854	20807
854.988	20473
855.122	20579
855.256	20507
855.39	20625
855.524	20686
855.658	20575
855.792	20705
855.926	20727
856.06	20644
856.194	20838
856.327	20655
856.461	20708
856.595	20568
856.729	20682
856.862	20693
856.996	20533
857.13	20735
857.263	20739
857.397	20746
857.53	20533
857.664	20648
857.797	20617
857.931	20674
858.064	20686
858.197	20708
858.331	20579
858.464	20507
858.597	20549
858.731	20674
858.864	20484
858.997	20609
859.13	20746
859.263	20587
859.396	20670
859.529	20552
859.662	20480
859.795	20560
859.928	20613
860.061	20781
860.194	20872
860.327	20526
860.46	20724
860.592	20735
860.725	20735
860.858	20887
860.99	20431
861.123	20465
861.256	20552
861.388	20670
861.521	21287
861.653	20404
861.786	20473
861.918	20552
862.05	20526
862.183	20511
862.315	20568
862.447	20617
862.58	20583
862.712	20343
862.844	20305
862.976	20324
863.108	20396
863.24	20826
863.372	20415
863.504	20461
863.636	20339
863.768	20355
863.9	20438
864.032	20237
864.164	20256
864.296	20286
864.428	20415
864.559	20396
864.691	20518
864.823	20278
864.954	20355
865.086	20202
865.217	20248
865.349	20168
865.48	20149
865.612	20225
865.743	20290
865.875	20278
866.006	20225
866.137	20317
866.269	20252
866.4	20214
866.531	20248
866.662	20138
866.793	20183
866.924	20191
867.055	20210
867.186	20202
867.317	20126
867.448	20084
867.579	20183
867.71	20122
867.841	20164
867.972	20195
868.103	20149
868.233	20259
868.364	20313
868.495	20233
868.625	20404
868.756	20541
868.886	20442
869.017	20412
869.147	20473
869.278	20579
869.408	20476
869.539	20400
869.669	20427
869.799	20533
869.929	20579
870.06	20659
870.19	20842
870.32	20655
870.45	20746
870.58	20838
870.71	20944
870.84	20887
870.97	20815
871.1	20777
871.23	20994
871.36	21123
871.489	20880
871.619	21058
871.749	21028
871.879	20998
872.008	21184
872.138	21081
872.267	21013
872.397	20887
872.526	20868
872.656	20918
872.785	20857
872.915	21116
873.044	21184
873.173	21047
873.303	21157
873.432	21096
873.561	21180
873.69	21131
873.819	20990
873.948	21154
874.077	21100
874.206	21017
874.335	21028
874.464	21154
874.593	21233
874.722	21355
874.851	21393
874.979	21252
875.108	21408
875.237	21214
875.365	21287
875.494	21294
875.623	21397
875.751	21370
875.88	21332
876.008	21351
876.136	21374
876.265	21774
876.393	21808
876.521	21755
876.65	21899
876.778	21698
876.906	21660
877.034	21618
877.162	21720
877.29	21595
877.418	21614
877.546	21698
877.674	21671
877.802	21778
877.93	21564
878.058	21595
878.185	21511
878.313	21595
878.441	21667
878.568	21348
878.696	21648
878.824	21671
878.951	21625
879.079	21739
879.206	21888
879.333	21766
879.461	21679
879.588	21743
879.715	21743
879.842	21808
879.97	21835
880.097	21485
880.224	21431
880.351	21633
880.478	21485
880.605	21397
880.732	21447
880.859	21694
880.986	21450
881.112	21488
881.239	21359
881.366	21142
881.493	21062
881.619	21081
881.746	20986
881.872	21009
881.999	21074
882.125	21077
882.252	21112
882.378	20994
882.505	21047
882.631	20960
882.757	20819
882.883	20891
883.01	20663
883.136	20655
883.262	20708
883.388	20667
883.514	20830
883.64	20842
883.766	20689
883.892	20495
884.018	20587
884.143	20678
884.269	20796
884.395	20457
884.52	20476
884.646	20396
884.772	20358
884.897	20290
885.023	20571
885.148	20541
885.274	20514
885.399	20492
885.524	20400
885.65	20438
885.775	20503
885.9	20423
886.025	20564
886.15	20571
886.275	20404
886.4	20305
886.525	20343
886.65	20381
886.775	20336
886.9	20507
887.025	20530
887.149	20355
887.274	20263
887.399	20199
887.523	20240
887.648	20161
887.773	20134
887.897	20210
888.021	20248
888.146	20058
888.27	20339
888.395	20229
888.519	20202
888.643	20214
888.767	20153
888.891	20096
889.015	20031
889.139	19993
889.263	19909
889.387	20065
889.511	20168
889.635	20088
889.759	19986
889.883	19898
890.006	20050
890.13	20077
890.254	19921
890.377	19879
890.501	19674
890.624	19681
890.748	19791
890.871	19704
890.995	19571
891.118	19521
891.241	19537
891.364	19605
891.488	19639
891.611	19563
891.734	19651
891.857	19628
891.98	19605
892.103	19605
892.226	19575
892.349	19480
892.471	19419
892.594	19487
892.717	19525
892.839	19525
892.962	19559
893.085	19613
893.207	19559
893.33	19369
893.452	19441
893.575	19426
893.697	19441
893.819	19620
893.941	19696
894.064	19548
894.186	19365
894.308	19441
894.43	19559
894.552	19556
894.674	19643
894.796	19407
894.918	19514
895.04	19559
895.161	19571
895.283	19464
895.405	19392
895.526	19460
895.648	19476
895.769	19548
895.891	19430
896.012	19586
896.134	19518
896.255	19540
896.376	19453
896.498	19483
896.619	19457
896.74	19415
896.861	19586
896.982	19780
897.103	19925
897.224	19727
897.345	19761
897.466	19613
897.587	19685
897.708	19860
897.828	19791
897.949	19613
898.07	19529
898.19	19540
898.311	19753
898.431	19609
898.552	19757
898.672	19700
898.792	19879
898.913	19719
899.033	19776
899.153	19601
899.273	19453
899.393	19491
899.513	19495
899.633	19411
899.753	19495
899.873	19518
899.993	19575
900.113	19468
900.232	19403
900.352	19369
900.472	19232
900.591	19179
900.711	19221
900.83	19327
900.95	19362
901.069	19445
901.189	19259
901.308	18833
901.427	18909
901.546	18920
901.665	18856
901.784	18829
901.904	18715
902.023	18677
902.141	18525
902.26	18372
902.379	18536
902.498	18319
902.617	18289
902.735	18376
902.854	18361
902.973	18258
903.091	18053
903.21	18068
903.328	18060
903.446	18064
903.565	17908
903.683	17878
903.801	17745
903.919	17767
904.038	17840
904.156	17604
904.274	17764
904.392	17661
904.51	17577
904.627	17638
904.745	17752
904.863	17775
904.981	17391
905.098	17277
905.216	17284
905.334	17398
905.451	17296
905.569	17280
905.686	17292
905.803	17322
905.921	17121
906.038	17170
906.155	17117
906.272	16999
906.389	17098
906.506	16946
906.623	16854
906.74	16744
906.857	16702
906.974	16736
907.091	16805
907.208	16980
907.324	16877
907.441	16908
907.557	16656
907.674	16630
907.79	16531
907.907	16527
908.023	16618
908.139	16603
908.256	16550
908.372	16478
908.488	16356
908.604	16291
908.72	16223
908.836	16398
908.952	16257
909.068	16314
909.184	16299
909.3	16341
909.415	16299
909.531	16276
909.647	16063
909.762	16063
909.878	15983
909.993	16021
910.108	16021
910.224	15998
910.339	15937
910.454	15850
910.57	15804
910.685	15694
910.8	16010
910.915	16078
911.03	15850
911.145	15698
911.259	15553
911.374	15663
911.489	15629
911.604	15496
911.718	15405
911.833	15408
911.947	15378
912.062	15268
912.176	15435
912.291	15420
912.405	15549
912.519	15671
912.633	15515
912.748	15363
912.862	15393
912.976	15294
913.09	15085
913.204	15195
913.318	15252
913.431	15291
913.545	15325
913.659	15310
913.772	15127
913.886	14998
914	14986
914.113	15077
914.226	15089
914.34	14941
914.453	14910
914.566	15036
914.68	14918
914.793	14891
914.906	14712
915.019	14632
915.132	14613
915.245	14571
915.358	14587
915.47	14590
915.583	14594
915.696	14659
915.809	14712
915.921	14815
916.034	14545
916.146	14495
916.259	14518
916.371	14644
916.483	14590
916.595	14469
916.708	14503
916.82	14492
916.932	14434
917.044	14347
917.156	14404
917.268	14248
917.38	14286
917.491	14263
917.603	14324
917.715	14377
917.826	14374
917.938	14221
918.049	14145
918.161	14172
918.272	14362
918.384	14438
918.495	14206
918.606	14062
918.717	14039
918.828	14062
918.939	14107
919.05	13947
919.161	13963
919.272	13826
919.383	13932
919.494	14062
919.604	14336
919.715	14050
919.826	13970
919.936	14039
920.047	14035
920.157	14050
920.267	14206
920.378	14012
920.488	13909
920.598	14225
920.708	14263
920.818	14221
920.928	14191
921.038	14290
921.148	14263
921.258	13913
921.368	13822
921.477	13856
921.587	13788
921.697	13685
921.806	13746
921.916	13651
922.025	13491
922.134	13419
922.244	13445
922.353	13521
922.462	13285
922.571	13297
922.68	13099
922.789	13012
922.898	13069
923.007	13000
923.116	13175
923.224	13057
923.333	13012
923.442	12958
923.55	12985
923.659	12852
923.767	12901
923.876	12867
923.984	12951
924.092	12856
924.201	12817
924.309	12791
924.417	12890
924.525	12798
924.633	12776
924.741	13704
924.849	12570
924.956	12620
925.064	12544
925.172	12498
925.279	12486
925.387	12597
925.494	12604
925.602	12642
925.709	12570
925.816	12490
925.924	12521
926.031	12540
926.138	12448
926.245	12585
926.352	12342
926.459	12544
926.566	12563
926.673	12361
926.779	12273
926.886	12239
926.993	12152
927.099	12136
927.206	12117
927.312	12091
927.419	12064
927.525	12136
927.631	12216
927.737	12049
927.843	11980
927.95	11859
928.056	11950
928.162	11904
928.267	12003
928.373	12471
928.479	12045
928.585	11863
928.69	11870
928.796	11988
928.901	11794
929.007	11672
929.112	11817
929.218	11786
929.323	11722
929.428	11642
929.533	11775
929.638	11615
929.743	11581
929.848	11665
929.953	11573
930.058	11497
930.163	11372
930.267	11337
930.372	11501
930.477	11368
930.581	11558
930.685	11398
930.79	11239
930.894	11258
930.998	11189
931.103	11337
931.207	11014
931.311	10908
931.415	10820
931.519	10622
931.623	10603
