Data from test_V78500241_299.txt Node
Date: Fri Mar 25 15:11:56 CST 2022
User: usil
Spectrometer: V785-0024
Trigger mode: 0
Integration Time (sec): 4.000000E-1
Scans to average: 1
Nonlinearity correction enabled: false
Boxcar width: 0
Storing dark spectrum: false
XAxis mode: Wavelengths
Number of Pixels in Spectrum: 1024
>>>>>Begin Spectral Data<<<<<
801.071	27667
801.214	27637
801.356	27515
801.499	27348
801.641	27275
801.783	27302
801.926	27287
802.068	27351
802.211	27222
802.353	27138
802.496	27001
802.638	26929
802.78	26952
802.923	26899
803.065	26823
803.208	27017
803.35	26918
803.492	27017
803.635	27104
803.777	26975
803.919	27119
804.061	27283
804.204	27116
804.346	27001
804.488	26758
804.63	27058
804.773	26800
804.915	27070
805.057	27116
805.199	27005
805.341	27138
805.483	27138
805.626	27096
805.768	27119
805.91	27085
806.052	27203
806.194	26975
806.336	27218
806.478	27184
806.62	27089
806.762	27199
806.904	27264
807.046	27660
807.188	27466
807.33	27443
807.472	27705
807.614	27447
807.756	27355
807.898	27351
808.04	27344
808.182	27218
808.324	27249
808.465	27325
808.607	27606
808.749	27629
808.891	27835
809.033	28002
809.174	27717
809.316	27564
809.458	27572
809.6	27622
809.741	27663
809.883	27934
810.025	27888
810.166	27945
810.308	27884
810.45	27914
810.591	27903
810.733	27709
810.875	27675
811.016	27519
811.158	27545
811.299	27637
811.441	27831
811.582	27686
811.724	27515
811.865	27595
812.007	27625
812.148	27629
812.29	27656
812.431	27861
812.573	27983
812.714	28078
812.855	28135
812.997	28291
813.138	28337
813.279	28230
813.421	28181
813.562	28196
813.703	27835
813.845	27949
813.986	27580
814.127	27416
814.268	27386
814.41	27348
814.551	27355
814.692	27298
814.833	27294
814.974	27192
815.115	27260
815.256	27089
815.397	27203
815.539	27093
815.68	27066
815.821	27039
815.962	27260
816.103	27096
816.244	26910
816.385	26750
816.526	26864
816.666	26697
816.807	26492
816.948	26712
817.089	26621
817.23	26545
817.371	26473
817.512	26473
817.653	26507
817.793	26514
817.934	26495
818.075	26594
818.216	26552
818.356	26385
818.497	26336
818.638	26252
818.778	26092
818.919	26328
819.06	26214
819.2	26309
819.341	26514
819.481	26423
819.622	26636
819.762	26842
819.903	26708
820.043	26583
820.184	26629
820.324	26560
820.465	26571
820.605	26552
820.746	26461
820.886	26412
821.026	26514
821.167	26522
821.307	26571
821.447	26545
821.588	26374
821.728	26210
821.868	26020
822.008	25818
822.149	25864
822.289	25830
822.429	25647
822.569	25613
822.709	25677
822.849	25601
822.99	25407
823.13	25297
823.27	25308
823.41	25190
823.55	25183
823.69	25324
823.83	25179
823.97	25107
824.11	25057
824.25	25114
824.389	24920
824.529	25095
824.669	25046
824.809	25110
824.949	25152
825.089	25160
825.228	24939
825.368	24856
825.508	24871
825.648	24928
825.787	24882
825.927	24913
826.067	24943
826.206	24863
826.346	24973
826.485	24856
826.625	24844
826.765	24920
826.904	24867
827.044	24635
827.183	24582
827.323	24555
827.462	24513
827.601	24654
827.741	24642
827.88	24513
828.02	24502
828.159	24578
828.298	24555
828.437	24631
828.577	24460
828.716	24692
828.855	24441
828.994	24342
829.134	24186
829.273	24235
829.412	24190
829.551	24194
829.69	24300
829.829	24308
829.968	24315
830.107	24270
830.246	24235
830.385	24224
830.524	24216
830.663	24068
830.802	23977
830.941	23889
831.08	23828
831.219	24011
831.357	23832
831.496	24125
831.635	23893
831.774	23794
831.913	23790
832.051	23832
832.19	23657
832.329	23718
832.467	23543
832.606	23356
832.744	23436
832.883	23433
833.022	23436
833.16	23600
833.299	23627
833.437	23539
833.576	23627
833.714	23581
833.852	23649
833.991	23748
834.129	23634
834.267	23585
834.406	23543
834.544	23634
834.682	23528
834.821	23512
834.959	23866
835.097	23512
835.235	23554
835.373	23543
835.511	23531
835.65	23379
835.788	23398
835.926	23353
836.064	23204
836.202	23185
836.34	23356
836.478	23551
836.615	23395
836.753	23444
836.891	23547
837.029	23452
837.167	23398
837.305	23299
837.443	23425
837.58	23254
837.718	23356
837.856	23288
837.993	23204
838.131	23258
838.269	23071
838.406	23094
838.544	23022
838.681	22793
838.819	22908
838.956	22641
839.094	22653
839.231	22706
839.369	22900
839.506	23079
839.643	22961
839.781	22763
839.918	22546
840.055	22721
840.193	22790
840.33	22634
840.467	22641
840.604	22656
840.742	22976
840.879	22481
841.016	22565
841.153	22432
841.29	22717
841.427	22694
841.564	22542
841.701	22459
841.838	22577
841.975	22481
842.112	22675
842.249	22443
842.385	22223
842.522	22573
842.659	22367
842.796	22375
842.933	22325
843.069	22398
843.206	22268
843.343	22413
843.479	22421
843.616	22329
843.752	22059
843.889	22219
844.025	22226
844.162	22112
844.298	22097
844.435	22124
844.571	22143
844.708	22059
844.844	22135
844.98	22284
845.117	22226
845.253	21975
845.389	21983
845.525	21998
845.661	22128
845.798	21899
845.934	21812
846.07	21804
846.206	21865
846.342	21979
846.478	21785
846.614	21618
846.75	21736
846.886	21534
847.022	21622
847.158	21542
847.294	21606
847.429	21766
847.565	21549
847.701	21895
847.837	21386
847.972	21192
848.108	21496
848.244	21408
848.379	21275
848.515	21131
848.65	21135
848.786	21192
848.921	21157
849.057	21291
849.192	21329
849.328	21169
849.463	21188
849.598	21135
849.734	21032
849.869	21116
850.004	21047
850.14	20956
850.275	21017
850.41	20705
850.545	20849
850.68	20845
850.815	20902
850.95	20891
851.085	21039
851.22	21036
851.355	20880
851.49	20861
851.625	20963
851.76	20834
851.895	20876
852.03	20880
852.165	20777
852.299	20899
852.434	20979
852.569	20979
852.703	20845
852.838	20895
852.973	21043
853.107	21017
853.242	20750
853.376	20724
853.511	20575
853.645	20667
853.78	20861
853.914	20857
854.048	20686
854.183	20838
854.317	20754
854.451	20956
854.585	20674
854.72	20705
854.854	20743
854.988	20731
855.122	20754
855.256	20693
855.39	20697
855.524	20765
855.658	20686
855.792	20773
855.926	20682
856.06	20853
856.194	20868
856.327	20705
856.461	20746
856.595	20625
856.729	20693
856.862	20830
856.996	20861
857.13	20758
857.263	20960
857.397	20876
857.53	20613
857.664	20697
857.797	20902
857.931	20914
858.064	20804
858.197	20788
858.331	20625
858.464	20712
858.597	20564
858.731	20712
858.864	20727
858.997	20636
859.13	20659
859.263	20750
859.396	20743
859.529	20739
859.662	20785
859.795	20670
859.928	20686
860.061	20834
860.194	20796
860.327	20731
860.46	20712
860.592	20800
860.725	20765
860.858	20880
860.99	20815
861.123	20705
861.256	20655
861.388	20689
861.521	21420
861.653	20511
861.786	20526
861.918	20644
862.05	20640
862.183	20781
862.315	20682
862.447	20659
862.58	20541
862.712	20545
862.844	20309
862.976	20427
863.108	20389
863.24	21013
863.372	20305
863.504	20404
863.636	20461
863.768	20423
863.9	20427
864.032	20301
864.164	20347
864.296	20503
864.428	20511
864.559	20427
864.691	20495
864.823	20450
864.954	20324
865.086	20370
865.217	20282
865.349	20164
865.48	20389
865.612	20244
865.743	20454
865.875	20423
866.006	20282
866.137	20309
866.269	20313
866.4	20320
866.531	20111
866.662	20191
866.793	20191
866.924	20225
867.055	20275
867.186	20275
867.317	20183
867.448	20119
867.579	20191
867.71	20138
867.841	20084
867.972	20244
868.103	20145
868.233	20263
868.364	20172
868.495	20301
868.625	20469
868.756	20564
868.886	20446
869.017	20465
869.147	20552
869.278	20629
869.408	20583
869.539	20465
869.669	20495
869.799	20488
869.929	20590
870.06	20609
870.19	20667
870.32	20765
870.45	20727
870.58	20864
870.71	20994
870.84	20861
870.97	20807
871.1	20788
871.23	21017
871.36	21077
871.489	21020
871.619	21039
871.749	21001
871.879	21089
872.008	21176
872.138	21169
872.267	21135
872.397	20971
872.526	20887
872.656	20899
872.785	20845
872.915	21226
873.044	21173
873.173	21085
873.303	21188
873.432	21093
873.561	21199
873.69	21123
873.819	21184
873.948	21131
874.077	21157
874.206	21104
874.335	21138
874.464	21287
874.593	21382
874.722	21329
874.851	21256
874.979	21344
875.108	21389
875.237	21313
875.365	21321
875.494	21340
875.623	21424
875.751	21393
875.88	21420
876.008	21515
876.136	21587
876.265	21755
876.393	21987
876.521	21907
876.65	21873
876.778	21724
876.906	21755
877.034	21732
877.162	21698
877.29	21511
877.418	21789
877.546	21736
877.674	21736
877.802	21694
877.93	21599
878.058	21724
878.185	21682
878.313	21747
878.441	21739
878.568	21595
878.696	21610
878.824	21637
878.951	21903
879.079	21903
879.206	22074
879.333	21827
879.461	21778
879.588	21888
879.715	21911
879.842	21937
879.97	21709
880.097	21614
880.224	21652
880.351	21580
880.478	21534
880.605	21564
880.732	21473
880.859	21793
880.986	21485
881.112	21549
881.239	21401
881.366	21264
881.493	21195
881.619	21055
881.746	21093
881.872	21192
881.999	21074
882.125	21096
882.252	21173
882.378	21226
882.505	21192
882.631	21058
882.757	20864
882.883	20956
883.01	20880
883.136	20773
883.262	20636
883.388	20689
883.514	20735
883.64	20876
883.766	20777
883.892	20705
884.018	20739
884.143	20849
884.269	20762
884.395	20617
884.52	20518
884.646	20518
884.772	20454
884.897	20499
885.023	20522
885.148	20514
885.274	20522
885.399	20552
885.524	20564
885.65	20579
885.775	20507
885.9	20526
886.025	20659
886.15	20640
886.275	20476
886.4	20469
886.525	20492
886.65	20355
886.775	20389
886.9	20571
887.025	20663
887.149	20476
887.274	20221
887.399	20347
887.523	20252
887.648	20183
887.773	20282
887.897	20328
888.021	20317
888.146	20229
888.27	20415
888.395	20328
888.519	20248
888.643	20339
888.767	20374
888.891	20138
889.015	20153
889.139	20149
889.263	20054
889.387	20115
889.511	20275
889.635	20126
889.759	19982
889.883	20107
890.006	20016
890.13	20149
890.254	19902
890.377	19921
890.501	19765
890.624	19864
890.748	19875
890.871	19788
890.995	19567
891.118	19693
891.241	19693
891.364	19750
891.488	19784
891.611	19601
891.734	19677
891.857	19685
891.98	19635
892.103	19708
892.226	19651
892.349	19594
892.471	19540
892.594	19597
892.717	19632
892.839	19556
892.962	19495
893.085	19670
893.207	19521
893.33	19422
893.452	19419
893.575	19624
893.697	19495
893.819	19734
893.941	19719
894.064	19647
894.186	19430
894.308	19457
894.43	19727
894.552	19734
894.674	19571
894.796	19453
894.918	19487
895.04	19552
895.161	19628
895.283	19597
895.405	19388
895.526	19605
895.648	19582
895.769	19537
895.891	19616
896.012	19597
896.134	19628
896.255	19590
896.376	19525
896.498	19563
896.619	19597
896.74	19537
896.861	19731
896.982	19967
897.103	20001
897.224	19799
897.345	19791
897.466	19765
897.587	19696
897.708	19970
897.828	19856
897.949	19750
898.07	19655
898.19	19822
898.311	19788
898.431	19769
898.552	19757
898.672	19986
898.792	19841
898.913	19826
899.033	19643
899.153	19594
899.273	19411
899.393	19567
899.513	19635
899.633	19506
899.753	19563
899.873	19529
899.993	19540
900.113	19381
900.232	19499
900.352	19419
900.472	19464
900.591	19270
900.711	19377
900.83	19449
900.95	19392
901.069	19457
901.189	19236
901.308	19000
901.427	18901
901.546	18943
901.665	19004
901.784	18951
901.904	18890
902.023	18753
902.141	18407
902.26	18437
902.379	18448
902.498	18311
902.617	18323
902.735	18357
902.854	18388
902.973	18281
903.091	18163
903.21	18072
903.328	18022
903.446	18045
903.565	18045
903.683	17931
903.801	17729
903.919	17889
904.038	17843
904.156	17665
904.274	17764
904.392	17680
904.51	17657
904.627	17608
904.745	17619
904.863	17718
904.981	17539
905.098	17311
905.216	17227
905.334	17376
905.451	17349
905.569	17326
905.686	17330
905.803	17383
905.921	17105
906.038	17337
906.155	17132
906.272	17018
906.389	16968
906.506	16858
906.623	16965
906.74	16946
906.857	16812
906.974	16691
907.091	16968
907.208	17045
907.324	16904
907.441	16683
907.557	16558
907.674	16675
907.79	16542
907.907	16535
908.023	16679
908.139	16573
908.256	16561
908.372	16516
908.488	16436
908.604	16234
908.72	16333
908.836	16356
908.952	16261
909.068	16356
909.184	16341
909.3	16223
909.415	16276
909.531	16265
909.647	16059
909.762	15964
909.878	15968
909.993	15907
910.108	15979
910.224	15979
910.339	15941
910.454	15922
910.57	15892
910.685	15682
910.8	15930
910.915	15975
911.03	15816
911.145	15629
911.259	15599
911.374	15595
911.489	15625
911.604	15545
911.718	15363
911.833	15382
911.947	15230
912.062	15169
912.176	15336
912.291	15313
912.405	15310
912.519	15507
912.633	15504
912.748	15466
912.862	15218
912.976	15131
913.09	15127
913.204	15013
913.318	15230
913.431	15298
913.545	15161
913.659	15294
913.772	15123
913.886	14956
914	14956
914.113	15077
914.226	15001
914.34	15055
914.453	14887
914.566	15028
914.68	14880
914.793	14819
914.906	14689
915.019	14617
915.132	14556
915.245	14526
915.358	14644
915.47	14678
915.583	14667
915.696	14727
915.809	14746
915.921	14746
916.034	14541
916.146	14507
916.259	14476
916.371	14575
916.483	14564
916.595	14461
916.708	14469
916.82	14476
916.932	14370
917.044	14457
917.156	14412
917.268	14305
917.38	14366
917.491	14256
917.603	14290
917.715	14343
917.826	14343
917.938	14229
918.049	14111
918.161	14240
918.272	14309
918.384	14355
918.495	14237
918.606	14168
918.717	13951
918.828	14084
918.939	14107
919.05	13932
919.161	13989
919.272	13788
919.383	13845
919.494	14020
919.604	14210
919.715	14058
919.826	13845
919.936	13989
920.047	14069
920.157	14001
920.267	14153
920.378	13913
920.488	14031
920.598	14172
920.708	14237
920.818	14157
920.928	14161
921.038	14320
921.148	14142
921.258	13970
921.368	13875
921.477	13830
921.587	13738
921.697	13666
921.806	13780
921.916	13571
922.025	13411
922.134	13449
922.244	13255
922.353	13415
922.462	13289
922.571	13217
922.68	13027
922.789	13023
922.898	13076
923.007	12943
923.116	13050
923.224	12958
923.333	13012
923.442	12913
923.55	12905
923.659	12894
923.767	12867
923.876	12840
923.984	12905
924.092	12715
924.201	12878
924.309	12837
924.417	12859
924.525	12711
924.633	12741
924.741	13449
924.849	12547
924.956	12650
925.064	12456
925.172	12490
925.279	12437
925.387	12544
925.494	12426
925.602	12616
925.709	12532
925.816	12414
925.924	12407
926.031	12570
926.138	12422
926.245	12456
926.352	12304
926.459	12494
926.566	12544
926.673	12452
926.779	12251
926.886	12239
926.993	12114
927.099	12106
927.206	12045
927.312	12003
927.419	12133
927.525	12007
927.631	12136
927.737	11977
927.843	11920
927.95	11836
928.056	11878
928.162	11878
928.267	12022
928.373	12464
928.479	12011
928.585	11737
928.69	11855
928.796	11874
928.901	11843
929.007	11649
929.112	11790
929.218	11665
929.323	11718
929.428	11638
929.533	11718
929.638	11589
929.743	11589
929.848	11688
929.953	11661
930.058	11448
930.163	11326
930.267	11360
930.372	11417
930.477	11258
930.581	11520
930.685	11436
930.79	11178
930.894	11155
930.998	11246
931.103	11360
931.207	10908
931.311	10946
931.415	10752
931.519	10618
931.623	10668
