Data from test_V78500241_1762.txt Node
Date: Fri Mar 25 15:22:07 CST 2022
User: usil
Spectrometer: V785-0024
Trigger mode: 0
Integration Time (sec): 4.000000E-1
Scans to average: 1
Nonlinearity correction enabled: false
Boxcar width: 0
Storing dark spectrum: false
XAxis mode: Wavelengths
Number of Pixels in Spectrum: 1024
>>>>>Begin Spectral Data<<<<<
801.071	27880
801.214	27987
801.356	27701
801.499	27686
801.641	27534
801.783	27393
801.926	27511
802.068	27496
802.211	27313
802.353	27439
802.496	27169
802.638	27100
802.78	27180
802.923	27081
803.065	27009
803.208	27039
803.35	27142
803.492	27359
803.635	27332
803.777	27199
803.919	27447
804.061	27622
804.204	27287
804.346	27439
804.488	27348
804.63	27348
804.773	27386
804.915	27245
805.057	27416
805.199	27310
805.341	27370
805.483	27420
805.626	27374
805.768	27351
805.91	27374
806.052	27500
806.194	27405
806.336	27648
806.478	27504
806.62	27397
806.762	27599
806.904	27732
807.046	27907
807.188	27800
807.33	27812
807.472	27911
807.614	27884
807.756	27759
807.898	27781
808.04	27812
808.182	27732
808.324	27743
808.465	27876
808.607	27819
808.749	28120
808.891	28200
809.033	28253
809.174	28124
809.316	28090
809.458	28204
809.6	28059
809.741	28280
809.883	28299
810.025	28516
810.166	28417
810.308	28470
810.45	28291
810.591	28261
810.733	28074
810.875	28021
811.016	27911
811.158	27991
811.299	28059
811.441	28253
811.582	28306
811.724	28112
811.865	28021
812.007	28006
812.148	28124
812.29	28078
812.431	28329
812.573	28390
812.714	28459
812.855	28691
812.997	28736
813.138	28896
813.279	28626
813.421	28653
813.562	28561
813.703	28466
813.845	28394
813.986	28025
814.127	27880
814.268	27869
814.41	27804
814.551	27800
814.692	27842
814.833	27819
814.974	27835
815.115	27808
815.256	27686
815.397	27675
815.539	27660
815.68	27572
815.821	27462
815.962	27568
816.103	27603
816.244	27412
816.385	27405
816.526	27370
816.666	27131
816.807	27070
816.948	27009
817.089	27123
817.23	27058
817.371	27077
817.512	27093
817.653	27074
817.793	26944
817.934	27135
818.075	27116
818.216	27131
818.356	26914
818.497	26918
818.638	26819
818.778	26910
818.919	26830
819.06	26895
819.2	26925
819.341	26963
819.481	26998
819.622	27233
819.762	27511
819.903	27431
820.043	27192
820.184	27173
820.324	27291
820.465	27344
820.605	27268
820.746	27173
820.886	27085
821.026	27081
821.167	27081
821.307	27146
821.447	27100
821.588	27051
821.728	26880
821.868	26765
822.008	26659
822.149	26598
822.289	26499
822.429	26278
822.569	26214
822.709	26317
822.849	26077
822.99	26043
823.13	26149
823.27	26008
823.41	25849
823.55	25761
823.69	25898
823.83	25970
823.97	25879
824.11	25658
824.25	25731
824.389	25784
824.529	25784
824.669	25681
824.809	25883
824.949	25864
825.089	25761
825.228	25734
825.368	25609
825.508	25635
825.648	25582
825.787	25666
825.927	25655
826.067	25495
826.206	25655
826.346	25605
826.485	25639
826.625	25609
826.765	25635
826.904	25696
827.044	25537
827.183	25476
827.323	25312
827.462	25362
827.601	25247
827.741	25308
827.88	25381
828.02	25240
828.159	25240
828.298	25285
828.437	25388
828.577	25282
828.716	25381
828.855	25297
828.994	25072
829.134	24985
829.273	24989
829.412	25065
829.551	24985
829.69	25069
829.829	25088
829.968	25069
830.107	25190
830.246	24985
830.385	25042
830.524	24886
830.663	24779
830.802	24829
830.941	24665
831.08	24639
831.219	24734
831.357	24696
831.496	24867
831.635	24673
831.774	24631
831.913	24570
832.051	24437
832.19	24429
832.329	24422
832.467	24353
832.606	24186
832.744	24281
832.883	24171
833.022	24330
833.16	24277
833.299	24365
833.437	24342
833.576	24380
833.714	24213
833.852	24505
833.991	24452
834.129	24376
834.267	24509
834.406	24353
834.544	24483
834.682	24311
834.821	24342
834.959	24479
835.097	24281
835.235	24376
835.373	24464
835.511	24319
835.65	24247
835.788	24216
835.926	24026
836.064	24064
836.202	24121
836.34	24247
836.478	24319
836.615	24083
836.753	24262
836.891	24399
837.029	24213
837.167	24186
837.305	24144
837.443	24167
837.58	24079
837.718	24125
837.856	24091
837.993	23912
838.131	23908
838.269	23950
838.406	23756
838.544	23950
838.681	23798
838.819	23619
838.956	23573
839.094	23554
839.231	23611
839.369	23722
839.506	23908
839.643	23756
839.781	23482
839.918	23452
840.055	23554
840.193	23570
840.33	23337
840.467	23459
840.604	23417
840.742	23726
840.879	23250
841.016	23356
841.153	23254
841.29	23604
841.427	23463
841.564	23425
841.701	23341
841.838	23539
841.975	23265
842.112	23231
842.249	23372
842.385	23208
842.522	23478
842.659	23231
842.796	23269
842.933	23208
843.069	23178
843.206	23132
843.343	23242
843.479	23178
843.616	23197
843.752	23033
843.889	23094
844.025	23269
844.162	22919
844.298	23064
844.435	23010
844.571	22968
844.708	23071
844.844	23140
844.98	23102
845.117	22987
845.253	22850
845.389	23025
845.525	22930
845.661	22820
845.798	22706
845.934	22767
846.07	22702
846.206	22752
846.342	22733
846.478	22675
846.614	22550
846.75	22436
846.886	22417
847.022	22504
847.158	22428
847.294	22531
847.429	22466
847.565	22398
847.701	22607
847.837	22196
847.972	22059
848.108	22173
848.244	22154
848.379	22059
848.515	22029
848.65	22082
848.786	21949
848.921	22006
849.057	22021
849.192	22169
849.328	22128
849.463	22070
849.598	21968
849.734	21945
849.869	21922
850.004	21816
850.14	21797
850.275	21838
850.41	21781
850.545	21778
850.68	21762
850.815	21827
850.95	21743
851.085	22013
851.22	21998
851.355	21854
851.49	21679
851.625	21759
851.76	21720
851.895	21682
852.03	21701
852.165	21728
852.299	21766
852.434	21884
852.569	21930
852.703	21880
852.838	21686
852.973	21895
853.107	21918
853.242	21793
853.376	21625
853.511	21431
853.645	21545
853.78	21774
853.914	21770
854.048	21671
854.183	21614
854.317	21675
854.451	21888
854.585	21610
854.72	21641
854.854	21610
854.988	21572
855.122	21576
855.256	21538
855.39	21622
855.524	21736
855.658	21679
855.792	21610
855.926	21599
856.06	21606
856.194	21698
856.327	21549
856.461	21610
856.595	21469
856.729	21591
856.862	21739
856.996	21675
857.13	21671
857.263	21759
857.397	21667
857.53	21534
857.664	21785
857.797	21583
857.931	21618
858.064	21549
858.197	21656
858.331	21732
858.464	21652
858.597	21458
858.731	21656
858.864	21641
858.997	21534
859.13	21739
859.263	21553
859.396	21671
859.529	21435
859.662	21557
859.795	21641
859.928	21629
860.061	21854
860.194	21915
860.327	21614
860.46	21717
860.592	21751
860.725	21819
860.858	21713
860.99	21633
861.123	21443
861.256	21542
861.388	21728
861.521	22257
861.653	21439
861.786	21340
861.918	21336
862.05	21500
862.183	21519
862.315	21564
862.447	21622
862.58	21492
862.712	21256
862.844	21291
862.976	21313
863.108	21363
863.24	21663
863.372	21218
863.504	21382
863.636	21287
863.768	21386
863.9	21184
864.032	21298
864.164	21283
864.296	21443
864.428	21370
864.559	21401
864.691	21439
864.823	21249
864.954	21374
865.086	21249
865.217	21306
865.349	21165
865.48	21051
865.612	21237
865.743	21416
865.875	21173
866.006	21138
866.137	21165
866.269	21127
866.4	21268
866.531	21252
866.662	21058
866.793	21131
866.924	20982
867.055	21157
867.186	21104
867.317	21089
867.448	21116
867.579	21085
867.71	21066
867.841	21013
867.972	21199
868.103	21138
868.233	21089
868.364	21074
868.495	21226
868.625	21351
868.756	21397
868.886	21306
869.017	21397
869.147	21378
869.278	21526
869.408	21454
869.539	21367
869.669	21389
869.799	21302
869.929	21553
870.06	21294
870.19	21644
870.32	21663
870.45	21724
870.58	21732
870.71	21869
870.84	21804
870.97	21812
871.1	21732
871.23	22002
871.36	21930
871.489	21899
871.619	21903
871.749	21941
871.879	22055
872.008	22051
872.138	21949
872.267	22017
872.397	21918
872.526	21778
872.656	21778
872.785	21907
872.915	21987
873.044	22044
873.173	21998
873.303	22029
873.432	22109
873.561	22143
873.69	22040
873.819	21880
873.948	21972
874.077	22017
874.206	21884
874.335	21968
874.464	22044
874.593	22284
874.722	22185
874.851	22287
874.979	22352
875.108	22238
875.237	22128
875.365	22196
875.494	22192
875.623	22291
875.751	22139
875.88	22219
876.008	22284
876.136	22413
876.265	22588
876.393	22592
876.521	22561
876.65	22691
876.778	22622
876.906	22645
877.034	22653
877.162	22516
877.29	22402
877.418	22569
877.546	22516
877.674	22432
877.802	22516
877.93	22462
878.058	22527
878.185	22303
878.313	22535
878.441	22573
878.568	22432
878.696	22462
878.824	22580
878.951	22615
879.079	22691
879.206	22934
879.333	22717
879.461	22599
879.588	22649
879.715	22687
879.842	22793
879.97	22573
880.097	22333
880.224	22363
880.351	22428
880.478	22390
880.605	22268
880.732	22371
880.859	22565
880.986	22325
881.112	22226
881.239	22154
881.366	22181
881.493	21956
881.619	21941
881.746	22032
881.872	21876
881.999	21964
882.125	21892
882.252	21991
882.378	21842
882.505	21899
882.631	21793
882.757	21599
882.883	21823
883.01	21705
883.136	21591
883.262	21462
883.388	21545
883.514	21663
883.64	21694
883.766	21603
883.892	21420
884.018	21507
884.143	21553
884.269	21553
884.395	21363
884.52	21348
884.646	21386
884.772	21161
884.897	21123
885.023	21359
885.148	21526
885.274	21431
885.399	21313
885.524	21351
885.65	21252
885.775	21374
885.9	21351
886.025	21420
886.15	21447
886.275	21157
886.4	21138
886.525	21249
886.65	21203
886.775	21192
886.9	21447
887.025	21549
887.149	21279
887.274	21165
887.399	21055
887.523	21055
887.648	20948
887.773	20960
887.897	21093
888.021	21036
888.146	20948
888.27	21131
888.395	21100
888.519	21070
888.643	21077
888.767	20963
888.891	20979
889.015	20861
889.139	20941
889.263	20853
889.387	20944
889.511	20998
889.635	20933
889.759	20823
889.883	20880
890.006	20925
890.13	21036
890.254	20823
890.377	20708
890.501	20537
890.624	20480
890.748	20621
890.871	20606
890.995	20454
891.118	20469
891.241	20457
891.364	20377
891.488	20670
891.611	20377
891.734	20488
891.857	20450
891.98	20457
892.103	20522
892.226	20366
892.349	20278
892.471	20221
892.594	20218
892.717	20343
892.839	20320
892.962	20366
893.085	20305
893.207	20301
893.33	20195
893.452	20206
893.575	20450
893.697	20206
893.819	20313
893.941	20431
894.064	20514
894.186	20309
894.308	20252
894.43	20389
894.552	20366
894.674	20412
894.796	20240
894.918	20294
895.04	20233
895.161	20309
895.283	20400
895.405	20138
895.526	20191
895.648	20317
895.769	20267
895.891	20355
896.012	20347
896.134	20240
896.255	20400
896.376	20263
896.498	20244
896.619	20381
896.74	20248
896.861	20400
896.982	20594
897.103	20743
897.224	20530
897.345	20473
897.466	20404
897.587	20530
897.708	20594
897.828	20545
897.949	20400
898.07	20419
898.19	20396
898.311	20659
898.431	20469
898.552	20526
898.672	20560
898.792	20598
898.913	20522
899.033	20495
899.153	20309
899.273	20290
899.393	20271
899.513	20225
899.633	20206
899.753	20305
899.873	20248
899.993	20191
900.113	20183
900.232	20153
900.352	20176
900.472	20149
900.591	19967
900.711	19970
900.83	19967
900.95	20157
901.069	20187
901.189	19986
901.308	19712
901.427	19559
901.546	19727
901.665	19613
901.784	19491
901.904	19518
902.023	19335
902.141	19152
902.26	19156
902.379	19213
902.498	19156
902.617	19050
902.735	19103
902.854	19053
902.973	18939
903.091	18852
903.21	18711
903.328	18791
903.446	18730
903.565	18650
903.683	18578
903.801	18418
903.919	18525
904.038	18506
904.156	18319
904.274	18582
904.392	18452
904.51	18330
904.627	18334
904.745	18315
904.863	18395
904.981	18129
905.098	17961
905.216	17961
905.334	18034
905.451	18079
905.569	18087
905.686	18049
905.803	17939
905.921	17767
906.038	18007
906.155	17832
906.272	17691
906.389	17672
906.506	17661
906.623	17516
906.74	17471
906.857	17417
906.974	17482
907.091	17562
907.208	17741
907.324	17608
907.441	17433
907.557	17200
907.674	17151
907.79	17261
907.907	17337
908.023	17277
908.139	17318
908.256	17227
908.372	17170
908.488	17105
908.604	16987
908.72	16972
908.836	17060
908.952	16995
909.068	17143
909.184	17098
909.3	16957
909.415	17018
909.531	16968
909.647	16744
909.762	16752
909.878	16596
909.993	16725
910.108	16630
910.224	16710
910.339	16596
910.454	16538
910.57	16508
910.685	16398
910.8	16717
910.915	16702
911.03	16466
911.145	16386
911.259	16284
911.374	16299
911.489	16204
911.604	16078
911.718	15953
911.833	16116
911.947	15880
912.062	15819
912.176	16002
912.291	16013
912.405	15968
912.519	16139
912.633	16124
912.748	15991
912.862	15953
912.976	15835
913.09	15751
913.204	15808
913.318	15751
913.431	15907
913.545	15949
913.659	15930
913.772	15838
913.886	15724
914	15561
914.113	15690
914.226	15717
914.34	15622
914.453	15603
914.566	15656
914.68	15515
914.793	15492
914.906	15294
915.019	15272
915.132	15275
915.245	15157
915.358	15283
915.47	15188
915.583	15195
915.696	15245
915.809	15408
915.921	15367
916.034	15188
916.146	15131
916.259	15199
916.371	15241
916.483	15237
916.595	15005
916.708	15055
916.82	15188
916.932	15058
917.044	14937
917.156	15032
917.268	14853
917.38	14906
917.491	14910
917.603	14902
917.715	14914
917.826	14956
917.938	14891
918.049	14758
918.161	14834
918.272	14975
918.384	14956
918.495	14819
918.606	14701
918.717	14629
918.828	14743
918.939	14651
919.05	14492
919.161	14598
919.272	14560
919.383	14522
919.494	14701
919.604	14746
919.715	14530
919.826	14617
919.936	14571
920.047	14651
920.157	14598
920.267	14838
920.378	14644
920.488	14537
920.598	14754
920.708	14861
920.818	14785
920.928	14777
921.038	14921
921.148	14773
921.258	14427
921.368	14427
921.477	14377
921.587	14355
921.697	14183
921.806	14404
921.916	14176
922.025	14031
922.134	14088
922.244	13970
922.353	14020
922.462	13849
922.571	13772
922.68	13681
922.789	13628
922.898	13620
923.007	13552
923.116	13658
923.224	13609
923.333	13537
923.442	13487
923.55	13464
923.659	13499
923.767	13537
923.876	13407
923.984	13468
924.092	13285
924.201	13441
924.309	13403
924.417	13476
924.525	13251
924.633	13304
924.741	14031
924.849	13061
924.956	13202
925.064	13118
925.172	13023
925.279	13080
925.387	13065
925.494	13019
925.602	13149
925.709	13110
925.816	12890
925.924	13034
926.031	13023
926.138	13015
926.245	12993
926.352	12928
926.459	12973
926.566	13008
926.673	12852
926.779	12772
926.886	12684
926.993	12601
927.099	12642
927.206	12578
927.312	12517
927.419	12662
927.525	12547
927.631	12623
927.737	12521
927.843	12460
927.95	12300
928.056	12388
928.162	12395
928.267	12460
928.373	13088
928.479	12521
928.585	12254
928.69	12342
928.796	12372
928.901	12232
929.007	12182
929.112	12167
929.218	12266
929.323	12053
929.428	12102
929.533	12239
929.638	12110
929.743	12091
929.848	12060
929.953	12220
930.058	11942
930.163	11775
930.267	11809
930.372	11889
930.477	11707
930.581	11950
930.685	11847
930.79	11703
930.894	11729
930.998	11710
931.103	11771
931.207	11429
931.311	11414
931.415	11277
931.519	11090
931.623	11067
