Data from test_V78500241_310.txt Node
Date: Fri Mar 25 15:12:01 CST 2022
User: usil
Spectrometer: V785-0024
Trigger mode: 0
Integration Time (sec): 4.000000E-1
Scans to average: 1
Nonlinearity correction enabled: false
Boxcar width: 0
Storing dark spectrum: false
XAxis mode: Wavelengths
Number of Pixels in Spectrum: 1024
>>>>>Begin Spectral Data<<<<<
801.071	27686
801.214	27496
801.356	27294
801.499	27256
801.641	27150
801.783	27089
801.926	27176
802.068	27116
802.211	27096
802.353	27001
802.496	26804
802.638	26804
802.78	26796
802.923	26705
803.065	26693
803.208	26648
803.35	26800
803.492	26891
803.635	26982
803.777	26899
803.919	26933
804.061	27279
804.204	27062
804.346	26849
804.488	26800
804.63	26830
804.773	26739
804.915	26914
805.057	27062
805.199	26940
805.341	27112
805.483	27020
805.626	27028
805.768	26826
805.91	26883
806.052	27058
806.194	27036
806.336	27192
806.478	27017
806.62	26944
806.762	27157
806.904	27199
807.046	27408
807.188	27420
807.33	27473
807.472	27340
807.614	27332
807.756	27378
807.898	27214
808.04	27070
808.182	27184
808.324	27222
808.465	27279
808.607	27264
808.749	27477
808.891	27648
809.033	27610
809.174	27679
809.316	27576
809.458	27663
809.6	27561
809.741	27705
809.883	27599
810.025	27766
810.166	27812
810.308	27686
810.45	27804
810.591	27682
810.733	27614
810.875	27519
811.016	27378
811.158	27447
811.299	27557
811.441	27557
811.582	27652
811.724	27370
811.865	27519
812.007	27587
812.148	27580
812.29	27625
812.431	27785
812.573	27842
812.714	27831
812.855	28048
812.997	28192
813.138	28314
813.279	28181
813.421	28090
813.562	27998
813.703	27857
813.845	27766
813.986	27492
814.127	27386
814.268	27211
814.41	27310
814.551	27279
814.692	27233
814.833	27180
814.974	27077
815.115	27112
815.256	27100
815.397	27176
815.539	26990
815.68	26940
815.821	26986
815.962	26929
816.103	27058
816.244	26845
816.385	26826
816.526	26697
816.666	26549
816.807	26438
816.948	26469
817.089	26602
817.23	26476
817.371	26446
817.512	26465
817.653	26442
817.793	26229
817.934	26446
818.075	26465
818.216	26374
818.356	26294
818.497	26240
818.638	26084
818.778	26210
818.919	26035
819.06	26199
819.2	26180
819.341	26233
819.481	26313
819.622	26396
819.762	26648
819.903	26625
820.043	26648
820.184	26530
820.324	26541
820.465	26522
820.605	26499
820.746	26389
820.886	26267
821.026	26408
821.167	26423
821.307	26549
821.447	26294
821.588	26282
821.728	26240
821.868	25970
822.008	25833
822.149	25830
822.289	25818
822.429	25506
822.569	25407
822.709	25514
822.849	25358
822.99	25346
823.13	25289
823.27	25274
823.41	25118
823.55	25095
823.69	25103
823.83	25057
823.97	25004
824.11	25046
824.25	24825
824.389	24954
824.529	25107
824.669	24901
824.809	25084
824.949	25084
825.089	24913
825.228	25031
825.368	24631
825.508	24886
825.648	24810
825.787	24837
825.927	24734
826.067	24817
826.206	24669
826.346	24916
826.485	24821
826.625	24646
826.765	24882
826.904	24844
827.044	24627
827.183	24559
827.323	24445
827.462	24452
827.601	24494
827.741	24536
827.88	24547
828.02	24429
828.159	24566
828.298	24509
828.437	24475
828.577	24391
828.716	24646
828.855	24445
828.994	24220
829.134	24182
829.273	24133
829.412	24102
829.551	24133
829.69	24083
829.829	24235
829.968	24296
830.107	24247
830.246	24098
830.385	24152
830.524	24022
830.663	23999
830.802	23950
830.941	23756
831.08	23729
831.219	23802
831.357	23828
831.496	23912
831.635	23832
831.774	23615
831.913	23592
832.051	23592
832.19	23433
832.329	23592
832.467	23478
832.606	23421
832.744	23459
832.883	23497
833.022	23402
833.16	23433
833.299	23566
833.437	23455
833.576	23436
833.714	23471
833.852	23478
833.991	23543
834.129	23634
834.267	23558
834.406	23509
834.544	23497
834.682	23372
834.821	23455
834.959	23707
835.097	23497
835.235	23531
835.373	23520
835.511	23482
835.65	23334
835.788	23440
835.926	23197
836.064	23056
836.202	23246
836.34	23337
836.478	23509
836.615	23246
836.753	23326
836.891	23493
837.029	23208
837.167	23299
837.305	23277
837.443	23326
837.58	22999
837.718	23284
837.856	23083
837.993	23147
838.131	23162
838.269	22991
838.406	23197
838.544	23075
838.681	22706
838.819	22908
838.956	22702
839.094	22622
839.231	22634
839.369	22854
839.506	23075
839.643	22873
839.781	22687
839.918	22561
840.055	22706
840.193	22596
840.33	22497
840.467	22615
840.604	22607
840.742	22744
840.879	22405
841.016	22417
841.153	22535
841.29	22782
841.427	22615
841.564	22550
841.701	22508
841.838	22447
841.975	22493
842.112	22489
842.249	22310
842.385	22386
842.522	22531
842.659	22303
842.796	22310
842.933	22234
843.069	22291
843.206	22257
843.343	22424
843.479	22329
843.616	22333
843.752	22116
843.889	22017
844.025	22310
844.162	21937
844.298	22226
844.435	22082
844.571	22059
844.708	22086
844.844	22253
844.98	22120
845.117	22105
845.253	21918
845.389	21975
845.525	21918
845.661	21850
845.798	21797
845.934	21797
846.07	21816
846.206	21751
846.342	21998
846.478	21732
846.614	21587
846.75	21405
846.886	21538
847.022	21523
847.158	21477
847.294	21606
847.429	21591
847.565	21485
847.701	21701
847.837	21256
847.972	21275
848.108	21310
848.244	21237
848.379	21218
848.515	21165
848.65	21161
848.786	21036
848.921	21089
849.057	21195
849.192	21237
849.328	21100
849.463	21173
849.598	21112
849.734	21047
849.869	20906
850.004	20895
850.14	20918
850.275	20895
850.41	20895
850.545	20807
850.68	20933
850.815	20918
850.95	20819
851.085	21085
851.22	21017
851.355	20902
851.49	20845
851.625	20800
851.76	20724
851.895	20727
852.03	20796
852.165	20868
852.299	20944
852.434	20861
852.569	20815
852.703	20792
852.838	21009
852.973	21039
853.107	20971
853.242	20788
853.376	20735
853.511	20629
853.645	20598
853.78	20811
853.914	20720
854.048	20682
854.183	20678
854.317	20701
854.451	20823
854.585	20613
854.72	20705
854.854	20743
854.988	20564
855.122	20670
855.256	20549
855.39	20564
855.524	20632
855.658	20705
855.792	20667
855.926	20788
856.06	20667
856.194	20735
856.327	20678
856.461	20606
856.595	20697
856.729	20648
856.862	20804
856.996	20762
857.13	20830
857.263	20739
857.397	20632
857.53	20727
857.664	20762
857.797	20670
857.931	20735
858.064	20765
858.197	20811
858.331	20705
858.464	20602
858.597	20549
858.731	20777
858.864	20590
858.997	20545
859.13	20606
859.263	20621
859.396	20830
859.529	20598
859.662	20609
859.795	20583
859.928	20636
860.061	20739
860.194	20864
860.327	20678
860.46	20541
860.592	20804
860.725	20785
860.858	20773
860.99	20564
861.123	20663
861.256	20480
861.388	20708
861.521	21298
861.653	20606
861.786	20492
861.918	20526
862.05	20454
862.183	20587
862.315	20598
862.447	20667
862.58	20526
862.712	20309
862.844	20351
862.976	20358
863.108	20492
863.24	20887
863.372	20290
863.504	20252
863.636	20358
863.768	20313
863.9	20404
864.032	20328
864.164	20221
864.296	20370
864.428	20476
864.559	20313
864.691	20400
864.823	20408
864.954	20362
865.086	20229
865.217	20191
865.349	20210
865.48	20366
865.612	20221
865.743	20484
865.875	20275
866.006	20187
866.137	20248
866.269	20317
866.4	20206
866.531	20168
866.662	20248
866.793	20206
866.924	20210
867.055	20233
867.186	20218
867.317	20100
867.448	20039
867.579	20161
867.71	20092
867.841	20138
867.972	20195
868.103	20130
868.233	20191
868.364	20153
868.495	20309
868.625	20412
868.756	20530
868.886	20282
869.017	20393
869.147	20686
869.278	20473
869.408	20400
869.539	20473
869.669	20522
869.799	20408
869.929	20484
870.06	20545
870.19	20712
870.32	20750
870.45	20819
870.58	20754
870.71	20918
870.84	20975
870.97	20887
871.1	20880
871.23	20941
871.36	21024
871.489	20849
871.619	20948
871.749	20998
871.879	20998
872.008	21062
872.138	21020
872.267	21096
872.397	20887
872.526	20868
872.656	20910
872.785	20857
872.915	21100
873.044	21119
873.173	21062
873.303	21146
873.432	21062
873.561	21161
873.69	21138
873.819	21043
873.948	21207
874.077	21013
874.206	20994
874.335	20956
874.464	21169
874.593	21291
874.722	21199
874.851	21252
874.979	21310
875.108	21260
875.237	21233
875.365	21279
875.494	21222
875.623	21389
875.751	21511
875.88	21272
876.008	21530
876.136	21477
876.265	21705
876.393	21842
876.521	21797
876.65	21701
876.778	21660
876.906	21561
877.034	21568
877.162	21614
877.29	21523
877.418	21675
877.546	21747
877.674	21667
877.802	21633
877.93	21679
878.058	21523
878.185	21412
878.313	21679
878.441	21656
878.568	21462
878.696	21622
878.824	21717
878.951	21698
879.079	21945
879.206	21964
879.333	21797
879.461	21720
879.588	21652
879.715	21926
879.842	21903
879.97	21770
880.097	21450
880.224	21485
880.351	21511
880.478	21530
880.605	21310
880.732	21492
880.859	21766
880.986	21507
881.112	21462
881.239	21367
881.366	21241
881.493	21119
881.619	21093
881.746	21070
881.872	21100
881.999	21043
882.125	21070
882.252	21081
882.378	21093
882.505	21127
882.631	20967
882.757	20800
882.883	20937
883.01	20826
883.136	20762
883.262	20731
883.388	20613
883.514	20823
883.64	20720
883.766	20743
883.892	20575
884.018	20583
884.143	20724
884.269	20785
884.395	20579
884.52	20385
884.646	20408
884.772	20317
884.897	20278
885.023	20480
885.148	20526
885.274	20537
885.399	20503
885.524	20396
885.65	20442
885.775	20393
885.9	20503
886.025	20522
886.15	20571
886.275	20393
886.4	20336
886.525	20438
886.65	20355
886.775	20419
886.9	20545
887.025	20549
887.149	20461
887.274	20271
887.399	20202
887.523	20210
887.648	20122
887.773	20046
887.897	20404
888.021	20282
888.146	20107
888.27	20218
888.395	20271
888.519	20191
888.643	20187
888.767	20202
888.891	20107
889.015	19940
889.139	19959
889.263	19917
889.387	20073
889.511	20142
889.635	20126
889.759	19944
889.883	19940
890.006	20050
890.13	20096
890.254	19833
890.377	19879
890.501	19772
890.624	19670
890.748	19780
890.871	19681
890.995	19559
891.118	19445
891.241	19651
891.364	19537
891.488	19628
891.611	19616
891.734	19483
891.857	19696
891.98	19696
892.103	19624
892.226	19613
892.349	19510
892.471	19362
892.594	19480
892.717	19457
892.839	19468
892.962	19460
893.085	19559
893.207	19510
893.33	19320
893.452	19480
893.575	19540
893.697	19499
893.819	19719
893.941	19628
894.064	19609
894.186	19384
894.308	19362
894.43	19499
894.552	19609
894.674	19567
894.796	19369
894.918	19487
895.04	19381
895.161	19552
895.283	19491
895.405	19480
895.526	19426
895.648	19419
895.769	19460
895.891	19559
896.012	19689
896.134	19567
896.255	19502
896.376	19419
896.498	19563
896.619	19556
896.74	19658
896.861	19662
896.982	19868
897.103	19868
897.224	19826
897.345	19670
897.466	19662
897.587	19685
897.708	19974
897.828	19814
897.949	19662
898.07	19670
898.19	19590
898.311	19811
898.431	19704
898.552	19814
898.672	19837
898.792	19887
898.913	19765
899.033	19620
899.153	19472
899.273	19502
899.393	19430
899.513	19540
899.633	19483
899.753	19586
899.873	19426
899.993	19358
900.113	19350
900.232	19422
900.352	19362
900.472	19263
900.591	19213
900.711	19293
900.83	19240
900.95	19304
901.069	19381
901.189	19156
901.308	18890
901.427	18791
901.546	18791
901.665	18943
901.784	18806
901.904	18768
902.023	18502
902.141	18547
902.26	18311
902.379	18304
902.498	18353
902.617	18308
902.735	18407
902.854	18334
902.973	18190
903.091	18079
903.21	18076
903.328	17996
903.446	17984
903.565	17802
903.683	17794
903.801	17684
903.919	17794
904.038	17733
904.156	17638
904.274	17604
904.392	17657
904.51	17600
904.627	17512
904.745	17687
904.863	17638
904.981	17368
905.098	17239
905.216	17181
905.334	17345
905.451	17356
905.569	17193
905.686	17269
905.803	17200
905.921	17208
906.038	17193
906.155	17109
906.272	17083
906.389	16999
906.506	16892
906.623	16771
906.74	16904
906.857	16698
906.974	16736
907.091	16816
907.208	16946
907.324	16850
907.441	16740
907.557	16569
907.674	16523
907.79	16485
907.907	16538
908.023	16531
908.139	16508
908.256	16440
908.372	16466
908.488	16390
908.604	16318
908.72	16169
908.836	16371
908.952	16246
909.068	16223
909.184	16356
909.3	16238
909.415	16291
909.531	16139
909.647	16036
909.762	15915
909.878	15895
909.993	16002
910.108	15979
910.224	15941
910.339	15934
910.454	15842
910.57	15694
910.685	15667
910.8	16097
910.915	15865
911.03	15724
911.145	15564
911.259	15500
911.374	15576
911.489	15454
911.604	15485
911.718	15370
911.833	15302
911.947	15218
912.062	15077
912.176	15279
912.291	15298
912.405	15256
912.519	15500
912.633	15515
912.748	15397
912.862	15279
912.976	15123
913.09	15055
913.204	15119
913.318	15142
913.431	15218
913.545	15154
913.659	15142
913.772	15032
913.886	15020
914	14857
914.113	15036
914.226	15039
914.34	14944
914.453	14861
914.566	14982
914.68	14788
914.793	14823
914.906	14564
915.019	14594
915.132	14522
915.245	14556
915.358	14629
915.47	14533
915.583	14606
915.696	14636
915.809	14705
915.921	14735
916.034	14537
916.146	14473
916.259	14499
916.371	14530
916.483	14556
916.595	14469
916.708	14469
916.82	14385
916.932	14385
917.044	14412
917.156	14339
917.268	14248
917.38	14298
917.491	14183
917.603	14271
917.715	14294
917.826	14324
917.938	14187
918.049	14103
918.161	14237
918.272	14389
918.384	14320
918.495	14164
918.606	13986
918.717	13978
918.828	13993
918.939	14092
919.05	13940
919.161	13940
919.272	13784
919.383	13841
919.494	14020
919.604	14100
919.715	13982
919.826	13947
919.936	13913
920.047	13982
920.157	13803
920.267	14138
920.378	14065
920.488	13837
920.598	14157
920.708	14233
920.818	14069
920.928	14077
921.038	14263
921.148	14237
921.258	13856
921.368	13780
921.477	13799
921.587	13765
921.697	13601
921.806	13715
921.916	13563
922.025	13411
922.134	13335
922.244	13297
922.353	13392
922.462	13285
922.571	13152
922.68	13137
922.789	12989
922.898	13019
923.007	12935
923.116	12973
923.224	12920
923.333	12981
923.442	12859
923.55	12859
923.659	12802
923.767	12897
923.876	12757
923.984	12856
924.092	12760
924.201	12779
924.309	12696
924.417	12753
924.525	12707
924.633	12684
924.741	13445
924.849	12403
924.956	12730
925.064	12563
925.172	12391
925.279	12445
925.387	12456
925.494	12551
925.602	12570
925.709	12483
925.816	12357
925.924	12418
926.031	12471
926.138	12372
926.245	12407
926.352	12346
926.459	12361
926.566	12422
926.673	12350
926.779	12300
926.886	12266
926.993	12034
927.099	12083
927.206	12022
927.312	11961
927.419	12041
927.525	11969
927.631	12053
927.737	11950
927.843	11931
927.95	11741
928.056	11931
928.162	11798
928.267	11878
928.373	12582
928.479	11920
928.585	11745
928.69	11741
928.796	11802
928.901	11627
929.007	11509
929.112	11783
929.218	11710
929.323	11646
929.428	11623
929.533	11653
929.638	11486
929.743	11455
929.848	11634
929.953	11547
930.058	11433
930.163	11318
930.267	11277
930.372	11429
930.477	11235
930.581	11501
930.685	11292
930.79	11143
930.894	11208
930.998	11166
931.103	11299
931.207	11037
931.311	10908
931.415	10812
931.519	10603
931.623	10512
