Data from test_V78500241_1475.txt Node
Date: Fri Mar 25 15:20:07 CST 2022
User: usil
Spectrometer: V785-0024
Trigger mode: 0
Integration Time (sec): 4.000000E-1
Scans to average: 1
Nonlinearity correction enabled: false
Boxcar width: 0
Storing dark spectrum: false
XAxis mode: Wavelengths
Number of Pixels in Spectrum: 1024
>>>>>Begin Spectral Data<<<<<
801.071	27907
801.214	27857
801.356	27755
801.499	27751
801.641	27534
801.783	27610
801.926	27458
802.068	27694
802.211	27561
802.353	27405
802.496	27256
802.638	27154
802.78	27218
802.923	27093
803.065	27055
803.208	27093
803.35	27123
803.492	27203
803.635	27405
803.777	27119
803.919	27401
804.061	27755
804.204	27336
804.346	27427
804.488	27192
804.63	27393
804.773	27294
804.915	27329
805.057	27488
805.199	27325
805.341	27523
805.483	27667
805.626	27355
805.768	27351
805.91	27420
806.052	27462
806.194	27447
806.336	27641
806.478	27591
806.62	27462
806.762	27713
806.904	27770
807.046	27941
807.188	27823
807.33	27941
807.472	27934
807.614	27907
807.756	27922
807.898	27797
808.04	27736
808.182	27827
808.324	27854
808.465	27819
808.607	27956
808.749	28105
808.891	28150
809.033	28150
809.174	28188
809.316	28219
809.458	28200
809.6	28025
809.741	28230
809.883	28356
810.025	28497
810.166	28401
810.308	28451
810.45	28356
810.591	28310
810.733	28109
810.875	28070
811.016	27968
811.158	28067
811.299	28150
811.441	28230
811.582	28280
811.724	28147
811.865	28196
812.007	28074
812.148	28139
812.29	28139
812.431	28550
812.573	28459
812.714	28424
812.855	28740
812.997	28702
813.138	28866
813.279	28953
813.421	28607
813.562	28611
813.703	28440
813.845	28238
813.986	28086
814.127	27816
814.268	28025
814.41	27899
814.551	27641
814.692	27895
814.833	27793
814.974	27842
815.115	28021
815.256	27728
815.397	27728
815.539	27739
815.68	27587
815.821	27625
815.962	27671
816.103	27694
816.244	27576
816.385	27393
816.526	27393
816.666	27279
816.807	27108
816.948	27268
817.089	27233
817.23	27222
817.371	27169
817.512	27066
817.653	27032
817.793	26929
817.934	27123
818.075	27093
818.216	27199
818.356	27043
818.497	27070
818.638	26876
818.778	26914
818.919	26864
819.06	26982
819.2	26925
819.341	27127
819.481	27230
819.622	27336
819.762	27424
819.903	27340
820.043	27256
820.184	27176
820.324	27214
820.465	27321
820.605	27218
820.746	27226
820.886	27024
821.026	27184
821.167	27127
821.307	27222
821.447	27157
821.588	27036
821.728	27051
821.868	26773
822.008	26590
822.149	26590
822.289	26571
822.429	26332
822.569	26233
822.709	26328
822.849	26088
822.99	26092
823.13	26088
823.27	26027
823.41	25974
823.55	25860
823.69	25917
823.83	25955
823.97	25856
824.11	25738
824.25	25674
824.389	25674
824.529	25841
824.669	25772
824.809	25898
824.949	25837
825.089	25814
825.228	25757
825.368	25689
825.508	25468
825.648	25502
825.787	25704
825.927	25628
826.067	25495
826.206	25510
826.346	25696
826.485	25533
826.625	25571
826.765	25647
826.904	25537
827.044	25282
827.183	25464
827.323	25320
827.462	25396
827.601	25392
827.741	25312
827.88	25209
828.02	25259
828.159	25297
828.298	25381
828.437	25247
828.577	25187
828.716	25464
828.855	25232
828.994	25046
829.134	24913
829.273	24928
829.412	25084
829.551	25019
829.69	24947
829.829	25027
829.968	25137
830.107	25095
830.246	25118
830.385	24962
830.524	24707
830.663	24833
830.802	24791
830.941	24635
831.08	24551
831.219	24677
831.357	24665
831.496	24852
831.635	24631
831.774	24566
831.913	24334
832.051	24365
832.19	24346
832.329	24479
832.467	24258
832.606	24281
832.744	24281
832.883	24384
833.022	24270
833.16	24273
833.299	24372
833.437	24216
833.576	24327
833.714	24296
833.852	24460
833.991	24330
834.129	24429
834.267	24536
834.406	24350
834.544	24391
834.682	24380
834.821	24239
834.959	24517
835.097	24475
835.235	24330
835.373	24270
835.511	24315
835.65	24079
835.788	24174
835.926	24041
836.064	24026
836.202	23908
836.34	24121
836.478	24342
836.615	24125
836.753	24254
836.891	24205
837.029	24045
837.167	24133
837.305	23965
837.443	24018
837.58	23939
837.718	23996
837.856	24038
837.993	23889
838.131	24079
838.269	23904
838.406	23912
838.544	23878
838.681	23589
838.819	23642
838.956	23478
839.094	23421
839.231	23531
839.369	23684
839.506	23733
839.643	23710
839.781	23493
839.918	23570
840.055	23444
840.193	23497
840.33	23478
840.467	23292
840.604	23360
840.742	23547
840.879	23277
841.016	23181
841.153	23242
841.29	23562
841.427	23299
841.564	23402
841.701	23303
841.838	23246
841.975	23303
842.112	23284
842.249	23113
842.385	23109
842.522	23204
842.659	23052
842.796	23113
842.933	23102
843.069	23216
843.206	22965
843.343	23193
843.479	23083
843.616	22961
843.752	22957
843.889	22934
844.025	23090
844.162	22873
844.298	22953
844.435	22900
844.571	22877
844.708	22755
844.844	23025
844.98	23052
845.117	22911
845.253	22873
845.389	22782
845.525	22881
845.661	22809
845.798	22771
845.934	22763
846.07	22668
846.206	22561
846.342	22748
846.478	22584
846.614	22417
846.75	22325
846.886	22390
847.022	22390
847.158	22405
847.294	22379
847.429	22413
847.565	22310
847.701	22527
847.837	22173
847.972	21979
848.108	22188
848.244	22207
848.379	21964
848.515	21884
848.65	21987
848.786	21949
848.921	22006
849.057	22040
849.192	21926
849.328	22013
849.463	21930
849.598	21812
849.734	21781
849.869	21800
850.004	21804
850.14	21709
850.275	21591
850.41	21568
850.545	21660
850.68	21679
850.815	21713
850.95	21682
851.085	21972
851.22	21823
851.355	21732
851.49	21583
851.625	21766
851.76	21682
851.895	21633
852.03	21656
852.165	21603
852.299	21660
852.434	21728
852.569	21743
852.703	21816
852.838	21720
852.973	21907
853.107	21884
853.242	21728
853.376	21363
853.511	21397
853.645	21561
853.78	21583
853.914	21443
854.048	21458
854.183	21496
854.317	21545
854.451	21739
854.585	21595
854.72	21587
854.854	21583
854.988	21466
855.122	21568
855.256	21386
855.39	21439
855.524	21633
855.658	21580
855.792	21583
855.926	21561
856.06	21519
856.194	21587
856.327	21564
856.461	21454
856.595	21420
856.729	21511
856.862	21591
856.996	21637
857.13	21660
857.263	21671
857.397	21553
857.53	21511
857.664	21583
857.797	21587
857.931	21614
858.064	21496
858.197	21564
858.331	21496
858.464	21492
858.597	21344
858.731	21386
858.864	21408
858.997	21466
859.13	21561
859.263	21583
859.396	21549
859.529	21492
859.662	21496
859.795	21534
859.928	21587
860.061	21660
860.194	21648
860.327	21473
860.46	21557
860.592	21595
860.725	21606
860.858	21736
860.99	21523
861.123	21458
861.256	21488
861.388	21492
861.521	22116
861.653	21340
861.786	21245
861.918	21298
862.05	21367
862.183	21576
862.315	21477
862.447	21553
862.58	21450
862.712	21287
862.844	21150
862.976	21317
863.108	21336
863.24	21637
863.372	21154
863.504	21108
863.636	21203
863.768	21256
863.9	21226
864.032	21116
864.164	21150
864.296	21275
864.428	21348
864.559	21180
864.691	21302
864.823	21287
864.954	21245
865.086	21226
865.217	21142
865.349	20990
865.48	21093
865.612	21199
865.743	21344
865.875	21119
866.006	21100
866.137	21275
866.269	21192
866.4	21123
866.531	21100
866.662	20910
866.793	20918
866.924	20948
867.055	21089
867.186	21017
867.317	21020
867.448	21013
867.579	21066
867.71	21017
867.841	21077
867.972	21017
868.103	20994
868.233	21142
868.364	21272
868.495	21188
868.625	21226
868.756	21367
868.886	21291
869.017	21218
869.147	21386
869.278	21428
869.408	21370
869.539	21367
869.669	21401
869.799	21363
869.929	21405
870.06	21507
870.19	21599
870.32	21568
870.45	21591
870.58	21690
870.71	21884
870.84	21694
870.97	21713
871.1	21667
871.23	21793
871.36	21850
871.489	21850
871.619	21873
871.749	21823
871.879	21941
872.008	21987
872.138	21960
872.267	21926
872.397	21694
872.526	21701
872.656	21739
872.785	21652
872.915	21850
873.044	22093
873.173	21934
873.303	22025
873.432	21899
873.561	22059
873.69	21865
873.819	21842
873.948	21953
874.077	22044
874.206	21770
874.335	21918
874.464	22017
874.593	22063
874.722	22002
874.851	22086
874.979	22162
875.108	22139
875.237	21983
875.365	21922
875.494	22177
875.623	22223
875.751	21979
875.88	22109
876.008	22242
876.136	22204
876.265	22390
876.393	22622
876.521	22531
876.65	22493
876.778	22512
876.906	22417
877.034	22443
877.162	22470
877.29	22424
877.418	22470
877.546	22504
877.674	22478
877.802	22417
877.93	22440
878.058	22447
878.185	22352
878.313	22421
878.441	22375
878.568	22333
878.696	22390
878.824	22405
878.951	22546
879.079	22569
879.206	22729
879.333	22508
879.461	22580
879.588	22588
879.715	22740
879.842	22717
879.97	22584
880.097	22284
880.224	22135
880.351	22280
880.478	22360
880.605	22230
880.732	22428
880.859	22497
880.986	22276
881.112	22337
881.239	22181
881.366	22040
881.493	21876
881.619	21934
881.746	21869
881.872	21880
881.999	21941
882.125	21850
882.252	21804
882.378	21854
882.505	21835
882.631	21831
882.757	21606
882.883	21606
883.01	21576
883.136	21431
883.262	21412
883.388	21336
883.514	21485
883.64	21603
883.766	21405
883.892	21389
884.018	21374
884.143	21511
884.269	21698
884.395	21374
884.52	21291
884.646	21211
884.772	21233
884.897	21028
885.023	21142
885.148	21401
885.274	21313
885.399	21374
885.524	21188
885.65	21268
885.775	21245
885.9	21264
886.025	21264
886.15	21203
886.275	21165
886.4	21203
886.525	21127
886.65	21192
886.775	21169
886.9	21268
887.025	21325
887.149	21192
887.274	20975
887.399	20998
887.523	20994
887.648	20971
887.773	20918
887.897	21036
888.021	21062
888.146	20918
888.27	21032
888.395	21096
888.519	20925
888.643	21036
888.767	20937
888.891	20807
889.015	20819
889.139	20796
889.263	20686
889.387	20910
889.511	20868
889.635	20842
889.759	20815
889.883	20682
890.006	20830
890.13	20830
890.254	20678
890.377	20716
890.501	20507
890.624	20568
890.748	20594
890.871	20465
890.995	20404
891.118	20339
891.241	20275
891.364	20415
891.488	20374
891.611	20225
891.734	20381
891.857	20362
891.98	20362
892.103	20290
892.226	20446
892.349	20278
892.471	20172
892.594	20142
892.717	20218
892.839	20259
892.962	20248
893.085	20290
893.207	20134
893.33	20161
893.452	20191
893.575	20244
893.697	20126
893.819	20328
893.941	20522
894.064	20305
894.186	20119
894.308	20195
894.43	20305
894.552	20328
894.674	20218
894.796	20134
894.918	20149
895.04	20210
895.161	20237
895.283	20218
895.405	20134
895.526	20286
895.648	20195
895.769	20202
895.891	20218
896.012	20259
896.134	20290
896.255	20225
896.376	20134
896.498	20362
896.619	20309
896.74	20256
896.861	20282
896.982	20415
897.103	20678
897.224	20499
897.345	20362
897.466	20332
897.587	20393
897.708	20720
897.828	20434
897.949	20393
898.07	20263
898.19	20248
898.311	20503
898.431	20431
898.552	20450
898.672	20492
898.792	20541
898.913	20503
899.033	20263
899.153	20221
899.273	20206
899.393	20172
899.513	20172
899.633	20244
899.753	20199
899.873	20100
899.993	20282
900.113	20122
900.232	20210
900.352	20088
900.472	20024
900.591	19860
900.711	19989
900.83	19932
900.95	20111
901.069	19913
901.189	19826
901.308	19666
901.427	19548
901.546	19616
901.665	19632
901.784	19689
901.904	19510
902.023	19293
902.141	19156
902.26	19103
902.379	19206
902.498	19118
902.617	19004
902.735	19076
902.854	19088
902.973	18909
903.091	18730
903.21	18658
903.328	18688
903.446	18658
903.565	18642
903.683	18559
903.801	18483
903.919	18433
904.038	18513
904.156	18323
904.274	18372
904.392	18262
904.51	18300
904.627	18224
904.745	18311
904.863	18395
904.981	18129
905.098	17901
905.216	17923
905.334	17980
905.451	18068
905.569	17984
905.686	17832
905.803	17969
905.921	17699
906.038	17935
906.155	17859
906.272	17653
906.389	17554
906.506	17558
906.623	17493
906.74	17528
906.857	17311
906.974	17482
907.091	17615
907.208	17608
907.324	17562
907.441	17562
907.557	17250
907.674	17269
907.79	17162
907.907	17140
908.023	17284
908.139	17227
908.256	17102
908.372	17071
908.488	17075
908.604	16942
908.72	16873
908.836	16896
908.952	16946
909.068	16938
909.184	17025
909.3	16923
909.415	17075
909.531	16984
909.647	16649
909.762	16622
909.878	16645
909.993	16622
910.108	16618
910.224	16538
910.339	16611
910.454	16493
910.57	16500
910.685	16295
910.8	16592
910.915	16630
911.03	16424
911.145	16314
911.259	16284
911.374	16185
911.489	16211
911.604	16166
911.718	15854
911.833	16017
911.947	15907
912.062	15812
912.176	15918
912.291	15994
912.405	15956
912.519	16112
912.633	16082
912.748	16025
912.862	15949
912.976	15953
913.09	15648
913.204	15838
913.318	15766
913.431	15869
913.545	15876
913.659	15869
913.772	15713
913.886	15671
914	15580
914.113	15660
914.226	15736
914.34	15652
914.453	15515
914.566	15637
914.68	15435
914.793	15416
914.906	15313
915.019	15241
915.132	15165
915.245	15241
915.358	15233
915.47	15176
915.583	15199
915.696	15074
915.809	15306
915.921	15268
916.034	15112
916.146	15028
916.259	15047
916.371	15180
916.483	15104
916.595	15020
916.708	14998
916.82	15062
916.932	14990
917.044	15051
917.156	14952
917.268	14739
917.38	14929
917.491	14811
917.603	14754
917.715	14872
917.826	14861
917.938	14743
918.049	14777
918.161	14834
918.272	14933
918.384	14948
918.495	14804
918.606	14583
918.717	14571
918.828	14670
918.939	14670
919.05	14412
919.161	14636
919.272	14415
919.383	14469
919.494	14712
919.604	14746
919.715	14545
919.826	14438
919.936	14438
920.047	14636
920.157	14514
920.267	14659
920.378	14602
920.488	14473
920.598	14785
920.708	14906
920.818	14693
920.928	14743
921.038	14769
921.148	14845
921.258	14442
921.368	14415
921.477	14374
921.587	14366
921.697	14195
921.806	14419
921.916	14142
922.025	14016
922.134	13982
922.244	13841
922.353	13932
922.462	13761
922.571	13715
922.68	13605
922.789	13578
922.898	13571
923.007	13559
923.116	13594
923.224	13487
923.333	13506
923.442	13434
923.55	13354
923.659	13415
923.767	13411
923.876	13301
923.984	13400
924.092	13301
924.201	13327
924.309	13308
924.417	13373
924.525	13209
924.633	13183
924.741	14035
924.849	13034
924.956	13270
925.064	13008
925.172	12913
925.279	12886
925.387	13034
925.494	12954
925.602	13126
925.709	13061
925.816	12958
925.924	12943
926.031	13057
926.138	12985
926.245	13072
926.352	12894
926.459	12985
926.566	12993
926.673	12806
926.779	12703
926.886	12802
926.993	12631
927.099	12544
927.206	12479
927.312	12460
927.419	12631
927.525	12513
927.631	12502
927.737	12395
927.843	12445
927.95	12315
928.056	12311
928.162	12452
928.267	12448
928.373	12932
928.479	12506
928.585	12266
928.69	12311
928.796	12361
928.901	12247
929.007	12117
929.112	12133
929.218	12213
929.323	12155
929.428	12076
929.533	12163
929.638	11984
929.743	12015
929.848	12064
929.953	12045
930.058	11935
930.163	11798
930.267	11733
930.372	11961
930.477	11748
930.581	11969
930.685	11840
930.79	11691
930.894	11722
930.998	11707
931.103	11805
931.207	11448
931.311	11364
931.415	11231
931.519	11132
931.623	10995
