Data from test_V78500241_112.txt Node
Date: Fri Mar 25 15:10:38 CST 2022
User: usil
Spectrometer: V785-0024
Trigger mode: 0
Integration Time (sec): 4.000000E-1
Scans to average: 1
Nonlinearity correction enabled: false
Boxcar width: 0
Storing dark spectrum: false
XAxis mode: Wavelengths
Number of Pixels in Spectrum: 1024
>>>>>Begin Spectral Data<<<<<
801.071	28032
801.214	28070
801.356	27880
801.499	27774
801.641	27530
801.783	27644
801.926	27633
802.068	27625
802.211	27481
802.353	27321
802.496	27176
802.638	27195
802.78	27264
802.923	27157
803.065	27093
803.208	27142
803.35	27165
803.492	27108
803.635	27325
803.777	27211
803.919	27192
804.061	27504
804.204	27393
804.346	27195
804.488	27051
804.63	27203
804.773	27066
804.915	27214
805.057	27412
805.199	27081
805.341	27363
805.483	27321
805.626	27344
805.768	27192
805.91	27161
806.052	27291
806.194	27226
806.336	27526
806.478	27469
806.62	27188
806.762	27450
806.904	27473
807.046	27701
807.188	27739
807.33	27625
807.472	27641
807.614	27568
807.756	27690
807.898	27477
808.04	27519
808.182	27420
808.324	27500
808.465	27519
808.607	27660
808.749	27789
808.891	27884
809.033	27827
809.174	27914
809.316	27846
809.458	27831
809.6	27899
809.741	27869
809.883	27907
810.025	27994
810.166	28078
810.308	28097
810.45	27991
810.591	27899
810.733	27888
810.875	27637
811.016	27686
811.158	27656
811.299	27682
811.441	27895
811.582	27880
811.724	27701
811.865	27732
812.007	27743
812.148	27736
812.29	27705
812.431	27857
812.573	28070
812.714	28238
812.855	28192
812.997	28185
813.138	28432
813.279	28329
813.421	28109
813.562	28128
813.703	28101
813.845	27987
813.986	27663
814.127	27534
814.268	27401
814.41	27500
814.551	27351
814.692	27408
814.833	27169
814.974	27184
815.115	27207
815.256	27173
815.397	27226
815.539	27252
815.68	27032
815.821	27047
815.962	27203
816.103	27074
816.244	26937
816.385	26899
816.526	26842
816.666	26712
816.807	26434
816.948	26552
817.089	26564
817.23	26678
817.371	26560
817.512	26640
817.653	26583
817.793	26469
817.934	26412
818.075	26415
818.216	26602
818.356	26366
818.497	26298
818.638	26332
818.778	26244
818.919	26286
819.06	26195
819.2	26431
819.341	26396
819.481	26419
819.622	26720
819.762	26735
819.903	26739
820.043	26503
820.184	26537
820.324	26503
820.465	26705
820.605	26575
820.746	26526
820.886	26347
821.026	26434
821.167	26419
821.307	26549
821.447	26389
821.588	26339
821.728	26172
821.868	26020
822.008	25833
822.149	25776
822.289	25906
822.429	25685
822.569	25655
822.709	25609
822.849	25324
822.99	25365
823.13	25320
823.27	25251
823.41	25110
823.55	25004
823.69	25168
823.83	25171
823.97	25053
824.11	24852
824.25	24928
824.389	24890
824.529	25015
824.669	24897
824.809	25114
824.949	25008
825.089	24951
825.228	24920
825.368	24779
825.508	24829
825.648	24757
825.787	24692
825.927	24734
826.067	24677
826.206	24677
826.346	24768
826.485	24783
826.625	24700
826.765	24875
826.904	24688
827.044	24559
827.183	24433
827.323	24490
827.462	24403
827.601	24437
827.741	24407
827.88	24475
828.02	24300
828.159	24521
828.298	24334
828.437	24505
828.577	24361
828.716	24650
828.855	24144
828.994	24076
829.134	24064
829.273	24117
829.412	24144
829.551	23965
829.69	24079
829.829	24125
829.968	24125
830.107	24209
830.246	24201
830.385	23939
830.524	23828
830.663	24022
830.802	23809
830.941	23741
831.08	23596
831.219	23665
831.357	23843
831.496	23961
831.635	23638
831.774	23531
831.913	23402
832.051	23539
832.19	23482
832.329	23429
832.467	23406
832.606	23239
832.744	23170
832.883	23326
833.022	23174
833.16	23337
833.299	23372
833.437	23181
833.576	23402
833.714	23345
833.852	23315
833.991	23265
834.129	23326
834.267	23376
834.406	23299
834.544	23299
834.682	23345
834.821	23181
834.959	23387
835.097	23136
835.235	23364
835.373	23368
835.511	23220
835.65	23178
835.788	23064
835.926	23060
836.064	22980
836.202	23151
836.34	23094
836.478	23197
836.615	23147
836.753	23239
836.891	23181
837.029	23162
837.167	23117
837.305	23037
837.443	23010
837.58	22877
837.718	23022
837.856	23083
837.993	22866
838.131	23022
838.269	22801
838.406	22900
838.544	22710
838.681	22561
838.819	22554
838.956	22466
839.094	22474
839.231	22382
839.369	22664
839.506	22790
839.643	22660
839.781	22375
839.918	22402
840.055	22417
840.193	22299
840.33	22386
840.467	22196
840.604	22405
840.742	22523
840.879	22097
841.016	22253
841.153	22207
841.29	22417
841.427	22405
841.564	22337
841.701	22249
841.838	22299
841.975	22204
842.112	22257
842.249	22078
842.385	22055
842.522	22295
842.659	22013
842.796	22044
842.933	21975
843.069	21998
843.206	21884
843.343	21975
843.479	21972
843.616	21842
843.752	21793
843.889	21713
844.025	21892
844.162	21705
844.298	21854
844.435	21747
844.571	21675
844.708	21793
844.844	21998
844.98	21915
845.117	21804
845.253	21587
845.389	21599
845.525	21568
845.661	21629
845.798	21473
845.934	21412
846.07	21428
846.206	21561
846.342	21564
846.478	21568
846.614	21389
846.75	21264
846.886	21173
847.022	21332
847.158	21127
847.294	21165
847.429	21317
847.565	21192
847.701	21511
847.837	20982
847.972	20952
848.108	21062
848.244	20876
848.379	20834
848.515	20716
848.65	20807
848.786	20754
848.921	20743
849.057	20906
849.192	20781
849.328	20773
849.463	20811
849.598	20655
849.734	20758
849.869	20746
850.004	20511
850.14	20564
850.275	20606
850.41	20320
850.545	20571
850.68	20541
850.815	20594
850.95	20533
851.085	20697
851.22	20575
851.355	20488
851.49	20480
851.625	20469
851.76	20423
851.895	20461
852.03	20317
852.165	20415
852.299	20408
852.434	20594
852.569	20457
852.703	20545
852.838	20640
852.973	20499
853.107	20590
853.242	20446
853.376	20343
853.511	20263
853.645	20248
853.78	20446
853.914	20393
854.048	20343
854.183	20286
854.317	20328
854.451	20442
854.585	20404
854.72	20298
854.854	20408
854.988	20145
855.122	20305
855.256	20225
855.39	20374
855.524	20427
855.658	20393
855.792	20343
855.926	20366
856.06	20301
856.194	20351
856.327	20309
856.461	20263
856.595	20221
856.729	20168
856.862	20370
856.996	20305
857.13	20431
857.263	20446
857.397	20404
857.53	20324
857.664	20438
857.797	20423
857.931	20351
858.064	20183
858.197	20362
858.331	20294
858.464	20202
858.597	20221
858.731	20282
858.864	20214
858.997	20313
859.13	20286
859.263	20259
859.396	20271
859.529	20252
859.662	20202
859.795	20096
859.928	20191
860.061	20336
860.194	20400
860.327	20339
860.46	20298
860.592	20366
860.725	20377
860.858	20332
860.99	20271
861.123	20119
861.256	20191
861.388	20218
861.521	20857
861.653	20122
861.786	19993
861.918	20046
862.05	20180
862.183	20252
862.315	20351
862.447	20358
862.58	20282
862.712	19974
862.844	19947
862.976	20130
863.108	20001
863.24	20370
863.372	19932
863.504	19894
863.636	19860
863.768	20012
863.9	19898
864.032	19845
864.164	19841
864.296	19940
864.428	19986
864.559	20027
864.691	19978
864.823	20031
864.954	19909
865.086	19928
865.217	19925
865.349	19776
865.48	19803
865.612	19871
865.743	20008
865.875	19974
866.006	19734
866.137	19807
866.269	19852
866.4	19795
866.531	19674
866.662	19761
866.793	19811
866.924	19738
867.055	19849
867.186	19807
867.317	19666
867.448	19731
867.579	19772
867.71	19571
867.841	19666
867.972	19887
868.103	19776
868.233	19734
868.364	19757
868.495	19970
868.625	19921
868.756	20062
868.886	19947
869.017	20103
869.147	20050
869.278	20142
869.408	20024
869.539	19944
869.669	20145
869.799	19997
869.929	20134
870.06	20111
870.19	20305
870.32	20332
870.45	20309
870.58	20393
870.71	20419
870.84	20412
870.97	20400
871.1	20499
871.23	20560
871.36	20598
871.489	20537
871.619	20632
871.749	20564
871.879	20689
872.008	20659
872.138	20530
872.267	20514
872.397	20476
872.526	20362
872.656	20404
872.785	20461
872.915	20678
873.044	20636
873.173	20625
873.303	20640
873.432	20689
873.561	20762
873.69	20629
873.819	20762
873.948	20746
874.077	20712
874.206	20663
874.335	20644
874.464	20811
874.593	20910
874.722	20918
874.851	20921
874.979	20971
875.108	21013
875.237	20883
875.365	20811
875.494	20765
875.623	21036
875.751	20883
875.88	20914
876.008	20963
876.136	21024
876.265	21367
876.393	21408
876.521	21310
876.65	21439
876.778	21355
876.906	21195
877.034	21268
877.162	21313
877.29	21260
877.418	21237
877.546	21256
877.674	21237
877.802	21344
877.93	21245
878.058	21249
878.185	21146
878.313	21313
878.441	21135
878.568	21116
878.696	21180
878.824	21176
878.951	21329
879.079	21378
879.206	21496
879.333	21462
879.461	21222
879.588	21393
879.715	21435
879.842	21564
879.97	21340
880.097	21070
880.224	21108
880.351	21077
880.478	21066
880.605	20994
880.732	21180
880.859	21325
880.986	21176
881.112	21123
881.239	20956
881.366	20693
881.493	20781
881.619	20640
881.746	20743
881.872	20731
881.999	20644
882.125	20590
882.252	20689
882.378	20724
882.505	20857
882.631	20511
882.757	20492
882.883	20488
883.01	20404
883.136	20396
883.262	20313
883.388	20370
883.514	20381
883.64	20507
883.766	20313
883.892	20324
884.018	20134
884.143	20396
884.269	20545
884.395	20100
884.52	19978
884.646	20100
884.772	19849
884.897	20016
885.023	20183
885.148	20210
885.274	20210
885.399	20119
885.524	20187
885.65	20115
885.775	20046
885.9	20149
886.025	20043
886.15	20111
886.275	20058
886.4	19913
886.525	19978
886.65	20050
886.775	19993
886.9	20119
887.025	20218
887.149	20046
887.274	19795
887.399	19811
887.523	19795
887.648	19681
887.773	19586
887.897	19940
888.021	19822
888.146	19776
888.27	19936
888.395	19997
888.519	19845
888.643	19906
888.767	19837
888.891	19666
889.015	19571
889.139	19655
889.263	19559
889.387	19734
889.511	19818
889.635	19628
889.759	19502
889.883	19556
890.006	19624
890.13	19655
890.254	19445
890.377	19438
890.501	19407
890.624	19362
890.748	19369
890.871	19316
890.995	19251
891.118	19137
891.241	19088
891.364	19324
891.488	19316
891.611	19194
891.734	19202
891.857	19285
891.98	19217
892.103	19221
892.226	19244
892.349	19228
892.471	18973
892.594	19126
892.717	19091
892.839	19095
892.962	19164
893.085	19266
893.207	19072
893.33	19034
893.452	19008
893.575	19065
893.697	19103
893.819	19213
893.941	19312
894.064	19187
894.186	19133
894.308	19129
894.43	19202
894.552	19225
894.674	19118
894.796	19034
894.918	18981
895.04	19122
895.161	19042
895.283	19164
895.405	19118
895.526	19171
895.648	19023
895.769	19110
895.891	19194
896.012	19297
896.134	19137
896.255	19091
896.376	19110
896.498	19126
896.619	19175
896.74	19221
896.861	19308
896.982	19460
897.103	19681
897.224	19419
897.345	19354
897.466	19301
897.587	19487
897.708	19468
897.828	19354
897.949	19312
898.07	19103
898.19	19308
898.311	19434
898.431	19350
898.552	19449
898.672	19415
898.792	19392
898.913	19270
899.033	19247
899.153	19183
899.273	19099
899.393	19145
899.513	19217
899.633	19012
899.753	19046
899.873	19076
899.993	19069
900.113	19034
900.232	19088
900.352	19084
900.472	19000
900.591	18935
900.711	18932
900.83	18890
900.95	18985
901.069	19000
901.189	18829
901.308	18604
901.427	18498
901.546	18536
901.665	18509
901.784	18570
901.904	18353
902.023	18201
902.141	18159
902.26	17999
902.379	17969
902.498	17946
902.617	17946
902.735	18106
902.854	17954
902.973	17847
903.091	17714
903.21	17699
903.328	17745
903.446	17615
903.565	17581
903.683	17433
903.801	17341
903.919	17493
904.038	17414
904.156	17147
904.274	17322
904.392	17277
904.51	17197
904.627	17227
904.745	17360
904.863	17311
904.981	17090
905.098	16904
905.216	16904
905.334	16923
905.451	16968
905.569	16968
905.686	17006
905.803	16892
905.921	16721
906.038	16892
906.155	16713
906.272	16611
906.389	16599
906.506	16538
906.623	16523
906.74	16516
906.857	16386
906.974	16375
907.091	16462
907.208	16512
907.324	16470
907.441	16303
907.557	16253
907.674	16173
907.79	16150
907.907	16169
908.023	16143
908.139	16192
908.256	15983
908.372	16147
908.488	15968
908.604	15949
908.72	15892
908.836	15808
908.952	15880
909.068	15861
909.184	16006
909.3	15911
909.415	15937
909.531	15778
909.647	15648
909.762	15564
909.878	15542
909.993	15629
910.108	15553
910.224	15542
910.339	15492
910.454	15443
910.57	15450
910.685	15348
910.8	15595
910.915	15564
911.03	15416
911.145	15146
911.259	15199
911.374	15135
911.489	15161
911.604	14960
911.718	15020
911.833	15009
911.947	14773
912.062	14750
912.176	14857
912.291	14910
912.405	14895
912.519	15009
912.633	15142
912.748	14963
912.862	14838
912.976	14689
913.09	14476
913.204	14621
913.318	14861
913.431	14670
913.545	14807
913.659	14811
913.772	14682
913.886	14556
914	14514
914.113	14549
914.226	14682
914.34	14678
914.453	14480
914.566	14579
914.68	14393
914.793	14389
914.906	14309
915.019	14138
915.132	14111
915.245	14229
915.358	14248
915.47	14206
915.583	14218
915.696	14161
915.809	14362
915.921	14298
916.034	14081
916.146	14134
916.259	14043
916.371	14206
916.483	14054
916.595	14062
916.708	14024
916.82	13974
916.932	14020
917.044	13951
917.156	13967
917.268	13845
917.38	13841
917.491	13803
917.603	13879
917.715	13921
917.826	13947
917.938	13902
918.049	13723
918.161	13784
918.272	13997
918.384	13932
918.495	13875
918.606	13723
918.717	13552
918.828	13715
918.939	13685
919.05	13616
919.161	13647
919.272	13316
919.383	13445
919.494	13681
919.604	13864
919.715	13590
919.826	13620
919.936	13624
920.047	13715
920.157	13681
920.267	13791
920.378	13666
920.488	13571
920.598	13849
920.708	13978
920.818	13712
920.928	13708
921.038	13818
921.148	13788
921.258	13510
921.368	13445
921.477	13362
921.587	13388
921.697	13190
921.806	13415
921.916	13175
922.025	13023
922.134	13046
922.244	12913
922.353	13012
922.462	12916
922.571	12776
922.68	12715
922.789	12627
922.898	12570
923.007	12597
923.116	12635
923.224	12604
923.333	12604
923.442	12532
923.55	12563
923.659	12456
923.767	12532
923.876	12414
923.984	12502
924.092	12369
924.201	12464
924.309	12471
924.417	12422
924.525	12369
924.633	12346
924.741	13076
924.849	12216
924.956	12350
925.064	12129
925.172	12007
925.279	12045
925.387	12167
925.494	12083
925.602	12281
925.709	12121
925.816	12041
925.924	12102
926.031	12152
926.138	12106
926.245	12159
926.352	12026
926.459	12091
926.566	12167
926.673	12007
926.779	11904
926.886	11874
926.993	11726
927.099	11668
927.206	11680
927.312	11623
927.419	11752
927.525	11665
927.631	11722
927.737	11653
927.843	11524
927.95	11440
928.056	11535
928.162	11577
928.267	11589
928.373	12155
928.479	11638
928.585	11379
928.69	11452
928.796	11608
928.901	11410
929.007	11303
929.112	11448
929.218	11345
929.323	11250
929.428	11242
929.533	11387
929.638	11201
929.743	11181
929.848	11356
929.953	11147
930.058	11124
930.163	10942
930.267	11045
930.372	11147
930.477	10919
930.581	11204
930.685	11006
930.79	10839
930.894	10991
930.998	10858
931.103	10987
931.207	10611
931.311	10565
931.415	10424
931.519	10261
931.623	10276
