Data from test_V78500241_3121.txt Node
Date: Fri Mar 25 15:31:35 CST 2022
User: usil
Spectrometer: V785-0024
Trigger mode: 0
Integration Time (sec): 4.000000E-1
Scans to average: 1
Nonlinearity correction enabled: false
Boxcar width: 0
Storing dark spectrum: false
XAxis mode: Wavelengths
Number of Pixels in Spectrum: 1024
>>>>>Begin Spectral Data<<<<<
801.071	27222
801.214	26986
801.356	26788
801.499	26541
801.641	26640
801.783	26731
801.926	26701
802.068	26716
802.211	26568
802.353	26495
802.496	26324
802.638	26313
802.78	26206
802.923	26168
803.065	26164
803.208	26206
803.35	26282
803.492	26370
803.635	26518
803.777	26271
803.919	26248
804.061	26697
804.204	26393
804.346	26347
804.488	26271
804.63	26309
804.773	26172
804.915	26419
805.057	26503
805.199	26381
805.341	26507
805.483	26465
805.626	26526
805.768	26324
805.91	26499
806.052	26560
806.194	26393
806.336	26625
806.478	26377
806.62	26446
806.762	26640
806.904	26724
807.046	26902
807.188	26918
807.33	26807
807.472	26899
807.614	26914
807.756	26979
807.898	26568
808.04	26613
808.182	26659
808.324	26724
808.465	26765
808.607	26940
808.749	27058
808.891	27279
809.033	27252
809.174	27032
809.316	27005
809.458	27055
809.6	26948
809.741	27287
809.883	27123
810.025	27401
810.166	27351
810.308	27332
810.45	27317
810.591	27245
810.733	27116
810.875	26994
811.016	26994
811.158	26963
811.299	27195
811.441	27249
811.582	27329
811.724	27096
811.865	27089
812.007	27104
812.148	26929
812.29	27180
812.431	27157
812.573	27329
812.714	27408
812.855	27534
812.997	27648
813.138	27854
813.279	27587
813.421	27549
813.562	27591
813.703	27427
813.845	27321
813.986	26883
814.127	26971
814.268	26750
814.41	26800
814.551	26629
814.692	26864
814.833	26712
814.974	26503
815.115	26678
815.256	26583
815.397	26537
815.539	26617
815.68	26450
815.821	26339
815.962	26541
816.103	26457
816.244	26332
816.385	26271
816.526	26233
816.666	26122
816.807	25898
816.948	26100
817.089	26069
817.23	26008
817.371	26046
817.512	26065
817.653	26008
817.793	25898
817.934	26081
818.075	25887
818.216	26100
818.356	25917
818.497	25906
818.638	25708
818.778	25674
818.919	25628
819.06	25719
819.2	25906
819.341	26005
819.481	26058
819.622	26168
819.762	26229
819.903	26100
820.043	26126
820.184	26012
820.324	26039
820.465	26035
820.605	26126
820.746	25944
820.886	25944
821.026	26001
821.167	25963
821.307	26225
821.447	25993
821.588	25856
821.728	25750
821.868	25556
822.008	25324
822.149	25369
822.289	25274
822.429	25171
822.569	25164
822.709	25046
822.849	24947
822.99	24920
823.13	24913
823.27	24954
823.41	24772
823.55	24646
823.69	24760
823.83	24654
823.97	24673
824.11	24646
824.25	24498
824.389	24528
824.529	24505
824.669	24456
824.809	24738
824.949	24673
825.089	24551
825.228	24669
825.368	24437
825.508	24369
825.648	24346
825.787	24365
825.927	24540
826.067	24418
826.206	24433
826.346	24437
826.485	24578
826.625	24448
826.765	24540
826.904	24448
827.044	24270
827.183	24091
827.323	24148
827.462	24174
827.601	24083
827.741	24174
827.88	24266
828.02	23969
828.159	24186
828.298	24281
828.437	24171
828.577	24129
828.716	24285
828.855	24133
828.994	23923
829.134	23874
829.273	23996
829.412	23809
829.551	23878
829.69	23859
829.829	23946
829.968	23889
830.107	23984
830.246	23999
830.385	23843
830.524	23775
830.663	23611
830.802	23608
830.941	23410
831.08	23467
831.219	23615
831.357	23478
831.496	23699
831.635	23497
831.774	23318
831.913	23318
832.051	23208
832.19	23174
832.329	23307
832.467	23067
832.606	23052
832.744	23132
832.883	23067
833.022	22968
833.16	23136
833.299	23155
833.437	23242
833.576	23231
833.714	23231
833.852	23269
833.991	23181
834.129	23326
834.267	23280
834.406	23174
834.544	23098
834.682	23189
834.821	23223
834.959	23315
835.097	23181
835.235	23181
835.373	23128
835.511	23265
835.65	22919
835.788	23102
835.926	22984
836.064	22911
836.202	22911
836.34	23060
836.478	23136
836.615	22995
836.753	22946
836.891	23197
837.029	23018
837.167	22934
837.305	23010
837.443	23025
837.58	22999
837.718	23052
837.856	23033
837.993	22908
838.131	22793
838.269	22843
838.406	22881
838.544	22679
838.681	22599
838.819	22565
838.956	22337
839.094	22390
839.231	22459
839.369	22664
839.506	22797
839.643	22588
839.781	22375
839.918	22382
840.055	22371
840.193	22246
840.33	22219
840.467	22303
840.604	22356
840.742	22531
840.879	22276
841.016	22246
841.153	22215
841.29	22344
841.427	22272
841.564	22329
841.701	22329
841.838	22295
841.975	22223
842.112	22226
842.249	22150
842.385	22109
842.522	22246
842.659	22169
842.796	22032
842.933	22021
843.069	22074
843.206	21983
843.343	22291
843.479	22059
843.616	22010
843.752	21831
843.889	21827
844.025	21983
844.162	21739
844.298	21941
844.435	21861
844.571	21861
844.708	21949
844.844	22070
844.98	21975
845.117	21964
845.253	21861
845.389	21724
845.525	21736
845.661	21679
845.798	21557
845.934	21606
846.07	21500
846.206	21583
846.342	21743
846.478	21549
846.614	21389
846.75	21424
846.886	21313
847.022	21405
847.158	21397
847.294	21291
847.429	21336
847.565	21313
847.701	21500
847.837	21093
847.972	20929
848.108	21138
848.244	21173
848.379	20998
848.515	20849
848.65	20845
848.786	20906
848.921	20960
849.057	21028
849.192	21001
849.328	21055
849.463	20910
849.598	20937
849.734	20792
849.869	20796
850.004	20617
850.14	20667
850.275	20762
850.41	20587
850.545	20743
850.68	20495
850.815	20674
850.95	20682
851.085	20918
851.22	20716
851.355	20800
851.49	20796
851.625	20735
851.76	20678
851.895	20689
852.03	20632
852.165	20720
852.299	20648
852.434	20708
852.569	20697
852.703	20575
852.838	20853
852.973	20815
853.107	20792
853.242	20560
853.376	20625
853.511	20461
853.645	20473
853.78	20674
853.914	20579
854.048	20454
854.183	20404
854.317	20648
854.451	20746
854.585	20488
854.72	20488
854.854	20590
854.988	20419
855.122	20480
855.256	20298
855.39	20522
855.524	20617
855.658	20556
855.792	20568
855.926	20594
856.06	20484
856.194	20625
856.327	20434
856.461	20438
856.595	20461
856.729	20469
856.862	20621
856.996	20511
857.13	20583
857.263	20659
857.397	20644
857.53	20495
857.664	20469
857.797	20549
857.931	20556
858.064	20575
858.197	20629
858.331	20419
858.464	20374
858.597	20434
858.731	20457
858.864	20461
858.997	20564
859.13	20526
859.263	20545
859.396	20663
859.529	20454
859.662	20370
859.795	20396
859.928	20537
860.061	20625
860.194	20735
860.327	20533
860.46	20450
860.592	20579
860.725	20609
860.858	20720
860.99	20575
861.123	20484
861.256	20400
861.388	20446
861.521	21047
861.653	20370
861.786	20351
861.918	20355
862.05	20469
862.183	20400
862.315	20347
862.447	20499
862.58	20450
862.712	20339
862.844	20161
862.976	20176
863.108	20355
863.24	20629
863.372	20084
863.504	20214
863.636	20172
863.768	20180
863.9	20362
864.032	20096
864.164	20309
864.296	20199
864.428	20336
864.559	20286
864.691	20286
864.823	20278
864.954	20164
865.086	20153
865.217	20199
865.349	20077
865.48	20168
865.612	20077
865.743	20324
865.875	20191
866.006	20119
866.137	20016
866.269	20145
866.4	20111
866.531	20130
866.662	20031
866.793	20043
866.924	20126
867.055	20187
867.186	20043
867.317	20005
867.448	20062
867.579	19955
867.71	19986
867.841	19974
867.972	20088
868.103	20043
868.233	20065
868.364	20054
868.495	20164
868.625	20298
868.756	20408
868.886	20142
869.017	20263
869.147	20427
869.278	20434
869.408	20362
869.539	20271
869.669	20419
869.799	20404
869.929	20476
870.06	20434
870.19	20640
870.32	20518
870.45	20594
870.58	20682
870.71	20876
870.84	20868
870.97	20811
871.1	20549
871.23	20998
871.36	20944
871.489	20785
871.619	20857
871.749	20857
871.879	20937
872.008	21055
872.138	20845
872.267	21001
872.397	20857
872.526	20716
872.656	20701
872.785	20849
872.915	20933
873.044	21020
873.173	20944
873.303	20857
873.432	21058
873.561	20982
873.69	20853
873.819	20975
873.948	20971
874.077	20998
874.206	21013
874.335	20979
874.464	21089
874.593	21268
874.722	21199
874.851	21135
874.979	21252
875.108	21272
875.237	21108
875.365	21051
875.494	21256
875.623	21279
875.751	21226
875.88	21230
876.008	21260
876.136	21408
876.265	21561
876.393	21713
876.521	21542
876.65	21671
876.778	21557
876.906	21568
877.034	21507
877.162	21469
877.29	21401
877.418	21576
877.546	21412
877.674	21431
877.802	21561
877.93	21507
878.058	21526
878.185	21439
878.313	21435
878.441	21473
878.568	21458
878.696	21542
878.824	21549
878.951	21698
879.079	21755
879.206	21789
879.333	21637
879.461	21625
879.588	21625
879.715	21599
879.842	21800
879.97	21610
880.097	21412
880.224	21233
880.351	21367
880.478	21386
880.605	21386
880.732	21272
880.859	21530
880.986	21439
881.112	21374
881.239	21272
881.366	21047
881.493	20990
881.619	21070
881.746	20921
881.872	20902
881.999	20857
882.125	20773
882.252	21005
882.378	20956
882.505	20975
882.631	20754
882.757	20739
882.883	20773
883.01	20537
883.136	20579
883.262	20518
883.388	20461
883.514	20625
883.64	20705
883.766	20522
883.892	20393
884.018	20568
884.143	20549
884.269	20686
884.395	20324
884.52	20248
884.646	20286
884.772	20263
884.897	20229
885.023	20328
885.148	20450
885.274	20427
885.399	20282
885.524	20271
885.65	20301
885.775	20214
885.9	20309
886.025	20438
886.15	20377
886.275	20210
886.4	20229
886.525	20271
886.65	20199
886.775	20263
886.9	20358
887.025	20476
887.149	20328
887.274	20088
887.399	20153
887.523	20126
887.648	20069
887.773	20020
887.897	20149
888.021	20180
888.146	19974
888.27	20081
888.395	20046
888.519	20183
888.643	20153
888.767	20046
888.891	20043
889.015	19841
889.139	19864
889.263	19837
889.387	20069
889.511	20031
889.635	20046
889.759	19826
889.883	19852
890.006	19856
890.13	19902
890.254	19708
890.377	19841
890.501	19647
890.624	19635
890.748	19750
890.871	19616
890.995	19453
891.118	19331
891.241	19521
891.364	19396
891.488	19559
891.611	19499
891.734	19575
891.857	19533
891.98	19518
892.103	19514
892.226	19514
892.349	19457
892.471	19266
892.594	19453
892.717	19476
892.839	19430
892.962	19472
893.085	19480
893.207	19403
893.33	19198
893.452	19331
893.575	19537
893.697	19293
893.819	19521
893.941	19624
894.064	19464
894.186	19324
894.308	19346
894.43	19468
894.552	19575
894.674	19533
894.796	19331
894.918	19411
895.04	19278
895.161	19499
895.283	19381
895.405	19392
895.526	19350
895.648	19445
895.769	19392
895.891	19480
896.012	19510
896.134	19483
896.255	19415
896.376	19354
896.498	19339
896.619	19369
896.74	19449
896.861	19460
896.982	19811
897.103	19845
897.224	19689
897.345	19658
897.466	19548
897.587	19651
897.708	19788
897.828	19727
897.949	19632
898.07	19464
898.19	19529
898.311	19651
898.431	19575
898.552	19635
898.672	19723
898.792	19609
898.913	19830
899.033	19613
899.153	19403
899.273	19411
899.393	19354
899.513	19472
899.633	19304
899.753	19441
899.873	19266
899.993	19411
900.113	19358
900.232	19369
900.352	19266
900.472	19270
900.591	19187
900.711	19206
900.83	19168
900.95	19308
901.069	19259
901.189	19072
901.308	18802
901.427	18810
901.546	18798
901.665	18677
901.784	18837
901.904	18669
902.023	18551
902.141	18304
902.26	18334
902.379	18429
902.498	18323
902.617	18213
902.735	18361
902.854	18357
902.973	18289
903.091	18098
903.21	17977
903.328	17973
903.446	17954
903.565	17870
903.683	17737
903.801	17687
903.919	17741
904.038	17878
904.156	17433
904.274	17668
904.392	17657
904.51	17532
904.627	17570
904.745	17577
904.863	17611
904.981	17376
905.098	17360
905.216	17261
905.334	17299
905.451	17269
905.569	17216
905.686	17151
905.803	17060
905.921	16908
906.038	17071
906.155	17045
906.272	17010
906.389	16991
906.506	16892
906.623	16824
906.74	16801
906.857	16645
906.974	16668
907.091	16744
907.208	16873
907.324	16896
907.441	16706
907.557	16519
907.674	16516
907.79	16413
907.907	16428
908.023	16470
908.139	16436
908.256	16481
908.372	16459
908.488	16405
908.604	16147
908.72	16124
908.836	16211
908.952	16268
909.068	16230
909.184	16329
909.3	16223
909.415	16287
909.531	16162
909.647	15941
909.762	15945
909.878	15903
909.993	15960
910.108	15983
910.224	15922
910.339	15949
910.454	15854
910.57	15766
910.685	15682
910.8	16025
910.915	15846
911.03	15739
911.145	15641
911.259	15561
911.374	15584
911.489	15511
911.604	15424
911.718	15245
911.833	15401
911.947	15192
912.062	15119
912.176	15302
912.291	15321
912.405	15363
912.519	15538
912.633	15374
912.748	15268
912.862	15233
912.976	15116
913.09	15070
913.204	15085
913.318	15165
913.431	15230
913.545	15176
913.659	15222
913.772	15097
913.886	14979
914	14826
914.113	15005
914.226	15036
914.34	14952
914.453	14899
914.566	14986
914.68	14842
914.793	14792
914.906	14682
915.019	14617
915.132	14488
915.245	14503
915.358	14503
915.47	14499
915.583	14545
915.696	14514
915.809	14655
915.921	14743
916.034	14469
916.146	14473
916.259	14514
916.371	14571
916.483	14522
916.595	14427
916.708	14339
916.82	14366
916.932	14381
917.044	14351
917.156	14317
917.268	14107
917.38	14214
917.491	14282
917.603	14286
917.715	14298
917.826	14332
917.938	14180
918.049	14092
918.161	14176
918.272	14267
918.384	14328
918.495	14096
918.606	14027
918.717	13963
918.828	13993
918.939	14050
919.05	13936
919.161	14054
919.272	13704
919.383	13887
919.494	14088
919.604	14088
919.715	13959
919.826	13906
919.936	13959
920.047	14084
920.157	13986
920.267	14058
920.378	13944
920.488	13997
920.598	13993
920.708	14252
920.818	14096
920.928	14096
921.038	14244
921.148	14202
921.258	13986
921.368	13890
921.477	13772
921.587	13734
921.697	13624
921.806	13715
921.916	13639
922.025	13422
922.134	13441
922.244	13282
922.353	13384
922.462	13274
922.571	13133
922.68	12932
922.789	13012
922.898	12973
923.007	13015
923.116	13046
923.224	13076
923.333	13038
923.442	12840
923.55	12890
923.659	12916
923.767	12913
923.876	12753
923.984	12852
924.092	12715
924.201	12696
924.309	12715
924.417	12749
924.525	12658
924.633	12662
924.741	13590
924.849	12483
924.956	12631
925.064	12502
925.172	12391
925.279	12426
925.387	12483
925.494	12498
925.602	12612
925.709	12521
925.816	12388
925.924	12399
926.031	12448
926.138	12342
926.245	12536
926.352	12311
926.459	12448
926.566	12494
926.673	12350
926.779	12243
926.886	12277
926.993	12079
927.099	12007
927.206	12030
927.312	11927
927.419	12057
927.525	12163
927.631	11999
927.737	11950
927.843	11870
927.95	11764
928.056	11958
928.162	11931
928.267	11996
928.373	12479
928.479	11920
928.585	11767
928.69	11874
928.796	11893
928.901	11783
929.007	11596
929.112	11764
929.218	11707
929.323	11608
929.428	11570
929.533	11688
929.638	11528
929.743	11699
929.848	11585
929.953	11566
930.058	11440
930.163	11353
930.267	11341
930.372	11493
930.477	11322
930.581	11463
930.685	11395
930.79	11246
930.894	11204
930.998	11216
931.103	11303
931.207	10919
931.311	10896
931.415	10820
931.519	10596
931.623	10603
