Data from test_V78500241_2043.txt Node
Date: Fri Mar 25 15:24:05 CST 2022
User: usil
Spectrometer: V785-0024
Trigger mode: 0
Integration Time (sec): 4.000000E-1
Scans to average: 1
Nonlinearity correction enabled: false
Boxcar width: 0
Storing dark spectrum: false
XAxis mode: Wavelengths
Number of Pixels in Spectrum: 1024
>>>>>Begin Spectral Data<<<<<
801.071	27816
801.214	27770
801.356	27534
801.499	27488
801.641	27249
801.783	27386
801.926	27401
802.068	27348
802.211	27283
802.353	27275
802.496	27005
802.638	26876
802.78	26956
802.923	26868
803.065	26944
803.208	26857
803.35	27096
803.492	27112
803.635	27138
803.777	27066
803.919	27184
804.061	27610
804.204	27131
804.346	27169
804.488	27024
804.63	27100
804.773	27146
804.915	27135
805.057	27332
805.199	27112
805.341	27275
805.483	27169
805.626	27157
805.768	27268
805.91	27310
806.052	27237
806.194	27081
806.336	27549
806.478	27268
806.62	27222
806.762	27279
806.904	27530
807.046	27591
807.188	27671
807.33	27679
807.472	27690
807.614	27667
807.756	27583
807.898	27572
808.04	27473
808.182	27488
808.324	27561
808.465	27595
808.607	27865
808.749	28070
808.891	27953
809.033	28093
809.174	28010
809.316	27819
809.458	27953
809.6	27960
809.741	28070
809.883	28093
810.025	28238
810.166	28234
810.308	28124
810.45	28215
810.591	27979
810.733	27968
810.875	27842
811.016	27827
811.158	27690
811.299	28051
811.441	28010
811.582	28029
811.724	27941
811.865	27857
812.007	27816
812.148	27994
812.29	27937
812.431	27930
812.573	28188
812.714	28341
812.855	28360
812.997	28538
813.138	28675
813.279	28569
813.421	28417
813.562	28382
813.703	28158
813.845	28112
813.986	27800
814.127	27835
814.268	27652
814.41	27610
814.551	27663
814.692	27728
814.833	27485
814.974	27629
815.115	27705
815.256	27420
815.397	27424
815.539	27488
815.68	27336
815.821	27454
815.962	27469
816.103	27310
816.244	27207
816.385	27252
816.526	27169
816.666	26910
816.807	26708
816.948	26906
817.089	27013
817.23	26868
817.371	26975
817.512	26819
817.653	26785
817.793	26925
817.934	26735
818.075	26853
818.216	26857
818.356	26788
818.497	26659
818.638	26526
818.778	26549
818.919	26735
819.06	26746
819.2	26826
819.341	26845
819.481	26754
819.622	26979
819.762	27108
819.903	27150
820.043	26994
820.184	26979
820.324	26940
820.465	27024
820.605	26967
820.746	26914
820.886	26762
821.026	26872
821.167	26807
821.307	26937
821.447	26902
821.588	26819
821.728	26644
821.868	26457
822.008	26294
822.149	26309
822.289	26313
822.429	26054
822.569	25974
822.709	26005
822.849	25970
822.99	25704
823.13	25989
823.27	25906
823.41	25738
823.55	25499
823.69	25696
823.83	25647
823.97	25693
824.11	25358
824.25	25377
824.389	25472
824.529	25521
824.669	25392
824.809	25464
824.949	25476
825.089	25552
825.228	25533
825.368	25289
825.508	25331
825.648	25362
825.787	25304
825.927	25266
826.067	25312
826.206	25384
826.346	25403
826.485	25365
826.625	25285
826.765	25514
826.904	25396
827.044	25072
827.183	25126
827.323	25118
827.462	25183
827.601	25126
827.741	24985
827.88	25114
828.02	24962
828.159	24905
828.298	25027
828.437	25084
828.577	24954
828.716	25103
828.855	25042
828.994	24753
829.134	24772
829.273	24726
829.412	24753
829.551	24703
829.69	24817
829.829	24817
829.968	24833
830.107	24783
830.246	24719
830.385	24703
830.524	24669
830.663	24505
830.802	24612
830.941	24273
831.08	24281
831.219	24433
831.357	24395
831.496	24597
831.635	24437
831.774	24342
831.913	24266
832.051	24190
832.19	24125
832.329	24171
832.467	24007
832.606	24148
832.744	24072
832.883	24045
833.022	24076
833.16	24053
833.299	24076
833.437	24121
833.576	24057
833.714	24174
833.852	24201
833.991	24114
834.129	24098
834.267	24125
834.406	24167
834.544	24125
834.682	24125
834.821	24136
834.959	24213
835.097	24064
835.235	24258
835.373	24140
835.511	24110
835.65	23984
835.788	24053
835.926	23923
836.064	23897
836.202	23741
836.34	24030
836.478	24064
836.615	23916
836.753	24053
836.891	24041
837.029	23916
837.167	23973
837.305	23843
837.443	23916
837.58	23707
837.718	23805
837.856	23821
837.993	23764
838.131	23771
838.269	23566
838.406	23676
838.544	23551
838.681	23452
838.819	23509
838.956	23242
839.094	23242
839.231	23417
839.369	23402
839.506	23836
839.643	23478
839.781	23433
839.918	23216
840.055	23269
840.193	23315
840.33	23227
840.467	23136
840.604	23155
840.742	23410
840.879	23014
841.016	23094
841.153	23113
841.29	23193
841.427	23250
841.564	23303
841.701	23216
841.838	23223
841.975	23143
842.112	23113
842.249	23014
842.385	22946
842.522	23136
842.659	23033
842.796	22892
842.933	22938
843.069	22972
843.206	22854
843.343	22968
843.479	22919
843.616	22915
843.752	22649
843.889	22691
844.025	22816
844.162	22672
844.298	22763
844.435	22793
844.571	22672
844.708	22729
844.844	22812
844.98	22805
845.117	22797
845.253	22565
845.389	22611
845.525	22577
845.661	22493
845.798	22421
845.934	22417
846.07	22402
846.206	22512
846.342	22512
846.478	22432
846.614	22234
846.75	22230
846.886	22139
847.022	22188
847.158	22207
847.294	22154
847.429	22200
847.565	22177
847.701	22462
847.837	21998
847.972	21945
848.108	21983
848.244	22101
848.379	21808
848.515	21625
848.65	21789
848.786	21743
848.921	21736
849.057	21937
849.192	21781
849.328	21892
849.463	21709
849.598	21720
849.734	21736
849.869	21660
850.004	21671
850.14	21473
850.275	21599
850.41	21496
850.545	21561
850.68	21515
850.815	21530
850.95	21519
851.085	21675
851.22	21682
851.355	21587
851.49	21454
851.625	21370
851.76	21466
851.895	21447
852.03	21428
852.165	21534
852.299	21652
852.434	21690
852.569	21610
852.703	21606
852.838	21507
852.973	21671
853.107	21663
853.242	21340
853.376	21389
853.511	21294
853.645	21378
853.78	21443
853.914	21466
854.048	21424
854.183	21321
854.317	21416
854.451	21641
854.585	21412
854.72	21389
854.854	21450
854.988	21363
855.122	21378
855.256	21108
855.39	21329
855.524	21458
855.658	21435
855.792	21481
855.926	21428
856.06	21473
856.194	21393
856.327	21359
856.461	21340
856.595	21188
856.729	21260
856.862	21530
856.996	21389
857.13	21386
857.263	21386
857.397	21389
857.53	21443
857.664	21382
857.797	21477
857.931	21466
858.064	21268
858.197	21420
858.331	21340
858.464	21329
858.597	21291
858.731	21447
858.864	21287
858.997	21260
859.13	21416
859.263	21332
859.396	21469
859.529	21252
859.662	21382
859.795	21154
859.928	21336
860.061	21519
860.194	21496
860.327	21443
860.46	21382
860.592	21557
860.725	21386
860.858	21458
860.99	21348
861.123	21310
861.256	21298
861.388	21336
861.521	21991
861.653	21252
861.786	21100
861.918	21192
862.05	21279
862.183	21382
862.315	21268
862.447	21283
862.58	21211
862.712	21081
862.844	20986
862.976	21294
863.108	21161
863.24	21481
863.372	20982
863.504	21089
863.636	21077
863.768	21058
863.9	21157
864.032	21043
864.164	20952
864.296	21070
864.428	21214
864.559	21192
864.691	21203
864.823	21100
864.954	20998
865.086	21119
865.217	21032
865.349	20880
865.48	20952
865.612	20960
865.743	21005
865.875	21020
866.006	20941
866.137	20975
866.269	20982
866.4	20941
866.531	20899
866.662	20849
866.793	20838
866.924	20823
867.055	20948
867.186	20823
867.317	20872
867.448	20823
867.579	20887
867.71	20788
867.841	20777
867.972	20887
868.103	21055
868.233	20815
868.364	20857
868.495	20979
868.625	21203
868.756	21222
868.886	21032
869.017	21142
869.147	21260
869.278	21256
869.408	21077
869.539	21218
869.669	21233
869.799	21260
869.929	21302
870.06	21218
870.19	21401
870.32	21477
870.45	21447
870.58	21492
870.71	21663
870.84	21690
870.97	21549
871.1	21428
871.23	21675
871.36	21656
871.489	21534
871.619	21770
871.749	21770
871.879	21679
872.008	21850
872.138	21846
872.267	21660
872.397	21580
872.526	21557
872.656	21572
872.785	21599
872.915	21724
873.044	21930
873.173	21690
873.303	21789
873.432	21827
873.561	21907
873.69	21838
873.819	21648
873.948	21892
874.077	21755
874.206	21694
874.335	21804
874.464	21857
874.593	22055
874.722	21960
874.851	22010
874.979	21956
875.108	22017
875.237	22040
875.365	21797
875.494	21934
875.623	22036
875.751	21854
875.88	21964
876.008	22074
876.136	22059
876.265	22371
876.393	22432
876.521	22474
876.65	22459
876.778	22455
876.906	22295
877.034	22303
877.162	22348
877.29	22261
877.418	22314
877.546	22352
877.674	22371
877.802	22367
877.93	22268
878.058	22310
878.185	22158
878.313	22284
878.441	22268
878.568	22173
878.696	22207
878.824	22322
878.951	22360
879.079	22455
879.206	22519
879.333	22478
879.461	22329
879.588	22596
879.715	22478
879.842	22538
879.97	22303
880.097	22192
880.224	22192
880.351	22299
880.478	22272
880.605	22226
880.732	22063
880.859	22402
880.986	22120
881.112	22226
881.239	21975
881.366	21838
881.493	21774
881.619	21785
881.746	21739
881.872	21671
881.999	21610
882.125	21530
882.252	21633
882.378	21838
882.505	21892
882.631	21667
882.757	21382
882.883	21549
883.01	21416
883.136	21344
883.262	21317
883.388	21279
883.514	21481
883.64	21405
883.766	21291
883.892	21192
884.018	21161
884.143	21454
884.269	21447
884.395	21184
884.52	20994
884.646	21032
884.772	20975
884.897	20845
885.023	21100
885.148	21294
885.274	21131
885.399	21127
885.524	21047
885.65	21066
885.775	21096
885.9	21051
886.025	21131
886.15	21058
886.275	20937
886.4	20910
886.525	21157
886.65	20925
886.775	21020
886.9	21184
887.025	21245
887.149	21055
887.274	20861
887.399	20815
887.523	20819
887.648	20811
887.773	20785
887.897	20864
888.021	20762
888.146	20769
888.27	20754
888.395	20876
888.519	20960
888.643	20891
888.767	20811
888.891	20758
889.015	20682
889.139	20697
889.263	20552
889.387	20773
889.511	20758
889.635	20678
889.759	20587
889.883	20606
890.006	20655
890.13	20773
890.254	20507
890.377	20537
890.501	20423
890.624	20343
890.748	20393
890.871	20206
890.995	20187
891.118	20221
891.241	20202
891.364	20218
891.488	20240
891.611	20267
891.734	20126
891.857	20157
891.98	20271
892.103	20119
892.226	20210
892.349	20221
892.471	19986
892.594	20020
892.717	20153
892.839	19909
892.962	20202
893.085	20168
893.207	20046
893.33	20046
893.452	20012
893.575	20107
893.697	20081
893.819	20134
893.941	20263
894.064	20252
894.186	20084
894.308	19959
894.43	20214
894.552	20328
894.674	20100
894.796	20054
894.918	20100
895.04	20157
895.161	20153
895.283	20206
895.405	20100
895.526	20046
895.648	20012
895.769	20111
895.891	20168
896.012	20202
896.134	20073
896.255	20054
896.376	20088
896.498	20031
896.619	20172
896.74	20008
896.861	20130
896.982	20450
897.103	20518
897.224	20313
897.345	20180
897.466	20149
897.587	20229
897.708	20415
897.828	20324
897.949	20290
898.07	20195
898.19	20309
898.311	20347
898.431	20191
898.552	20267
898.672	20419
898.792	20385
898.913	20172
899.033	20256
899.153	20077
899.273	20024
899.393	20073
899.513	20065
899.633	20149
899.753	20092
899.873	19982
899.993	20035
900.113	19814
900.232	20020
900.352	19921
900.472	20012
900.591	19700
900.711	19833
900.83	19875
900.95	19906
901.069	19959
901.189	19647
901.308	19495
901.427	19487
901.546	19430
901.665	19422
901.784	19476
901.904	19301
902.023	19099
902.141	19023
902.26	18878
902.379	18947
902.498	18833
902.617	18973
902.735	19031
902.854	18890
902.973	18871
903.091	18642
903.21	18604
903.328	18681
903.446	18612
903.565	18536
903.683	18414
903.801	18213
903.919	18346
904.038	18270
904.156	18254
904.274	18338
904.392	18087
904.51	18159
904.627	18140
904.745	18201
904.863	18232
904.981	17992
905.098	17942
905.216	17786
905.334	17840
905.451	17870
905.569	17832
905.686	17874
905.803	17798
905.921	17680
906.038	17745
906.155	17714
906.272	17467
906.389	17535
906.506	17474
906.623	17322
906.74	17421
906.857	17353
906.974	17292
907.091	17417
907.208	17421
907.324	17471
907.441	17250
907.557	17121
907.674	17052
907.79	17121
907.907	17086
908.023	17121
908.139	17109
908.256	17064
908.372	16953
908.488	16927
908.604	16733
908.72	16790
908.836	16801
908.952	16782
909.068	16881
909.184	16866
909.3	16740
909.415	16930
909.531	16812
909.647	16611
909.762	16497
909.878	16508
909.993	16550
910.108	16561
910.224	16436
910.339	16443
910.454	16394
910.57	16287
910.685	16287
910.8	16519
910.915	16470
911.03	16333
911.145	16166
911.259	16032
911.374	16128
911.489	16051
911.604	16032
911.718	15861
911.833	15819
911.947	15724
912.062	15660
912.176	15793
912.291	15876
912.405	15816
912.519	15972
912.633	16025
912.748	15915
912.862	15781
912.976	15675
913.09	15564
913.204	15720
913.318	15823
913.431	15835
913.545	15736
913.659	15694
913.772	15682
913.886	15462
914	15473
914.113	15549
914.226	15690
914.34	15507
914.453	15351
914.566	15595
914.68	15378
914.793	15226
914.906	15214
915.019	15119
915.132	15112
915.245	15138
915.358	15123
915.47	15116
915.583	15047
915.696	15039
915.809	15237
915.921	15211
916.034	15112
916.146	14925
916.259	15013
916.371	15043
916.483	15055
916.595	14910
916.708	15036
916.82	14925
916.932	14864
917.044	14823
917.156	14880
917.268	14750
917.38	14716
917.491	14659
917.603	14716
917.715	14785
917.826	14845
917.938	14788
918.049	14564
918.161	14708
918.272	14868
918.384	14686
918.495	14701
918.606	14503
918.717	14423
918.828	14446
918.939	14492
919.05	14381
919.161	14434
919.272	14267
919.383	14385
919.494	14537
919.604	14705
919.715	14511
919.826	14370
919.936	14351
920.047	14469
920.157	14495
920.267	14590
920.378	14568
920.488	14366
920.598	14610
920.708	14750
920.818	14632
920.928	14522
921.038	14769
921.148	14686
921.258	14480
921.368	14313
921.477	14111
921.587	14172
921.697	13997
921.806	14103
921.916	14008
922.025	13947
922.134	13780
922.244	13742
922.353	13963
922.462	13772
922.571	13681
922.68	13525
922.789	13506
922.898	13407
923.007	13354
923.116	13552
923.224	13415
923.333	13350
923.442	13285
923.55	13270
923.659	13354
923.767	13388
923.876	13270
923.984	13316
924.092	13183
924.201	13194
924.309	13304
924.417	13164
924.525	13228
924.633	13110
924.741	13989
924.849	12966
924.956	13042
925.064	12939
925.172	12829
925.279	12970
925.387	12962
925.494	12882
925.602	12966
925.709	13008
925.816	12806
925.924	12795
926.031	12905
926.138	12768
926.245	12829
926.352	12829
926.459	12875
926.566	12840
926.673	12734
926.779	12681
926.886	12642
926.993	12414
927.099	12578
927.206	12384
927.312	12452
927.419	12639
927.525	12433
927.631	12464
927.737	12380
927.843	12258
927.95	12175
928.056	12258
928.162	12266
928.267	12296
928.373	12837
928.479	12323
928.585	12190
928.69	12228
928.796	12197
928.901	12144
929.007	12034
929.112	12125
929.218	12072
929.323	12022
929.428	12098
929.533	12205
929.638	11984
929.743	11992
929.848	12049
929.953	11908
930.058	11843
930.163	11737
930.267	11779
930.372	11851
930.477	11767
930.581	11859
930.685	11752
930.79	11581
930.894	11661
930.998	11539
931.103	11752
931.207	11368
931.311	11269
931.415	11166
931.519	10957
931.623	10915
