Data from test_V78500241_372.txt Node
Date: Fri Mar 25 15:12:27 CST 2022
User: usil
Spectrometer: V785-0024
Trigger mode: 0
Integration Time (sec): 4.000000E-1
Scans to average: 1
Nonlinearity correction enabled: false
Boxcar width: 0
Storing dark spectrum: false
XAxis mode: Wavelengths
Number of Pixels in Spectrum: 1024
>>>>>Begin Spectral Data<<<<<
801.071	27020
801.214	26967
801.356	26773
801.499	26743
801.641	26670
801.783	26530
801.926	26629
802.068	26545
802.211	26457
802.353	26400
802.496	26176
802.638	26092
802.78	26172
802.923	26225
803.065	26005
803.208	26096
803.35	26336
803.492	26282
803.635	26385
803.777	26294
803.919	26385
804.061	26621
804.204	26404
804.346	26126
804.488	26263
804.63	26298
804.773	26115
804.915	26229
805.057	26366
805.199	26301
805.341	26343
805.483	26358
805.626	26362
805.768	26370
805.91	26552
806.052	26339
806.194	26294
806.336	26560
806.478	26457
806.62	26450
806.762	26617
806.904	26617
807.046	26891
807.188	26853
807.33	26880
807.472	26982
807.614	26716
807.756	26765
807.898	26568
808.04	26495
808.182	26568
808.324	26648
808.465	26606
808.607	26659
808.749	26868
808.891	27032
809.033	27154
809.174	27017
809.316	26804
809.458	26895
809.6	27028
809.741	27176
809.883	27108
810.025	27272
810.166	27214
810.308	27222
810.45	27173
810.591	27230
810.733	27039
810.875	26960
811.016	26834
811.158	26948
811.299	27096
811.441	27222
811.582	27104
811.724	26986
811.865	26948
812.007	26940
812.148	26887
812.29	26998
812.431	27112
812.573	27195
812.714	27408
812.855	27606
812.997	27660
813.138	27694
813.279	27583
813.421	27542
813.562	27431
813.703	27332
813.845	27211
813.986	26956
814.127	26727
814.268	26617
814.41	26754
814.551	26533
814.692	26495
814.833	26526
814.974	26678
815.115	26549
815.256	26473
815.397	26530
815.539	26511
815.68	26332
815.821	26377
815.962	26309
816.103	26313
816.244	26317
816.385	26062
816.526	26206
816.666	25986
816.807	25959
816.948	25909
817.089	25936
817.23	25909
817.371	26008
817.512	25860
817.653	25860
817.793	25932
817.934	25898
818.075	25822
818.216	25887
818.356	25799
818.497	25818
818.638	25681
818.778	25506
818.919	25620
819.06	25635
819.2	25613
819.341	25830
819.481	25860
819.622	26035
819.762	26183
819.903	26073
820.043	25947
820.184	26031
820.324	25883
820.465	26035
820.605	26092
820.746	25963
820.886	25936
821.026	25928
821.167	25902
821.307	26069
821.447	25928
821.588	25750
821.728	25662
821.868	25491
822.008	25460
822.149	25411
822.289	25407
822.429	25088
822.569	25152
822.709	25065
822.849	24886
822.99	24886
823.13	24844
823.27	24669
823.41	24665
823.55	24498
823.69	24802
823.83	24623
823.97	24559
824.11	24361
824.25	24372
824.389	24448
824.529	24433
824.669	24555
824.809	24639
824.949	24585
825.089	24563
825.228	24566
825.368	24369
825.508	24281
825.648	24407
825.787	24403
825.927	24433
826.067	24296
826.206	24346
826.346	24319
826.485	24407
826.625	24224
826.765	24486
826.904	24483
827.044	24296
827.183	24201
827.323	24038
827.462	24068
827.601	24144
827.741	24087
827.88	24277
828.02	23855
828.159	24060
828.298	24091
828.437	24018
828.577	23958
828.716	24079
828.855	24106
828.994	23870
829.134	23824
829.273	23741
829.412	23824
829.551	23779
829.69	23794
829.829	23779
829.968	23878
830.107	23958
830.246	23859
830.385	23756
830.524	23695
830.663	23642
830.802	23531
830.941	23410
831.08	23368
831.219	23478
831.357	23581
831.496	23604
831.635	23337
831.774	23387
831.913	23334
832.051	23151
832.19	23204
832.329	23269
832.467	23174
832.606	23178
832.744	22961
832.883	23109
833.022	23003
833.16	23231
833.299	23265
833.437	23292
833.576	23288
833.714	23178
833.852	23189
833.991	23231
834.129	23311
834.267	23250
834.406	23056
834.544	23239
834.682	23311
834.821	23098
834.959	23337
835.097	23052
835.235	23227
835.373	23086
835.511	23086
835.65	23044
835.788	23044
835.926	22900
836.064	22869
836.202	22847
836.34	23071
836.478	23136
836.615	22938
836.753	23014
836.891	23147
837.029	23075
837.167	22957
837.305	22881
837.443	23003
837.58	22915
837.718	22934
837.856	22949
837.993	22911
838.131	22911
838.269	22771
838.406	22786
838.544	22774
838.681	22656
838.819	22603
838.956	22421
839.094	22432
839.231	22462
839.369	22538
839.506	22744
839.643	22519
839.781	22386
839.918	22268
840.055	22394
840.193	22344
840.33	22394
840.467	22291
840.604	22322
840.742	22565
840.879	22226
841.016	22379
841.153	22215
841.29	22516
841.427	22265
841.564	22363
841.701	22413
841.838	22291
841.975	22109
842.112	22200
842.249	22044
842.385	22036
842.522	22325
842.659	22109
842.796	22040
842.933	22029
843.069	22128
843.206	22021
843.343	22109
843.479	22124
843.616	22131
843.752	21937
843.889	21880
844.025	21975
844.162	21793
844.298	21949
844.435	21823
844.571	21869
844.708	21945
844.844	22082
844.98	21934
845.117	21934
845.253	21743
845.389	21561
845.525	21610
845.661	21705
845.798	21606
845.934	21622
846.07	21557
846.206	21587
846.342	21694
846.478	21675
846.614	21408
846.75	21252
846.886	21359
847.022	21447
847.158	21374
847.294	21386
847.429	21325
847.565	21230
847.701	21557
847.837	21055
847.972	21131
848.108	21222
848.244	21142
848.379	21024
848.515	20948
848.65	20941
848.786	20849
848.921	21028
849.057	21032
849.192	20971
849.328	20845
849.463	20925
849.598	20857
849.734	20861
849.869	20906
850.004	20625
850.14	20686
850.275	20724
850.41	20674
850.545	20613
850.68	20606
850.815	20765
850.95	20625
851.085	20739
851.22	20777
851.355	20693
851.49	20708
851.625	20636
851.76	20644
851.895	20655
852.03	20499
852.165	20750
852.299	20663
852.434	20750
852.569	20823
852.703	20602
852.838	20735
852.973	20861
853.107	20857
853.242	20746
853.376	20484
853.511	20339
853.645	20484
853.78	20670
853.914	20579
854.048	20526
854.183	20484
854.317	20579
854.451	20804
854.585	20476
854.72	20514
854.854	20552
854.988	20423
855.122	20526
855.256	20446
855.39	20522
855.524	20674
855.658	20484
855.792	20537
855.926	20503
856.06	20518
856.194	20564
856.327	20499
856.461	20446
856.595	20415
856.729	20366
856.862	20533
856.996	20522
857.13	20514
857.263	20579
857.397	20636
857.53	20518
857.664	20579
857.797	20526
857.931	20552
858.064	20484
858.197	20617
858.331	20526
858.464	20556
858.597	20351
858.731	20568
858.864	20385
858.997	20587
859.13	20469
859.263	20473
859.396	20640
859.529	20442
859.662	20549
859.795	20473
859.928	20442
860.061	20678
860.194	20811
860.327	20423
860.46	20446
860.592	20674
860.725	20568
860.858	20686
860.99	20530
861.123	20309
861.256	20419
861.388	20469
861.521	21108
861.653	20324
861.786	20183
861.918	20214
862.05	20362
862.183	20431
862.315	20396
862.447	20492
862.58	20339
862.712	20263
862.844	20164
862.976	20282
863.108	20233
863.24	20762
863.372	20157
863.504	20229
863.636	20119
863.768	20275
863.9	20180
864.032	20138
864.164	20294
864.296	20332
864.428	20305
864.559	20282
864.691	20267
864.823	20237
864.954	20256
865.086	20210
865.217	20286
865.349	20043
865.48	20210
865.612	20149
865.743	20267
865.875	20111
866.006	20115
866.137	20122
866.269	20180
866.4	20092
866.531	20092
866.662	19917
866.793	20054
866.924	20050
867.055	20100
867.186	20046
867.317	19986
867.448	20058
867.579	19963
867.71	20096
867.841	20035
867.972	20115
868.103	19989
868.233	20058
868.364	20043
868.495	20092
868.625	20278
868.756	20381
868.886	20259
869.017	20332
869.147	20381
869.278	20404
869.408	20320
869.539	20263
869.669	20423
869.799	20423
869.929	20396
870.06	20552
870.19	20659
870.32	20670
870.45	20686
870.58	20731
870.71	20788
870.84	20800
870.97	20670
871.1	20640
871.23	20891
871.36	20826
871.489	20830
871.619	20830
871.749	20956
871.879	20861
872.008	20998
872.138	20902
872.267	20872
872.397	20754
872.526	20720
872.656	20815
872.785	20788
872.915	21085
873.044	20956
873.173	20918
873.303	21005
873.432	20921
873.561	20994
873.69	20929
873.819	21005
873.948	21013
874.077	20933
874.206	20815
874.335	21058
874.464	21089
874.593	21180
874.722	21127
874.851	21279
874.979	21214
875.108	21245
875.237	21230
875.365	21176
875.494	21085
875.623	21317
875.751	21173
875.88	21233
876.008	21302
876.136	21458
876.265	21622
876.393	21747
876.521	21633
876.65	21629
876.778	21538
876.906	21538
877.034	21504
877.162	21435
877.29	21481
877.418	21469
877.546	21466
877.674	21542
877.802	21580
877.93	21523
878.058	21519
878.185	21275
878.313	21458
878.441	21454
878.568	21405
878.696	21515
878.824	21572
878.951	21679
879.079	21751
879.206	21941
879.333	21667
879.461	21466
879.588	21667
879.715	21713
879.842	21808
879.97	21408
880.097	21340
880.224	21306
880.351	21287
880.478	21363
880.605	21272
880.732	21477
880.859	21583
880.986	21317
881.112	21359
881.239	21222
881.366	21161
881.493	21058
881.619	20960
881.746	21005
881.872	20990
881.999	20845
882.125	20933
882.252	20918
882.378	20849
882.505	20982
882.631	20765
882.757	20640
882.883	20712
883.01	20587
883.136	20533
883.262	20579
883.388	20499
883.514	20735
883.64	20617
883.766	20568
883.892	20431
884.018	20400
884.143	20648
884.269	20777
884.395	20347
884.52	20225
884.646	20298
884.772	20263
884.897	20161
885.023	20404
885.148	20370
885.274	20446
885.399	20396
885.524	20309
885.65	20328
885.775	20282
885.9	20256
886.025	20362
886.15	20336
886.275	20206
886.4	20332
886.525	20240
886.65	20256
886.775	20149
886.9	20374
887.025	20484
887.149	20126
887.274	20161
887.399	20142
887.523	20035
887.648	19997
887.773	19967
887.897	20043
888.021	20092
888.146	20046
888.27	20126
888.395	20134
888.519	20191
888.643	20024
888.767	20122
888.891	19913
889.015	19868
889.139	19921
889.263	19917
889.387	19967
889.511	20088
889.635	20012
889.759	19803
889.883	19864
890.006	19951
890.13	20054
890.254	19765
890.377	19750
890.501	19655
890.624	19662
890.748	19723
890.871	19438
890.995	19373
891.118	19384
891.241	19559
891.364	19537
891.488	19571
891.611	19487
891.734	19476
891.857	19468
891.98	19430
892.103	19556
892.226	19468
892.349	19396
892.471	19320
892.594	19510
892.717	19434
892.839	19343
892.962	19453
893.085	19540
893.207	19407
893.33	19206
893.452	19324
893.575	19506
893.697	19365
893.819	19480
893.941	19548
894.064	19556
894.186	19354
894.308	19464
894.43	19506
894.552	19449
894.674	19506
894.796	19236
894.918	19373
895.04	19312
895.161	19445
895.283	19487
895.405	19415
895.526	19476
895.648	19411
895.769	19365
895.891	19346
896.012	19499
896.134	19373
896.255	19415
896.376	19263
896.498	19381
896.619	19362
896.74	19441
896.861	19472
896.982	19723
897.103	19738
897.224	19563
897.345	19594
897.466	19533
897.587	19677
897.708	19681
897.828	19731
897.949	19464
898.07	19499
898.19	19582
898.311	19681
898.431	19502
898.552	19620
898.672	19605
898.792	19780
898.913	19556
899.033	19575
899.153	19457
899.273	19453
899.393	19365
899.513	19396
899.633	19373
899.753	19362
899.873	19445
899.993	19388
900.113	19293
900.232	19403
900.352	19213
900.472	19240
900.591	19160
900.711	19129
900.83	19050
900.95	19129
901.069	19331
901.189	19053
901.308	18764
901.427	18719
901.546	18798
901.665	18722
901.784	18738
901.904	18631
902.023	18540
902.141	18350
902.26	18285
902.379	18372
902.498	18361
902.617	18330
902.735	18338
902.854	18174
902.973	18159
903.091	18011
903.21	17992
903.328	17931
903.446	17809
903.565	17847
903.683	17802
903.801	17695
903.919	17722
904.038	17657
904.156	17634
904.274	17649
904.392	17486
904.51	17589
904.627	17448
904.745	17566
904.863	17581
904.981	17334
905.098	17121
905.216	17143
905.334	17280
905.451	17307
905.569	17109
905.686	17337
905.803	17269
905.921	17075
906.038	17071
906.155	17041
906.272	16957
906.389	17018
906.506	16778
906.623	16812
906.74	16767
906.857	16519
906.974	16694
907.091	16744
907.208	16923
907.324	16656
907.441	16675
907.557	16538
907.674	16478
907.79	16455
907.907	16504
908.023	16504
908.139	16417
908.256	16375
908.372	16386
908.488	16325
908.604	16310
908.72	16135
908.836	16261
908.952	16166
909.068	16230
909.184	16246
909.3	16196
909.415	16128
909.531	16238
909.647	15945
909.762	15930
909.878	15953
909.993	15945
910.108	15892
910.224	15857
910.339	15880
910.454	15827
910.57	15732
910.685	15747
910.8	15861
910.915	15918
911.03	15762
911.145	15545
911.259	15568
911.374	15511
911.489	15416
911.604	15378
911.718	15283
911.833	15291
911.947	15154
912.062	15180
912.176	15268
912.291	15256
912.405	15169
912.519	15458
912.633	15363
912.748	15249
912.862	15241
912.976	15161
913.09	14998
913.204	15066
913.318	15119
913.431	15173
913.545	15199
913.659	15195
913.772	15188
913.886	14975
914	14967
914.113	15017
914.226	15009
914.34	15039
914.453	14796
914.566	14906
914.68	14845
914.793	14811
914.906	14701
915.019	14484
915.132	14423
915.245	14575
915.358	14514
915.47	14556
915.583	14503
915.696	14571
915.809	14636
915.921	14807
916.034	14473
916.146	14450
916.259	14454
916.371	14461
916.483	14419
916.595	14389
916.708	14366
916.82	14324
916.932	14294
917.044	14278
917.156	14404
917.268	14248
917.38	14298
917.491	14199
917.603	14195
917.715	14294
917.826	14355
917.938	14172
918.049	14092
918.161	14180
918.272	14381
918.384	14294
918.495	14157
918.606	13997
918.717	13864
918.828	14016
918.939	14069
919.05	13818
919.161	14069
919.272	13826
919.383	13814
919.494	13986
919.604	14142
919.715	14016
919.826	13833
919.936	13974
920.047	13940
920.157	13978
920.267	14126
920.378	13947
920.488	13970
920.598	14172
920.708	14286
920.818	14088
920.928	14134
921.038	14282
921.148	14237
921.258	13864
921.368	13803
921.477	13696
921.587	13677
921.697	13552
921.806	13685
921.916	13499
922.025	13468
922.134	13373
922.244	13312
922.353	13422
922.462	13346
922.571	13206
922.68	13019
922.789	13031
922.898	12989
923.007	12943
923.116	13084
923.224	13042
923.333	13027
923.442	12844
923.55	12890
923.659	12856
923.767	12958
923.876	12722
923.984	12913
924.092	12726
924.201	12901
924.309	12776
924.417	12806
924.525	12726
924.633	12688
924.741	13480
924.849	12490
924.956	12604
925.064	12475
925.172	12391
925.279	12429
925.387	12525
925.494	12433
925.602	12589
925.709	12559
925.816	12319
925.924	12399
926.031	12460
926.138	12395
926.245	12467
926.352	12292
926.459	12467
926.566	12391
926.673	12365
926.779	12220
926.886	12228
926.993	12152
927.099	12083
927.206	12030
927.312	11920
927.419	12026
927.525	12034
927.631	12098
927.737	11992
927.843	11893
927.95	11783
928.056	11931
928.162	11908
928.267	11939
928.373	12513
928.479	11912
928.585	11592
928.69	11843
928.796	11824
928.901	11733
929.007	11619
929.112	11722
929.218	11714
929.323	11634
929.428	11577
929.533	11642
929.638	11543
929.743	11615
929.848	11577
929.953	11611
930.058	11376
930.163	11307
930.267	11330
930.372	11406
930.477	11231
930.581	11516
930.685	11337
930.79	11159
930.894	11216
930.998	11193
931.103	11250
931.207	10949
931.311	10889
931.415	10786
931.519	10577
931.623	10550
