Data from test_V78500241_694.txt Node
Date: Fri Mar 25 15:14:41 CST 2022
User: usil
Spectrometer: V785-0024
Trigger mode: 0
Integration Time (sec): 4.000000E-1
Scans to average: 1
Nonlinearity correction enabled: false
Boxcar width: 0
Storing dark spectrum: false
XAxis mode: Wavelengths
Number of Pixels in Spectrum: 1024
>>>>>Begin Spectral Data<<<<<
801.071	28093
801.214	28101
801.356	27800
801.499	27876
801.641	27686
801.783	27686
801.926	27724
802.068	27625
802.211	27637
802.353	27504
802.496	27416
802.638	27310
802.78	27351
802.923	27291
803.065	27275
803.208	27298
803.35	27233
803.492	27549
803.635	27477
803.777	27378
803.919	27610
804.061	27994
804.204	27523
804.346	27572
804.488	27477
804.63	27549
804.773	27481
804.915	27610
805.057	27705
805.199	27500
805.341	27766
805.483	27724
805.626	27663
805.768	27427
805.91	27633
806.052	27641
806.194	27694
806.336	27797
806.478	27827
806.62	27625
806.762	27762
806.904	28074
807.046	28242
807.188	28029
807.33	28070
807.472	28234
807.614	28074
807.756	28192
807.898	27945
808.04	27789
808.182	27911
808.324	28032
808.465	27975
808.607	28223
808.749	28333
808.891	28375
809.033	28580
809.174	28481
809.316	28207
809.458	28367
809.6	28413
809.741	28554
809.883	28470
810.025	28660
810.166	28687
810.308	28607
810.45	28569
810.591	28626
810.733	28379
810.875	28257
811.016	28154
811.158	28268
811.299	28401
811.441	28512
811.582	28546
811.724	28329
811.865	28169
812.007	28287
812.148	28390
812.29	28363
812.431	28504
812.573	28767
812.714	28885
812.855	28934
812.997	29064
813.138	28995
813.279	28972
813.421	28987
813.562	28881
813.703	28675
813.845	28626
813.986	28299
814.127	28101
814.268	28021
814.41	28169
814.551	27960
814.692	28230
814.833	28093
814.974	27983
815.115	28116
815.256	28021
815.397	28017
815.539	27838
815.68	27960
815.821	27880
815.962	27861
816.103	27823
816.244	27709
816.385	27682
816.526	27648
816.666	27408
816.807	27420
816.948	27389
817.089	27538
817.23	27447
817.371	27355
817.512	27344
817.653	27389
817.793	27256
817.934	27374
818.075	27386
818.216	27473
818.356	27272
818.497	27332
818.638	27188
818.778	27298
818.919	27070
819.06	27142
819.2	27116
819.341	27370
819.481	27279
819.622	27633
819.762	27682
819.903	27564
820.043	27580
820.184	27462
820.324	27386
820.465	27526
820.605	27515
820.746	27504
820.886	27329
821.026	27374
821.167	27542
821.307	27481
821.447	27351
821.588	27310
821.728	27142
821.868	26971
822.008	26876
822.149	26921
822.289	26838
822.429	26495
822.569	26488
822.709	26427
822.849	26290
822.99	26244
823.13	26450
823.27	26317
823.41	26195
823.55	26153
823.69	26202
823.83	26183
823.97	26058
824.11	26069
824.25	26024
824.389	26065
824.529	26069
824.669	25986
824.809	26081
824.949	25928
825.089	26073
825.228	26073
825.368	25856
825.508	25811
825.648	25780
825.787	25837
825.927	26001
826.067	25738
826.206	25894
826.346	25894
826.485	25852
826.625	25845
826.765	25944
826.904	25841
827.044	25712
827.183	25601
827.323	25540
827.462	25708
827.601	25696
827.741	25571
827.88	25422
828.02	25529
828.159	25666
828.298	25533
828.437	25689
828.577	25544
828.716	25731
828.855	25575
828.994	25392
829.134	25263
829.273	25278
829.412	25312
829.551	25164
829.69	25266
829.829	25202
829.968	25358
830.107	25339
830.246	25312
830.385	25198
830.524	25179
830.663	25114
830.802	25053
830.941	24833
831.08	24840
831.219	24981
831.357	25008
831.496	25015
831.635	25012
831.774	24795
831.913	24700
832.051	24753
832.19	24639
832.329	24722
832.467	24722
832.606	24456
832.744	24448
832.883	24540
833.022	24566
833.16	24616
833.299	24608
833.437	24585
833.576	24601
833.714	24650
833.852	24707
833.991	24726
834.129	24776
834.267	24665
834.406	24574
834.544	24631
834.682	24639
834.821	24608
834.959	24814
835.097	24513
835.235	24719
835.373	24623
835.511	24654
835.65	24486
835.788	24414
835.926	24247
836.064	24315
836.202	24380
836.34	24528
836.478	24544
836.615	24422
836.753	24365
836.891	24532
837.029	24475
837.167	24315
837.305	24292
837.443	24448
837.58	24388
837.718	24350
837.856	24391
837.993	24243
838.131	24330
838.269	24083
838.406	24125
838.544	24034
838.681	23874
838.819	23912
838.956	23764
839.094	23851
839.231	23748
839.369	23855
839.506	24121
839.643	23961
839.781	23608
839.918	23570
840.055	23764
840.193	23714
840.33	23821
840.467	23783
840.604	23707
840.742	23939
840.879	23486
841.016	23604
841.153	23497
841.29	23893
841.427	23646
841.564	23775
841.701	23687
841.838	23710
841.975	23524
842.112	23512
842.249	23410
842.385	23429
842.522	23668
842.659	23410
842.796	23326
842.933	23455
843.069	23254
843.206	23315
843.343	23410
843.479	23535
843.616	23436
843.752	23223
843.889	23117
844.025	23448
844.162	23079
844.298	23334
844.435	23162
844.571	23250
844.708	23132
844.844	23311
844.98	23277
845.117	23246
845.253	23162
845.389	23067
845.525	23075
845.661	23083
845.798	22965
845.934	22896
846.07	22820
846.206	22923
846.342	22968
846.478	22869
846.614	22622
846.75	22615
846.886	22519
847.022	22649
847.158	22626
847.294	22580
847.429	22550
847.565	22641
847.701	22816
847.837	22363
847.972	22329
848.108	22459
848.244	22428
848.379	22276
848.515	22257
848.65	22234
848.786	22272
848.921	22291
849.057	22470
849.192	22318
849.328	22223
849.463	22185
849.598	22169
849.734	22105
849.869	22112
850.004	22021
850.14	22051
850.275	22063
850.41	22017
850.545	21918
850.68	21964
850.815	22021
850.95	21991
851.085	22135
851.22	22188
851.355	22055
851.49	21922
851.625	21960
851.76	21915
851.895	21873
852.03	21918
852.165	21873
852.299	21979
852.434	22013
852.569	21998
852.703	21949
852.838	22135
852.973	22112
853.107	22082
853.242	21922
853.376	21964
853.511	21625
853.645	21629
853.78	22048
853.914	21838
854.048	21785
854.183	21747
854.317	21804
854.451	22017
854.585	21831
854.72	21755
854.854	21918
854.988	21842
855.122	21835
855.256	21663
855.39	21808
855.524	21865
855.658	21698
855.792	21926
855.926	21831
856.06	21865
856.194	21797
856.327	21728
856.461	21835
856.595	21850
856.729	21831
856.862	21831
856.996	21762
857.13	21850
857.263	21869
857.397	21998
857.53	21854
857.664	21903
857.797	21907
857.931	21960
858.064	21774
858.197	21888
858.331	21789
858.464	21717
858.597	21766
858.731	21800
858.864	21937
858.997	21698
859.13	21808
859.263	21937
859.396	21797
859.529	21690
859.662	21861
859.795	21739
859.928	21762
860.061	21922
860.194	21975
860.327	21789
860.46	21747
860.592	22002
860.725	22021
860.858	21953
860.99	21842
861.123	21747
861.256	21819
861.388	21831
861.521	22755
861.653	21679
861.786	21606
861.918	21622
862.05	21789
862.183	21736
862.315	21732
862.447	21785
862.58	21686
862.712	21488
862.844	21428
862.976	21542
863.108	21511
863.24	21953
863.372	21439
863.504	21485
863.636	21507
863.768	21500
863.9	21534
864.032	21473
864.164	21473
864.296	21526
864.428	21614
864.559	21637
864.691	21542
864.823	21545
864.954	21519
865.086	21405
865.217	21374
865.349	21329
865.48	21431
865.612	21340
865.743	21561
865.875	21538
866.006	21275
866.137	21291
866.269	21340
866.4	21420
866.531	21313
866.662	21336
866.793	21264
866.924	21325
867.055	21447
867.186	21321
867.317	21298
867.448	21131
867.579	21336
867.71	21203
867.841	21298
867.972	21378
868.103	21408
868.233	21272
868.364	21397
868.495	21511
868.625	21523
868.756	21652
868.886	21473
869.017	21603
869.147	21679
869.278	21720
869.408	21530
869.539	21603
869.669	21603
869.799	21648
869.929	21804
870.06	21755
870.19	21831
870.32	21774
870.45	21937
870.58	21907
870.71	22051
870.84	22074
870.97	21975
871.1	22036
871.23	22124
871.36	22242
871.489	22055
871.619	22093
871.749	22215
871.879	22097
872.008	22303
872.138	22238
872.267	22181
872.397	21991
872.526	21979
872.656	22044
872.785	21956
872.915	22177
873.044	22230
873.173	22162
873.303	22154
873.432	22280
873.561	22424
873.69	22185
873.819	22261
873.948	22185
874.077	22188
874.206	22082
874.335	22207
874.464	22352
874.593	22379
874.722	22451
874.851	22611
874.979	22542
875.108	22409
875.237	22322
875.365	22287
875.494	22337
875.623	22447
875.751	22375
875.88	22402
876.008	22440
876.136	22615
876.265	22854
876.393	22854
876.521	22866
876.65	22850
876.778	22889
876.906	22691
877.034	22702
877.162	22771
877.29	22630
877.418	22755
877.546	22736
877.674	22744
877.802	22793
877.93	22812
878.058	22607
878.185	22538
878.313	22546
878.441	22683
878.568	22577
878.696	22679
878.824	22805
878.951	22850
879.079	23003
879.206	23113
879.333	22980
879.461	22793
879.588	22831
879.715	22877
879.842	23056
879.97	22790
880.097	22645
880.224	22618
880.351	22596
880.478	22542
880.605	22462
880.732	22489
880.859	22782
880.986	22755
881.112	22607
881.239	22356
881.366	22333
881.493	22230
881.619	22196
881.746	22097
881.872	22185
881.999	22135
882.125	22112
882.252	22082
882.378	22067
882.505	22192
882.631	22090
882.757	21876
882.883	22013
883.01	21846
883.136	21751
883.262	21732
883.388	21671
883.514	21876
883.64	21778
883.766	21679
883.892	21549
884.018	21705
884.143	21709
884.269	21762
884.395	21591
884.52	21424
884.646	21591
884.772	21351
884.897	21389
885.023	21587
885.148	21580
885.274	21599
885.399	21572
885.524	21443
885.65	21492
885.775	21580
885.9	21485
886.025	21500
886.15	21397
886.275	21393
886.4	21458
886.525	21511
886.65	21450
886.775	21336
886.9	21633
887.025	21675
887.149	21332
887.274	21283
887.399	21264
887.523	21260
887.648	21192
887.773	21211
887.897	21306
888.021	21173
888.146	21062
888.27	21321
888.395	21336
888.519	21275
888.643	21176
888.767	21241
888.891	21055
889.015	21013
889.139	21116
889.263	21009
889.387	21116
889.511	21245
889.635	21169
889.759	20910
889.883	21013
890.006	21089
890.13	21096
890.254	20925
890.377	21043
890.501	20906
890.624	20788
890.748	20758
890.871	20655
890.995	20575
891.118	20659
891.241	20629
891.364	20590
891.488	20773
891.611	20758
891.734	20552
891.857	20629
891.98	20564
892.103	20545
892.226	20632
892.349	20294
892.471	20400
892.594	20484
892.717	20514
892.839	20480
892.962	20476
893.085	20625
893.207	20442
893.33	20450
893.452	20476
893.575	20473
893.697	20393
893.819	20575
893.941	20678
894.064	20575
894.186	20434
894.308	20343
894.43	20450
894.552	20568
894.674	20568
894.796	20298
894.918	20377
895.04	20419
895.161	20514
895.283	20507
895.405	20526
895.526	20450
895.648	20484
895.769	20400
895.891	20701
896.012	20522
896.134	20556
896.255	20518
896.376	20457
896.498	20484
896.619	20514
896.74	20507
896.861	20625
896.982	20800
897.103	20857
897.224	20644
897.345	20651
897.466	20670
897.587	20716
897.708	20663
897.828	20640
897.949	20594
898.07	20678
898.19	20606
898.311	20777
898.431	20644
898.552	20617
898.672	20686
898.792	20674
898.913	20670
899.033	20640
899.153	20408
899.273	20385
899.393	20427
899.513	20404
899.633	20381
899.753	20434
899.873	20366
899.993	20381
900.113	20381
900.232	20404
900.352	20313
900.472	20153
900.591	20115
900.711	20320
900.83	20187
900.95	20282
901.069	20218
901.189	19997
901.308	19803
901.427	19719
901.546	19947
901.665	19799
901.784	19822
901.904	19578
902.023	19556
902.141	19324
902.26	19350
902.379	19343
902.498	19308
902.617	19221
902.735	19263
902.854	19209
902.973	19126
903.091	18932
903.21	18966
903.328	18909
903.446	18852
903.565	18833
903.683	18730
903.801	18589
903.919	18711
904.038	18791
904.156	18502
904.274	18654
904.392	18448
904.51	18467
904.627	18551
904.745	18456
904.863	18642
904.981	18350
905.098	18315
905.216	18159
905.334	18194
905.451	18228
905.569	18319
905.686	18182
905.803	18197
905.921	17969
906.038	18076
906.155	18079
906.272	17874
906.389	17965
906.506	17745
906.623	17775
906.74	17779
906.857	17585
906.974	17600
907.091	17786
907.208	17889
907.324	17859
907.441	17642
907.557	17501
907.674	17379
907.79	17512
907.907	17402
908.023	17387
908.139	17391
908.256	17429
908.372	17330
908.488	17284
908.604	17136
908.72	17204
908.836	17200
908.952	17056
909.068	17277
909.184	17204
909.3	17124
909.415	17098
909.531	17170
909.647	16927
909.762	16889
909.878	16885
909.993	16915
910.108	16824
910.224	16755
910.339	16679
910.454	16748
910.57	16702
910.685	16702
910.8	16790
910.915	16858
911.03	16668
911.145	16413
911.259	16398
911.374	16493
911.489	16390
911.604	16310
911.718	16154
911.833	16207
911.947	16135
912.062	16074
912.176	16192
912.291	16150
912.405	16143
912.519	16242
912.633	16242
912.748	16242
912.862	16192
912.976	16116
913.09	15972
913.204	15953
913.318	15915
913.431	16105
913.545	16063
913.659	16135
913.772	15903
913.886	15907
914	15797
914.113	15865
914.226	15915
914.34	15759
914.453	15705
914.566	15865
914.68	15663
914.793	15660
914.906	15428
915.019	15428
915.132	15287
915.245	15412
915.358	15428
915.47	15450
915.583	15382
915.696	15363
915.809	15507
915.921	15507
916.034	15348
916.146	15264
916.259	15268
916.371	15382
916.483	15287
916.595	15272
916.708	15119
916.82	15291
916.932	15074
917.044	15100
917.156	15161
917.268	15062
917.38	14982
917.491	14929
917.603	15043
917.715	15127
917.826	15157
917.938	14941
918.049	14960
918.161	14948
918.272	15138
918.384	15089
918.495	15005
918.606	14792
918.717	14674
918.828	14807
918.939	14864
919.05	14712
919.161	14670
919.272	14549
919.383	14663
919.494	14838
919.604	15005
919.715	14800
919.826	14636
919.936	14731
920.047	14788
920.157	14697
920.267	14868
920.378	14727
920.488	14682
920.598	14910
920.708	15081
920.818	14845
920.928	14792
921.038	15039
921.148	14986
921.258	14651
921.368	14606
921.477	14507
921.587	14571
921.697	14343
921.806	14442
921.916	14336
922.025	14145
922.134	14077
922.244	13997
922.353	14084
922.462	13894
922.571	13917
922.68	13791
922.789	13689
922.898	13666
923.007	13757
923.116	13849
923.224	13799
923.333	13769
923.442	13647
923.55	13567
923.659	13590
923.767	13609
923.876	13567
923.984	13616
924.092	13460
924.201	13556
924.309	13495
924.417	13468
924.525	13415
924.633	13422
924.741	14240
924.849	13114
924.956	13384
925.064	13255
925.172	13149
925.279	13293
925.387	13217
925.494	13175
925.602	13297
925.709	13122
925.816	13126
925.924	13133
926.031	13202
926.138	13103
926.245	13122
926.352	13072
926.459	13126
926.566	13171
926.673	13076
926.779	12909
926.886	12901
926.993	12768
927.099	12719
927.206	12760
927.312	12753
927.419	12719
927.525	12745
927.631	12741
927.737	12604
927.843	12623
927.95	12456
928.056	12513
928.162	12536
928.267	12532
928.373	13137
928.479	12574
928.585	12369
928.69	12517
928.796	12460
928.901	12445
929.007	12194
929.112	12399
929.218	12342
929.323	12300
929.428	12186
929.533	12357
929.638	12243
929.743	12205
929.848	12315
929.953	12296
930.058	12110
930.163	11923
930.267	11958
930.372	12114
930.477	11912
930.581	12083
930.685	12022
930.79	11851
930.894	11821
930.998	11817
931.103	11950
931.207	11634
931.311	11539
931.415	11360
931.519	11227
931.623	11189
