Data from test_V78500241_1448.txt Node
Date: Fri Mar 25 15:19:56 CST 2022
User: usil
Spectrometer: V785-0024
Trigger mode: 0
Integration Time (sec): 4.000000E-1
Scans to average: 1
Nonlinearity correction enabled: false
Boxcar width: 0
Storing dark spectrum: false
XAxis mode: Wavelengths
Number of Pixels in Spectrum: 1024
>>>>>Begin Spectral Data<<<<<
801.071	28234
801.214	28166
801.356	27991
801.499	28063
801.641	27823
801.783	27850
801.926	27842
802.068	27732
802.211	27732
802.353	27629
802.496	27595
802.638	27485
802.78	27485
802.923	27397
803.065	27325
803.208	27351
803.35	27614
803.492	27652
803.635	27785
803.777	27614
803.919	27682
804.061	28006
804.204	27759
804.346	27667
804.488	27485
804.63	27747
804.773	27629
804.915	27720
805.057	27800
805.199	27770
805.341	27816
805.483	27934
805.626	27960
805.768	27713
805.91	27705
806.052	27876
806.194	27778
806.336	28055
806.478	27842
806.62	27880
806.762	27903
806.904	28181
807.046	28348
807.188	28287
807.33	28310
807.472	28287
807.614	28192
807.756	28291
807.898	28025
808.04	28006
808.182	28032
808.324	28143
808.465	28405
808.607	28405
808.749	28485
808.891	28637
809.033	28634
809.174	28527
809.316	28538
809.458	28386
809.6	28466
809.741	28729
809.883	28702
810.025	28790
810.166	28771
810.308	28873
810.45	28854
810.591	28744
810.733	28554
810.875	28531
811.016	28493
811.158	28310
811.299	28474
811.441	28736
811.582	28683
811.724	28535
811.865	28512
812.007	28599
812.148	28561
812.29	28542
812.431	28831
812.573	28991
812.714	28828
812.855	28980
812.997	29094
813.138	29250
813.279	29239
813.421	29132
813.562	28995
813.703	28847
813.845	28805
813.986	28500
814.127	28512
814.268	28211
814.41	28310
814.551	28116
814.692	28428
814.833	28181
814.974	28284
815.115	28246
815.256	28147
815.397	28109
815.539	28074
815.68	28097
815.821	27941
815.962	27975
816.103	27945
816.244	27953
816.385	27770
816.526	27831
816.666	27656
816.807	27572
816.948	27606
817.089	27538
817.23	27564
817.371	27549
817.512	27572
817.653	27663
817.793	27382
817.934	27488
818.075	27652
818.216	27523
818.356	27473
818.497	27427
818.638	27310
818.778	27192
818.919	27363
819.06	27481
819.2	27450
819.341	27641
819.481	27530
819.622	27717
819.762	27846
819.903	27717
820.043	27797
820.184	27595
820.324	27625
820.465	27576
820.605	27629
820.746	27675
820.886	27534
821.026	27656
821.167	27603
821.307	27671
821.447	27496
821.588	27367
821.728	27302
821.868	27112
822.008	26982
822.149	26937
822.289	26979
822.429	26743
822.569	26746
822.709	26686
822.849	26476
822.99	26587
823.13	26457
823.27	26381
823.41	26275
823.55	26199
823.69	26256
823.83	26202
823.97	26336
824.11	26237
824.25	26202
824.389	26119
824.529	26339
824.669	26271
824.809	26317
824.949	26176
825.089	26278
825.228	26153
825.368	26039
825.508	26157
825.648	26039
825.787	26134
825.927	26278
826.067	25978
826.206	26058
826.346	26062
826.485	26069
826.625	26176
826.765	26229
826.904	26130
827.044	25757
827.183	25841
827.323	25814
827.462	25860
827.601	25887
827.741	25868
827.88	25776
828.02	25632
828.159	25909
828.298	25738
828.437	25784
828.577	25693
828.716	25868
828.855	25666
828.994	25556
829.134	25632
829.273	25506
829.412	25514
829.551	25415
829.69	25434
829.829	25460
829.968	25499
830.107	25457
830.246	25514
830.385	25343
830.524	25225
830.663	25297
830.802	25156
830.941	25114
831.08	24973
831.219	25133
831.357	25274
831.496	25320
831.635	25133
831.774	25095
831.913	25065
832.051	24901
832.19	24928
832.329	24795
832.467	24856
832.606	24776
832.744	24779
832.883	24722
833.022	24696
833.16	24760
833.299	24875
833.437	24871
833.576	24779
833.714	24913
833.852	24878
833.991	24852
834.129	24989
834.267	24920
834.406	24730
834.544	24897
834.682	24684
834.821	24787
834.959	24840
835.097	24726
835.235	24715
835.373	24703
835.511	24871
835.65	24665
835.788	24559
835.926	24509
836.064	24323
836.202	24547
836.34	24665
836.478	24646
836.615	24700
836.753	24650
836.891	24623
837.029	24616
837.167	24517
837.305	24490
837.443	24597
837.58	24521
837.718	24536
837.856	24505
837.993	24391
838.131	24410
838.269	24350
838.406	24277
838.544	24251
838.681	24182
838.819	24018
838.956	23961
839.094	23897
839.231	23999
839.369	24076
839.506	24201
839.643	24232
839.781	23958
839.918	23897
840.055	23950
840.193	23973
840.33	23775
840.467	23836
840.604	23866
840.742	24018
840.879	23611
841.016	23752
841.153	23665
841.29	23889
841.427	23775
841.564	23809
841.701	23992
841.838	23589
841.975	23646
842.112	23619
842.249	23718
842.385	23558
842.522	23817
842.659	23661
842.796	23577
842.933	23478
843.069	23376
843.206	23520
843.343	23623
843.479	23562
843.616	23520
843.752	23280
843.889	23383
844.025	23440
844.162	23345
844.298	23406
844.435	23383
844.571	23292
844.708	23250
844.844	23516
844.98	23467
845.117	23341
845.253	23265
845.389	23265
845.525	23322
845.661	23174
845.798	23178
845.934	23178
846.07	23086
846.206	23132
846.342	23197
846.478	22919
846.614	22957
846.75	22759
846.886	22759
847.022	22927
847.158	22816
847.294	22858
847.429	22911
847.565	22820
847.701	23079
847.837	22649
847.972	22508
848.108	22683
848.244	22599
848.379	22478
848.515	22394
848.65	22367
848.786	22474
848.921	22379
849.057	22436
849.192	22611
849.328	22493
849.463	22386
849.598	22287
849.734	22363
849.869	22287
850.004	22067
850.14	22192
850.275	22150
850.41	21949
850.545	22032
850.68	22139
850.815	22162
850.95	22131
851.085	22337
851.22	22367
851.355	22139
851.49	22097
851.625	22021
851.76	22139
851.895	22112
852.03	22093
852.165	22109
852.299	22185
852.434	22207
852.569	22162
852.703	22067
852.838	22246
852.973	22204
853.107	22196
853.242	22063
853.376	21979
853.511	21812
853.645	21949
853.78	22013
853.914	22048
854.048	22090
854.183	21941
854.317	21956
854.451	22078
854.585	22013
854.72	22048
854.854	22051
854.988	21865
855.122	21979
855.256	21880
855.39	21968
855.524	21987
855.658	21945
855.792	22029
855.926	21956
856.06	22025
856.194	22063
856.327	21972
856.461	21739
856.595	21926
856.729	21956
856.862	22067
856.996	21930
857.13	21880
857.263	22207
857.397	22090
857.53	21926
857.664	22010
857.797	22059
857.931	22128
858.064	21975
858.197	22025
858.331	21930
858.464	21861
858.597	21804
858.731	21991
858.864	21915
858.997	21873
859.13	21960
859.263	21876
859.396	21934
859.529	21873
859.662	21926
859.795	21930
859.928	21945
860.061	22059
860.194	22173
860.327	21979
860.46	21937
860.592	22021
860.725	22006
860.858	22116
860.99	21998
861.123	21903
861.256	21907
861.388	21979
861.521	22470
861.653	21808
861.786	21648
861.918	21835
862.05	21846
862.183	21861
862.315	21991
862.447	22029
862.58	21888
862.712	21595
862.844	21633
862.976	21701
863.108	21644
863.24	22086
863.372	21629
863.504	21671
863.636	21720
863.768	21644
863.9	21660
864.032	21587
864.164	21625
864.296	21530
864.428	21831
864.559	21717
864.691	21743
864.823	21717
864.954	21648
865.086	21572
865.217	21641
865.349	21431
865.48	21530
865.612	21572
865.743	21667
865.875	21530
866.006	21538
866.137	21603
866.269	21515
866.4	21481
866.531	21469
866.662	21408
866.793	21492
866.924	21523
867.055	21477
867.186	21466
867.317	21317
867.448	21469
867.579	21462
867.71	21344
867.841	21405
867.972	21401
868.103	21485
868.233	21412
868.364	21462
868.495	21568
868.625	21660
868.756	21907
868.886	21511
869.017	21732
869.147	21774
869.278	21865
869.408	21686
869.539	21610
869.669	21804
869.799	21812
869.929	21827
870.06	21800
870.19	22059
870.32	21918
870.45	22147
870.58	22135
870.71	22200
870.84	22147
870.97	22109
871.1	22124
871.23	22280
871.36	22382
871.489	22223
871.619	22344
871.749	22265
871.879	22455
872.008	22402
872.138	22371
872.267	22398
872.397	22177
872.526	22147
872.656	22177
872.785	22192
872.915	22371
873.044	22394
873.173	22333
873.303	22462
873.432	22424
873.561	22287
873.69	22337
873.819	22337
873.948	22462
874.077	22333
874.206	22268
874.335	22268
874.464	22451
874.593	22481
874.722	22394
874.851	22596
874.979	22512
875.108	22493
875.237	22421
875.365	22519
875.494	22546
875.623	22516
875.751	22527
875.88	22592
876.008	22790
876.136	22706
876.265	22866
876.393	23044
876.521	22999
876.65	22908
876.778	22843
876.906	22908
877.034	22953
877.162	22919
877.29	22923
877.418	22953
877.546	22934
877.674	22896
877.802	22889
877.93	22896
878.058	22805
878.185	22725
878.313	22793
878.441	22752
878.568	22672
878.696	22778
878.824	22885
878.951	22854
879.079	22980
879.206	23227
879.333	23071
879.461	22953
879.588	23060
879.715	23052
879.842	23136
879.97	23010
880.097	22679
880.224	22660
880.351	22710
880.478	22740
880.605	22637
880.732	22649
880.859	22949
880.986	22748
881.112	22698
881.239	22698
881.366	22421
881.493	22379
881.619	22284
881.746	22211
881.872	22177
881.999	22192
882.125	22188
882.252	22211
882.378	22219
882.505	22379
882.631	22090
882.757	21968
882.883	21975
883.01	21918
883.136	21922
883.262	21835
883.388	21736
883.514	21823
883.64	21907
883.766	21850
883.892	21679
884.018	21724
884.143	21854
884.269	21934
884.395	21614
884.52	21428
884.646	21690
884.772	21504
884.897	21378
885.023	21610
885.148	21755
885.274	21644
885.399	21660
885.524	21564
885.65	21454
885.775	21561
885.9	21488
886.025	21625
886.15	21644
886.275	21553
886.4	21447
886.525	21492
886.65	21439
886.775	21416
886.9	21694
887.025	21724
887.149	21488
887.274	21329
887.399	21321
887.523	21382
887.648	21359
887.773	21306
887.897	21367
888.021	21378
888.146	21363
888.27	21481
888.395	21481
888.519	21389
888.643	21355
888.767	21275
888.891	21302
889.015	21150
889.139	21119
889.263	21214
889.387	21252
889.511	21302
889.635	21150
889.759	21077
889.883	21150
890.006	21157
890.13	21207
890.254	21028
890.377	21096
890.501	20834
890.624	20750
890.748	20891
890.871	20758
890.995	20629
891.118	20667
891.241	20731
891.364	20609
891.488	20796
891.611	20693
891.734	20697
891.857	20724
891.98	20644
892.103	20708
892.226	20590
892.349	20514
892.471	20488
892.594	20659
892.717	20625
892.839	20598
892.962	20659
893.085	20583
893.207	20511
893.33	20412
893.452	20530
893.575	20594
893.697	20587
893.819	20724
893.941	20842
894.064	20807
894.186	20454
894.308	20461
894.43	20682
894.552	20754
894.674	20629
894.796	20526
894.918	20522
895.04	20522
895.161	20575
895.283	20682
895.405	20518
895.526	20621
895.648	20598
895.769	20522
895.891	20518
896.012	20727
896.134	20613
896.255	20640
896.376	20537
896.498	20545
896.619	20670
896.74	20552
896.861	20644
896.982	20929
897.103	20979
897.224	20815
897.345	20842
897.466	20659
897.587	20773
897.708	20895
897.828	20800
897.949	20788
898.07	20564
898.19	20716
898.311	20826
898.431	20678
898.552	20819
898.672	20792
898.792	20853
898.913	20705
899.033	20594
899.153	20663
899.273	20484
899.393	20583
899.513	20625
899.633	20689
899.753	20537
899.873	20503
899.993	20629
900.113	20450
900.232	20484
900.352	20442
900.472	20431
900.591	20252
900.711	20320
900.83	20206
900.95	20313
901.069	20336
901.189	20221
901.308	19902
901.427	19860
901.546	19989
901.665	19860
901.784	19890
901.904	19738
902.023	19506
902.141	19316
902.26	19533
902.379	19499
902.498	19312
902.617	19270
902.735	19430
902.854	19384
902.973	19285
903.091	19038
903.21	19141
903.328	18977
903.446	18985
903.565	18939
903.683	18840
903.801	18757
903.919	18810
904.038	18764
904.156	18696
904.274	18574
904.392	18582
904.51	18544
904.627	18582
904.745	18658
904.863	18673
904.981	18426
905.098	18311
905.216	18342
905.334	18372
905.451	18277
905.569	18277
905.686	18311
905.803	18296
905.921	18121
906.038	18224
906.155	18022
906.272	17996
906.389	17996
906.506	17847
906.623	17745
906.74	17760
906.857	17798
906.974	17714
907.091	17931
907.208	17893
907.324	17760
907.441	17627
907.557	17581
907.674	17524
907.79	17463
907.907	17478
908.023	17486
908.139	17429
908.256	17448
908.372	17398
908.488	17318
908.604	17322
908.72	17326
908.836	17200
908.952	17296
909.068	17277
909.184	17345
909.3	17151
909.415	17242
909.531	17178
909.647	17025
909.762	16980
909.878	16847
909.993	16965
910.108	16984
910.224	16949
910.339	16904
910.454	16843
910.57	16797
910.685	16683
910.8	16999
910.915	16919
911.03	16698
911.145	16558
911.259	16478
911.374	16546
911.489	16470
911.604	16466
911.718	16329
911.833	16367
911.947	16135
912.062	16055
912.176	16249
912.291	16299
912.405	16295
912.519	16337
912.633	16421
912.748	16253
912.862	16295
912.976	16120
913.09	15972
913.204	16074
913.318	16097
913.431	16253
913.545	16116
913.659	16112
913.772	15987
913.886	15968
914	15968
914.113	15861
914.226	15968
914.34	15899
914.453	15732
914.566	15922
914.68	15835
914.793	15823
914.906	15500
915.019	15485
915.132	15355
915.245	15458
915.358	15618
915.47	15492
915.583	15431
915.696	15466
915.809	15568
915.921	15534
916.034	15439
916.146	15355
916.259	15291
916.371	15473
916.483	15450
916.595	15260
916.708	15298
916.82	15306
916.932	15272
917.044	15192
917.156	15275
917.268	15047
917.38	15127
917.491	15150
917.603	15055
917.715	15207
917.826	15104
917.938	15051
918.049	14933
918.161	15036
918.272	15165
918.384	15222
918.495	15116
918.606	14838
918.717	14842
918.828	14876
918.939	14941
919.05	14754
919.161	14880
919.272	14758
919.383	14697
919.494	14872
919.604	14986
919.715	14853
919.826	14792
919.936	14857
920.047	14853
920.157	14811
920.267	14929
920.378	14769
920.488	14746
920.598	14941
920.708	15047
920.818	14823
920.928	14914
921.038	15043
921.148	15005
921.258	14678
921.368	14602
921.477	14526
921.587	14575
921.697	14473
921.806	14625
921.916	14408
922.025	14271
922.134	14161
922.244	14096
922.353	14126
922.462	14005
922.571	13959
922.68	13845
922.789	13818
922.898	13841
923.007	13784
923.116	13849
923.224	13742
923.333	13772
923.442	13712
923.55	13639
923.659	13636
923.767	13719
923.876	13590
923.984	13700
924.092	13556
924.201	13594
924.309	13540
924.417	13480
924.525	13449
924.633	13403
924.741	14180
924.849	13304
924.956	13426
925.064	13285
925.172	13251
925.279	13187
925.387	13232
925.494	13175
925.602	13293
925.709	13354
925.816	13118
925.924	13152
926.031	13282
926.138	13206
926.245	13168
926.352	13042
926.459	13145
926.566	13221
926.673	13057
926.779	12954
926.886	12886
926.993	12753
927.099	12722
927.206	12707
927.312	12734
927.419	12821
927.525	12719
927.631	12787
927.737	12620
927.843	12646
927.95	12460
928.056	12528
928.162	12631
928.267	12623
928.373	13080
928.479	12635
928.585	12426
928.69	12551
928.796	12585
928.901	12528
929.007	12338
929.112	12460
929.218	12369
929.323	12315
929.428	12197
929.533	12418
929.638	12247
929.743	12304
929.848	12372
929.953	12224
930.058	12178
930.163	11973
930.267	12053
930.372	12079
930.477	11965
930.581	12079
930.685	11996
930.79	11882
930.894	11866
930.998	11904
931.103	11920
931.207	11668
931.311	11539
931.415	11581
931.519	11345
931.623	11216
