Data from test_V78500241_1310.txt Node
Date: Fri Mar 25 15:18:58 CST 2022
User: usil
Spectrometer: V785-0024
Trigger mode: 0
Integration Time (sec): 4.000000E-1
Scans to average: 1
Nonlinearity correction enabled: false
Boxcar width: 0
Storing dark spectrum: false
XAxis mode: Wavelengths
Number of Pixels in Spectrum: 1024
>>>>>Begin Spectral Data<<<<<
801.071	27956
801.214	27892
801.356	27694
801.499	27652
801.641	27568
801.783	27595
801.926	27583
802.068	27485
802.211	27386
802.353	27439
802.496	27203
802.638	27211
802.78	27195
802.923	27218
803.065	26971
803.208	27138
803.35	27313
803.492	27241
803.635	27351
803.777	27237
803.919	27355
804.061	27648
804.204	27492
804.346	27488
804.488	27226
804.63	27370
804.773	27268
804.915	27412
805.057	27382
805.199	27302
805.341	27363
805.483	27496
805.626	27564
805.768	27321
805.91	27412
806.052	27469
806.194	27515
806.336	27637
806.478	27492
806.62	27534
806.762	27580
806.904	27682
807.046	28090
807.188	27892
807.33	27960
807.472	27770
807.614	27972
807.756	27892
807.898	27732
808.04	27743
808.182	27892
808.324	27751
808.465	27857
808.607	28059
808.749	28109
808.891	28139
809.033	28341
809.174	28188
809.316	28074
809.458	28131
809.6	28158
809.741	28188
809.883	28268
810.025	28401
810.166	28466
810.308	28626
810.45	28451
810.591	28341
810.733	28223
810.875	28169
811.016	28105
811.158	28048
811.299	28246
811.441	28356
811.582	28200
811.724	28299
811.865	28116
812.007	28185
812.148	28093
812.29	28128
812.431	28246
812.573	28580
812.714	28485
812.855	28668
812.997	28809
813.138	28919
813.279	28805
813.421	28679
813.562	28557
813.703	28523
813.845	28295
813.986	28051
814.127	28059
814.268	27854
814.41	27812
814.551	27888
814.692	27880
814.833	27926
814.974	27823
815.115	27934
815.256	27728
815.397	27720
815.539	27690
815.68	27766
815.821	27603
815.962	27583
816.103	27682
816.244	27587
816.385	27435
816.526	27511
816.666	27336
816.807	27203
816.948	27310
817.089	27211
817.23	27195
817.371	27214
817.512	27173
817.653	27245
817.793	27237
817.934	27119
818.075	27226
818.216	27169
818.356	27207
818.497	26940
818.638	26887
818.778	26861
818.919	26925
819.06	27089
819.2	27005
819.341	27077
819.481	27116
819.622	27412
819.762	27435
819.903	27454
820.043	27370
820.184	27165
820.324	27291
820.465	27283
820.605	27192
820.746	27252
820.886	27272
821.026	27291
821.167	27146
821.307	27378
821.447	27302
821.588	27051
821.728	26933
821.868	26746
822.008	26758
822.149	26697
822.289	26625
822.429	26298
822.569	26298
822.709	26313
822.849	26180
822.99	26126
823.13	26180
823.27	26016
823.41	25913
823.55	25883
823.69	25894
823.83	26031
823.97	25894
824.11	25685
824.25	25784
824.389	25822
824.529	25868
824.669	25871
824.809	26008
824.949	25909
825.089	25864
825.228	25871
825.368	25708
825.508	25746
825.648	25643
825.787	25727
825.927	25719
826.067	25597
826.206	25575
826.346	25601
826.485	25765
826.625	25696
826.765	25742
826.904	25677
827.044	25491
827.183	25453
827.323	25362
827.462	25411
827.601	25343
827.741	25304
827.88	25301
828.02	25358
828.159	25316
828.298	25301
828.437	25354
828.577	25343
828.716	25472
828.855	25293
828.994	25031
829.134	25103
829.273	25175
829.412	25103
829.551	25095
829.69	25114
829.829	25095
829.968	25099
830.107	25012
830.246	25164
830.385	24992
830.524	24924
830.663	24798
830.802	24840
830.941	24688
831.08	24574
831.219	24715
831.357	24688
831.496	24817
831.635	24749
831.774	24650
831.913	24452
832.051	24467
832.19	24490
832.329	24448
832.467	24338
832.606	24350
832.744	24300
832.883	24380
833.022	24228
833.16	24372
833.299	24403
833.437	24338
833.576	24452
833.714	24399
833.852	24334
833.991	24452
834.129	24620
834.267	24460
834.406	24380
834.544	24505
834.682	24517
834.821	24365
834.959	24589
835.097	24285
835.235	24460
835.373	24315
835.511	24334
835.65	24258
835.788	24292
835.926	24076
836.064	24213
836.202	24148
836.34	24273
836.478	24429
836.615	24266
836.753	24205
836.891	24258
837.029	24346
837.167	24095
837.305	24171
837.443	24098
837.58	24030
837.718	24079
837.856	24148
837.993	24038
838.131	24022
838.269	24038
838.406	24007
838.544	23931
838.681	23813
838.819	23718
838.956	23577
839.094	23585
839.231	23608
839.369	23726
839.506	23946
839.643	23771
839.781	23619
839.918	23501
840.055	23360
840.193	23482
840.33	23551
840.467	23528
840.604	23474
840.742	23691
840.879	23337
841.016	23345
841.153	23406
841.29	23570
841.427	23433
841.564	23505
841.701	23402
841.838	23307
841.975	23277
842.112	23200
842.249	23341
842.385	23170
842.522	23573
842.659	23284
842.796	23105
842.933	23223
843.069	23216
843.206	23208
843.343	23307
843.479	23330
843.616	23200
843.752	23102
843.889	23075
844.025	23128
844.162	23010
844.298	23117
844.435	23029
844.571	23010
844.708	23029
844.844	23147
844.98	23155
845.117	23140
845.253	23014
845.389	22923
845.525	22946
845.661	22881
845.798	22752
845.934	22843
846.07	22740
846.206	22733
846.342	22972
846.478	22687
846.614	22478
846.75	22443
846.886	22481
847.022	22630
847.158	22577
847.294	22649
847.429	22531
847.565	22523
847.701	22691
847.837	22242
847.972	22261
848.108	22318
848.244	22188
848.379	22192
848.515	22105
848.65	22017
848.786	22143
848.921	22025
849.057	22169
849.192	22147
849.328	22124
849.463	21987
849.598	22006
849.734	21865
849.869	21816
850.004	21682
850.14	21884
850.275	21835
850.41	21808
850.545	21850
850.68	21827
850.815	21911
850.95	21701
851.085	22090
851.22	21911
851.355	21937
851.49	21865
851.625	21648
851.76	21701
851.895	21755
852.03	21698
852.165	21743
852.299	21945
852.434	21819
852.569	21926
852.703	21873
852.838	21812
852.973	21827
853.107	21903
853.242	21770
853.376	21618
853.511	21561
853.645	21507
853.78	21660
853.914	21736
854.048	21618
854.183	21519
854.317	21610
854.451	21873
854.585	21732
854.72	21656
854.854	21583
854.988	21629
855.122	21462
855.256	21473
855.39	21644
855.524	21652
855.658	21660
855.792	21690
855.926	21713
856.06	21751
856.194	21694
856.327	21549
856.461	21572
856.595	21561
856.729	21671
856.862	21743
856.996	21610
857.13	21580
857.263	21781
857.397	21648
857.53	21701
857.664	21679
857.797	21720
857.931	21945
858.064	21732
858.197	21743
858.331	21625
858.464	21553
858.597	21580
858.731	21523
858.864	21477
858.997	21637
859.13	21629
859.263	21682
859.396	21652
859.529	21652
859.662	21641
859.795	21606
859.928	21641
860.061	21717
860.194	21888
860.327	21759
860.46	21694
860.592	21781
860.725	21709
860.858	21819
860.99	21774
861.123	21648
861.256	21557
861.388	21618
861.521	22299
861.653	21534
861.786	21386
861.918	21405
862.05	21515
862.183	21572
862.315	21507
862.447	21614
862.58	21599
862.712	21424
862.844	21340
862.976	21447
863.108	21374
863.24	21755
863.372	21405
863.504	21344
863.636	21256
863.768	21363
863.9	21382
864.032	21428
864.164	21192
864.296	21454
864.428	21408
864.559	21268
864.691	21367
864.823	21488
864.954	21355
865.086	21294
865.217	21325
865.349	21157
865.48	21218
865.612	21310
865.743	21283
865.875	21291
866.006	21230
866.137	21211
866.269	21245
866.4	21173
866.531	21222
866.662	21096
866.793	21199
866.924	21173
867.055	21154
867.186	21131
867.317	21154
867.448	20971
867.579	21127
867.71	21077
867.841	21047
867.972	21207
868.103	21195
868.233	21138
868.364	21051
868.495	21283
868.625	21370
868.756	21587
868.886	21355
869.017	21435
869.147	21454
869.278	21530
869.408	21511
869.539	21473
869.669	21492
869.799	21424
869.929	21500
870.06	21496
870.19	21720
870.32	21701
870.45	21622
870.58	21736
870.71	21899
870.84	21835
870.97	21804
871.1	21861
871.23	22029
871.36	22006
871.489	21869
871.619	21975
871.749	22021
871.879	21972
872.008	22013
872.138	21994
872.267	22044
872.397	21918
872.526	21888
872.656	21838
872.785	21861
872.915	22021
873.044	22120
873.173	22036
873.303	22013
873.432	22105
873.561	22128
873.69	22040
873.819	21922
873.948	22040
874.077	22017
874.206	21884
874.335	22017
874.464	22230
874.593	22242
874.722	22124
874.851	22303
874.979	22276
875.108	22120
875.237	22181
875.365	22128
875.494	22226
875.623	22348
875.751	22238
875.88	22223
876.008	22356
876.136	22455
876.265	22580
876.393	22809
876.521	22546
876.65	22687
876.778	22596
876.906	22592
877.034	22504
877.162	22706
877.29	22580
877.418	22577
877.546	22554
877.674	22538
877.802	22561
877.93	22542
878.058	22622
878.185	22500
878.313	22535
878.441	22649
878.568	22417
878.696	22565
878.824	22603
878.951	22687
879.079	22653
879.206	22820
879.333	22702
879.461	22672
879.588	22687
879.715	22774
879.842	22755
879.97	22615
880.097	22402
880.224	22284
880.351	22363
880.478	22451
880.605	22352
880.732	22386
880.859	22527
880.986	22348
881.112	22424
881.239	22265
881.366	22101
881.493	22101
881.619	21998
881.746	21907
881.872	22010
881.999	21842
882.125	21861
882.252	21953
882.378	21895
882.505	22074
882.631	21797
882.757	21614
882.883	21800
883.01	21698
883.136	21538
883.262	21564
883.388	21538
883.514	21667
883.64	21545
883.766	21606
883.892	21367
884.018	21439
884.143	21557
884.269	21606
884.395	21344
884.52	21313
884.646	21306
884.772	21245
884.897	21283
885.023	21332
885.148	21420
885.274	21443
885.399	21420
885.524	21138
885.65	21291
885.775	21313
885.9	21329
886.025	21488
886.15	21344
886.275	21249
886.4	21211
886.525	21207
886.65	21302
886.775	21199
886.9	21431
887.025	21534
887.149	21348
887.274	21252
887.399	21032
887.523	21009
887.648	20963
887.773	20956
887.897	21146
888.021	21058
888.146	21005
888.27	20998
888.395	21142
888.519	21142
888.643	21055
888.767	21104
888.891	20990
889.015	20967
889.139	20834
889.263	20880
889.387	20937
889.511	21077
889.635	20933
889.759	20834
889.883	20872
890.006	20804
890.13	20906
890.254	20830
890.377	20765
890.501	20651
890.624	20629
890.748	20743
890.871	20499
890.995	20301
891.118	20377
891.241	20533
891.364	20469
891.488	20571
891.611	20457
891.734	20412
891.857	20377
891.98	20438
892.103	20571
892.226	20370
892.349	20396
892.471	20286
892.594	20301
892.717	20358
892.839	20362
892.962	20252
893.085	20351
893.207	20358
893.33	20244
893.452	20256
893.575	20473
893.697	20358
893.819	20549
893.941	20530
894.064	20412
894.186	20252
894.308	20324
894.43	20404
894.552	20423
894.674	20324
894.796	20332
894.918	20332
895.04	20313
895.161	20408
895.283	20400
895.405	20229
895.526	20446
895.648	20370
895.769	20206
895.891	20351
896.012	20355
896.134	20423
896.255	20309
896.376	20259
896.498	20229
896.619	20324
896.74	20457
896.861	20358
896.982	20712
897.103	20644
897.224	20590
897.345	20537
897.466	20507
897.587	20514
897.708	20621
897.828	20560
897.949	20522
898.07	20286
898.19	20476
898.311	20674
898.431	20484
898.552	20434
898.672	20708
898.792	20609
898.913	20488
899.033	20419
899.153	20347
899.273	20157
899.393	20313
899.513	20347
899.633	20351
899.753	20214
899.873	20343
899.993	20221
900.113	20153
900.232	20210
900.352	20218
900.472	20138
900.591	19959
900.711	20062
900.83	19917
900.95	20134
901.069	20130
901.189	19936
901.308	19567
901.427	19681
901.546	19639
901.665	19662
901.784	19597
901.904	19487
902.023	19502
902.141	19133
902.26	19152
902.379	19175
902.498	19247
902.617	19137
902.735	19168
902.854	19164
902.973	19091
903.091	18840
903.21	18875
903.328	18719
903.446	18757
903.565	18658
903.683	18696
903.801	18570
903.919	18471
904.038	18593
904.156	18388
904.274	18426
904.392	18338
904.51	18410
904.627	18380
904.745	18384
904.863	18361
904.981	18251
905.098	17988
905.216	18064
905.334	18209
905.451	18057
905.569	18015
905.686	18098
905.803	18068
905.921	17775
906.038	17897
906.155	17798
906.272	17790
906.389	17756
906.506	17539
906.623	17611
906.74	17600
906.857	17615
906.974	17505
907.091	17592
907.208	17733
907.324	17512
907.441	17600
907.557	17303
907.674	17414
907.79	17181
907.907	17326
908.023	17368
908.139	17379
908.256	17216
908.372	17216
908.488	17166
908.604	17037
908.72	16938
908.836	16961
908.952	16866
909.068	17102
909.184	17170
909.3	16953
909.415	17037
909.531	16881
909.647	16793
909.762	16759
909.878	16672
909.993	16801
910.108	16683
910.224	16634
910.339	16710
910.454	16649
910.57	16584
910.685	16485
910.8	16759
910.915	16733
911.03	16584
911.145	16447
911.259	16371
911.374	16310
911.489	16150
911.604	16272
911.718	16074
911.833	16063
911.947	15937
912.062	15797
912.176	16051
912.291	16051
912.405	16032
912.519	16257
912.633	16204
912.748	16059
912.862	16044
912.976	15876
913.09	15747
913.204	15850
913.318	15876
913.431	15979
913.545	15987
913.659	15850
913.772	15842
913.886	15751
914	15622
914.113	15793
914.226	15846
914.34	15751
914.453	15599
914.566	15690
914.68	15591
914.793	15542
914.906	15340
915.019	15283
915.132	15226
915.245	15256
915.358	15325
915.47	15222
915.583	15351
915.696	15256
915.809	15447
915.921	15428
916.034	15214
916.146	15268
916.259	15146
916.371	15298
916.483	15222
916.595	15085
916.708	15116
916.82	15119
916.932	15123
917.044	15013
917.156	15089
917.268	14975
917.38	14921
917.491	14925
917.603	14960
917.715	15001
917.826	14925
917.938	14819
918.049	14746
918.161	14800
918.272	14929
918.384	15024
918.495	14800
918.606	14678
918.717	14636
918.828	14746
918.939	14693
919.05	14564
919.161	14682
919.272	14461
919.383	14613
919.494	14765
919.604	14902
919.715	14625
919.826	14617
919.936	14583
920.047	14739
920.157	14682
920.267	14781
920.378	14682
920.488	14625
920.598	14845
920.708	14914
920.818	14815
920.928	14754
921.038	14807
921.148	14906
921.258	14549
921.368	14522
921.477	14347
921.587	14320
921.697	14164
921.806	14408
921.916	14191
922.025	14145
922.134	14012
922.244	13932
922.353	14138
922.462	13852
922.571	13868
922.68	13670
922.789	13655
922.898	13643
923.007	13571
923.116	13681
923.224	13765
923.333	13643
923.442	13639
923.55	13441
923.659	13559
923.767	13529
923.876	13495
923.984	13464
924.092	13335
924.201	13468
924.309	13324
924.417	13476
924.525	13289
924.633	13407
924.741	14229
924.849	13107
924.956	13316
925.064	13122
925.172	12928
925.279	13031
925.387	13034
925.494	13080
925.602	13156
925.709	13160
925.816	12977
925.924	13015
926.031	13065
926.138	13034
926.245	13046
926.352	12901
926.459	13012
926.566	13129
926.673	13008
926.779	12837
926.886	12886
926.993	12654
927.099	12692
927.206	12612
927.312	12589
927.419	12662
927.525	12635
927.631	12551
927.737	12528
927.843	12448
927.95	12342
928.056	12471
928.162	12471
928.267	12506
928.373	13019
928.479	12483
928.585	12311
928.69	12441
928.796	12429
928.901	12277
929.007	12220
929.112	12338
929.218	12239
929.323	12068
929.428	12194
929.533	12216
929.638	12117
929.743	12121
929.848	12167
929.953	12140
930.058	11950
930.163	11916
930.267	11760
930.372	12034
930.477	11836
930.581	11988
930.685	11916
930.79	11680
930.894	11927
930.998	11646
931.103	11817
931.207	11452
931.311	11478
931.415	11299
931.519	11155
931.623	11151
