Data from test_V78500241_1613.txt Node
Date: Fri Mar 25 15:21:05 CST 2022
User: usil
Spectrometer: V785-0024
Trigger mode: 0
Integration Time (sec): 4.000000E-1
Scans to average: 1
Nonlinearity correction enabled: false
Boxcar width: 0
Storing dark spectrum: false
XAxis mode: Wavelengths
Number of Pixels in Spectrum: 1024
>>>>>Begin Spectral Data<<<<<
801.071	27694
801.214	27603
801.356	27389
801.499	27355
801.641	27260
801.783	27184
801.926	27195
802.068	27275
802.211	27188
802.353	27036
802.496	26864
802.638	26785
802.78	26845
802.923	26887
803.065	26762
803.208	26785
803.35	26906
803.492	27024
803.635	27074
803.777	26857
803.919	27100
804.061	27405
804.204	27112
804.346	26937
804.488	26921
804.63	26956
804.773	26971
804.915	26971
805.057	27116
805.199	27020
805.341	27074
805.483	27150
805.626	27142
805.768	27074
805.91	27199
806.052	27218
806.194	27161
806.336	27393
806.478	27256
806.62	27070
806.762	27310
806.904	27466
807.046	27618
807.188	27549
807.33	27618
807.472	27675
807.614	27492
807.756	27515
807.898	27477
808.04	27408
808.182	27431
808.324	27416
808.465	27469
808.607	27610
808.749	27709
808.891	27774
809.033	27831
809.174	27739
809.316	27778
809.458	27827
809.6	27667
809.741	27922
809.883	28006
810.025	28109
810.166	28017
810.308	28185
810.45	27937
810.591	27869
810.733	27797
810.875	27827
811.016	27599
811.158	27743
811.299	27762
811.441	27930
811.582	27854
811.724	27717
811.865	27759
812.007	27739
812.148	27671
812.29	27675
812.431	28017
812.573	28196
812.714	28200
812.855	28440
812.997	28382
813.138	28489
813.279	28356
813.421	28314
813.562	28261
813.703	28070
813.845	27998
813.986	27789
814.127	27564
814.268	27431
814.41	27580
814.551	27427
814.692	27454
814.833	27363
814.974	27405
815.115	27469
815.256	27351
815.397	27332
815.539	27439
815.68	27325
815.821	27116
815.962	27245
816.103	27351
816.244	27100
816.385	27135
816.526	26975
816.666	26868
816.807	26758
816.948	26727
817.089	26876
817.23	26750
817.371	26712
817.512	26796
817.653	26735
817.793	26727
817.934	26781
818.075	26746
818.216	26792
818.356	26659
818.497	26514
818.638	26488
818.778	26499
818.919	26545
819.06	26648
819.2	26636
819.341	26796
819.481	26804
819.622	26868
819.762	27028
819.903	26937
820.043	26868
820.184	26815
820.324	26743
820.465	26937
820.605	26880
820.746	26815
820.886	26674
821.026	26823
821.167	26678
821.307	26800
821.447	26765
821.588	26697
821.728	26617
821.868	26355
822.008	26210
822.149	26259
822.289	26180
822.429	26043
822.569	25833
822.709	25841
822.849	25769
822.99	25780
823.13	25689
823.27	25601
823.41	25632
823.55	25362
823.69	25518
823.83	25628
823.97	25419
824.11	25320
824.25	25308
824.389	25354
824.529	25521
824.669	25354
824.809	25411
824.949	25422
825.089	25415
825.228	25244
825.368	25171
825.508	25301
825.648	25259
825.787	25198
825.927	25244
826.067	25141
826.206	25236
826.346	25343
826.485	25285
826.625	25206
826.765	25244
826.904	25209
827.044	24897
827.183	25004
827.323	24954
827.462	25031
827.601	24947
827.741	24878
827.88	24989
828.02	24890
828.159	24909
828.298	25034
828.437	25000
828.577	24768
828.716	25015
828.855	24741
828.994	24631
829.134	24684
829.273	24604
829.412	24490
829.551	24593
829.69	24688
829.829	24604
829.968	24726
830.107	24806
830.246	24719
830.385	24536
830.524	24475
830.663	24456
830.802	24239
830.941	24232
831.08	24239
831.219	24350
831.357	24361
831.496	24437
831.635	24232
831.774	24201
831.913	24072
832.051	24178
832.19	24068
832.329	24011
832.467	23996
832.606	23828
832.744	23817
832.883	23912
833.022	23821
833.16	23901
833.299	23958
833.437	23973
833.576	24057
833.714	23908
833.852	24125
833.991	24011
834.129	24140
834.267	23969
834.406	23999
834.544	24030
834.682	23992
834.821	23992
834.959	24155
835.097	23897
835.235	23977
835.373	23882
835.511	24018
835.65	23893
835.788	23821
835.926	23733
836.064	23646
836.202	23592
836.34	23729
836.478	23927
836.615	23642
836.753	23733
836.891	23775
837.029	23672
837.167	23775
837.305	23665
837.443	23653
837.58	23634
837.718	23634
837.856	23703
837.993	23524
838.131	23646
838.269	23528
838.406	23543
838.544	23410
838.681	23349
838.819	23235
838.956	23109
839.094	23170
839.231	23170
839.369	23296
839.506	23596
839.643	23258
839.781	23151
839.918	23075
840.055	23086
840.193	22995
840.33	22942
840.467	23033
840.604	23037
840.742	23170
840.879	22957
841.016	22953
841.153	23098
841.29	23064
841.427	23056
841.564	23155
841.701	23037
841.838	22942
841.975	22889
842.112	22999
842.249	22854
842.385	22694
842.522	22961
842.659	22911
842.796	22717
842.933	22702
843.069	22744
843.206	22687
843.343	22862
843.479	22763
843.616	22843
843.752	22538
843.889	22653
844.025	22839
844.162	22523
844.298	22580
844.435	22550
844.571	22603
844.708	22622
844.844	22668
844.98	22683
845.117	22634
845.253	22474
845.389	22325
845.525	22440
845.661	22440
845.798	22371
845.934	22394
846.07	22253
846.206	22253
846.342	22306
846.478	22348
846.614	22147
846.75	22051
846.886	22097
847.022	22010
847.158	22112
847.294	22105
847.429	22158
847.565	22082
847.701	22219
847.837	21656
847.972	21705
848.108	21842
848.244	21827
848.379	21549
848.515	21618
848.65	21507
848.786	21694
848.921	21599
849.057	21705
849.192	21644
849.328	21732
849.463	21553
849.598	21534
849.734	21534
849.869	21473
850.004	21523
850.14	21473
850.275	21389
850.41	21233
850.545	21317
850.68	21306
850.815	21462
850.95	21393
851.085	21553
851.22	21595
851.355	21401
851.49	21416
851.625	21275
851.76	21397
851.895	21176
852.03	21351
852.165	21291
852.299	21435
852.434	21405
852.569	21325
852.703	21294
852.838	21576
852.973	21329
853.107	21485
853.242	21264
853.376	21226
853.511	21047
853.645	21294
853.78	21302
853.914	21142
854.048	21310
854.183	21165
854.317	21180
854.451	21424
854.585	21165
854.72	21150
854.854	21294
854.988	20990
855.122	21252
855.256	21127
855.39	21161
855.524	21287
855.658	21298
855.792	21226
855.926	21252
856.06	21184
856.194	21256
856.327	21180
856.461	21119
856.595	21138
856.729	21161
856.862	21214
856.996	21256
857.13	21241
857.263	21291
857.397	21325
857.53	21237
857.664	21184
857.797	21218
857.931	21344
858.064	21161
858.197	21237
858.331	21241
858.464	21150
858.597	21138
858.731	21104
858.864	21233
858.997	21154
859.13	21260
859.263	21195
859.396	21424
859.529	21203
859.662	21222
859.795	21127
859.928	21199
860.061	21336
860.194	21382
860.327	21287
860.46	21214
860.592	21203
860.725	21382
860.858	21294
860.99	21260
861.123	21176
861.256	21138
861.388	21237
861.521	21892
861.653	20956
861.786	20982
861.918	21165
862.05	21058
862.183	21123
862.315	21070
862.447	21150
862.58	21093
862.712	20975
862.844	20823
862.976	20998
863.108	21085
863.24	21287
863.372	20857
863.504	20868
863.636	20948
863.768	21036
863.9	20826
864.032	20876
864.164	20887
864.296	21051
864.428	20921
864.559	20872
864.691	20967
864.823	20918
864.954	20910
865.086	20857
865.217	20819
865.349	20701
865.48	20872
865.612	20804
865.743	20929
865.875	20823
866.006	20796
866.137	20895
866.269	20769
866.4	20743
866.531	20788
866.662	20590
866.793	20735
866.924	20743
867.055	20743
867.186	20819
867.317	20754
867.448	20640
867.579	20743
867.71	20560
867.841	20663
867.972	20800
868.103	20720
868.233	20754
868.364	20769
868.495	20902
868.625	21001
868.756	21009
868.886	20887
869.017	20910
869.147	21055
869.278	21123
869.408	20895
869.539	20933
869.669	21112
869.799	21085
869.929	21089
870.06	21085
870.19	21230
870.32	21321
870.45	21325
870.58	21275
870.71	21492
870.84	21549
870.97	21443
871.1	21336
871.23	21557
871.36	21682
871.489	21496
871.619	21561
871.749	21523
871.879	21656
872.008	21682
872.138	21500
872.267	21538
872.397	21485
872.526	21538
872.656	21416
872.785	21473
872.915	21637
873.044	21671
873.173	21622
873.303	21553
873.432	21542
873.561	21629
873.69	21583
873.819	21564
873.948	21751
874.077	21663
874.206	21583
874.335	21614
874.464	21682
874.593	21709
874.722	21812
874.851	21884
874.979	21789
875.108	21759
875.237	21690
875.365	21648
875.494	21770
875.623	22032
875.751	21774
875.88	21876
876.008	21926
876.136	21987
876.265	22166
876.393	22375
876.521	22230
876.65	22318
876.778	22207
876.906	22173
877.034	22173
877.162	22371
877.29	22246
877.418	22185
877.546	22272
877.674	22238
877.802	22188
877.93	22215
878.058	22078
878.185	22044
878.313	22128
878.441	22192
878.568	21991
878.696	22147
878.824	22268
878.951	22242
879.079	22348
879.206	22504
879.333	22398
879.461	22238
879.588	22379
879.715	22405
879.842	22466
879.97	22314
880.097	22036
880.224	22097
880.351	22124
880.478	21998
880.605	21892
880.732	21987
880.859	22219
880.986	22078
881.112	22006
881.239	22051
881.366	21736
881.493	21781
881.619	21686
881.746	21614
881.872	21679
881.999	21568
882.125	21496
882.252	21622
882.378	21580
882.505	21648
882.631	21500
882.757	21397
882.883	21428
883.01	21306
883.136	21287
883.262	21233
883.388	21062
883.514	21321
883.64	21351
883.766	21218
883.892	21108
884.018	21096
884.143	21272
884.269	21332
884.395	21070
884.52	20937
884.646	20963
884.772	20986
884.897	20769
885.023	20918
885.148	20963
885.274	21161
885.399	21020
885.524	20963
885.65	20944
885.775	20956
885.9	20971
886.025	20883
886.15	21154
886.275	20914
886.4	20785
886.525	20963
886.65	20967
886.775	20982
886.9	20990
887.025	21055
887.149	20845
887.274	20785
887.399	20773
887.523	20720
887.648	20659
887.773	20636
887.897	20800
888.021	20693
888.146	20716
888.27	20906
888.395	20830
888.519	20762
888.643	20830
888.767	20720
888.891	20644
889.015	20541
889.139	20541
889.263	20446
889.387	20609
889.511	20705
889.635	20697
889.759	20499
889.883	20537
890.006	20594
890.13	20568
890.254	20480
890.377	20526
890.501	20176
890.624	20290
890.748	20324
890.871	20248
890.995	19986
891.118	20073
891.241	20107
891.364	20142
891.488	20187
891.611	20111
891.734	20081
891.857	20206
891.98	20088
892.103	20301
892.226	20149
892.349	20035
892.471	19986
892.594	20050
892.717	20016
892.839	19970
892.962	19997
893.085	19909
893.207	20008
893.33	20020
893.452	19894
893.575	20020
893.697	20050
893.819	20081
893.941	20164
894.064	20058
894.186	19887
894.308	19951
894.43	20107
894.552	20138
894.674	20168
894.796	19849
894.918	19959
895.04	19913
895.161	19997
895.283	20142
895.405	19788
895.526	19955
895.648	20039
895.769	20100
895.891	20039
896.012	20024
896.134	20065
896.255	19974
896.376	19989
896.498	19913
896.619	20024
896.74	19970
896.861	20005
896.982	20225
897.103	20495
897.224	20164
897.345	20225
897.466	20145
897.587	20180
897.708	20393
897.828	20305
897.949	20088
898.07	20073
898.19	20153
898.311	20294
898.431	20111
898.552	20103
898.672	20210
898.792	20271
898.913	20256
899.033	20122
899.153	19993
899.273	20046
899.393	19970
899.513	20073
899.633	20031
899.753	19951
899.873	19871
899.993	20084
900.113	19894
900.232	19932
900.352	19890
900.472	19837
900.591	19685
900.711	19776
900.83	19742
900.95	19906
901.069	19772
901.189	19712
901.308	19457
901.427	19434
901.546	19331
901.665	19293
901.784	19278
901.904	19350
902.023	19050
902.141	18966
902.26	18947
902.379	19015
902.498	18897
902.617	18859
902.735	18867
902.854	18719
902.973	18798
903.091	18593
903.21	18445
903.328	18437
903.446	18422
903.565	18350
903.683	18422
903.801	18243
903.919	18384
904.038	18292
904.156	18148
904.274	18174
904.392	18095
904.51	18072
904.627	18129
904.745	18155
904.863	18064
904.981	17786
905.098	17771
905.216	17802
905.334	17935
905.451	17832
905.569	17646
905.686	17737
905.803	17707
905.921	17611
906.038	17615
906.155	17691
906.272	17501
906.389	17467
906.506	17273
906.623	17349
906.74	17277
906.857	17197
906.974	17273
907.091	17353
907.208	17406
907.324	17231
907.441	17185
907.557	16995
907.674	17033
907.79	16900
907.907	17029
908.023	17109
908.139	17094
908.256	16942
908.372	16839
908.488	16854
908.604	16812
908.72	16634
908.836	16771
908.952	16759
909.068	16729
909.184	16782
909.3	16740
909.415	16782
909.531	16664
909.647	16432
909.762	16478
909.878	16363
909.993	16417
910.108	16527
910.224	16356
910.339	16398
910.454	16207
910.57	16253
910.685	16188
910.8	16485
910.915	16363
911.03	16223
911.145	16055
911.259	16109
911.374	16036
911.489	16025
911.604	15930
911.718	15816
911.833	15842
911.947	15686
912.062	15694
912.176	15652
912.291	15800
912.405	15835
912.519	16025
912.633	15930
912.748	15835
912.862	15823
912.976	15519
913.09	15462
913.204	15622
913.318	15652
913.431	15625
913.545	15690
913.659	15698
913.772	15618
913.886	15492
914	15389
914.113	15485
914.226	15568
914.34	15401
914.453	15199
914.566	15530
914.68	15222
914.793	15264
914.906	15119
915.019	15055
915.132	14956
915.245	15032
915.358	15135
915.47	15009
915.583	15020
915.696	15081
915.809	15119
915.921	15047
916.034	15017
916.146	14956
916.259	14944
916.371	14861
916.483	14952
916.595	14948
916.708	14868
916.82	14895
916.932	14811
917.044	14868
917.156	14754
917.268	14735
917.38	14731
917.491	14686
917.603	14629
917.715	14689
917.826	14720
917.938	14617
918.049	14511
918.161	14484
918.272	14781
918.384	14720
918.495	14629
918.606	14484
918.717	14366
918.828	14381
918.939	14324
919.05	14328
919.161	14480
919.272	14206
919.383	14278
919.494	14450
919.604	14579
919.715	14450
919.826	14309
919.936	14385
920.047	14495
920.157	14415
920.267	14518
920.378	14385
920.488	14313
920.598	14545
920.708	14754
920.818	14556
920.928	14533
921.038	14670
921.148	14568
921.258	14434
921.368	14294
921.477	14229
921.587	14126
921.697	13970
921.806	14088
921.916	13989
922.025	13803
922.134	13727
922.244	13807
922.353	13738
922.462	13757
922.571	13540
922.68	13419
922.789	13411
922.898	13533
923.007	13388
923.116	13419
923.224	13373
923.333	13377
923.442	13285
923.55	13293
923.659	13251
923.767	13335
923.876	13160
923.984	13346
924.092	13107
924.201	13225
924.309	13198
924.417	13217
924.525	13107
924.633	13084
924.741	14031
924.849	12916
924.956	13088
925.064	12844
925.172	12810
925.279	12825
925.387	12951
925.494	12852
925.602	13023
925.709	12871
925.816	12753
925.924	12817
926.031	12814
926.138	12734
926.245	12798
926.352	12631
926.459	12901
926.566	12935
926.673	12639
926.779	12566
926.886	12604
926.993	12467
927.099	12471
927.206	12391
927.312	12308
927.419	12509
927.525	12418
927.631	12456
927.737	12262
927.843	12254
927.95	12228
928.056	12159
928.162	12224
928.267	12319
928.373	12798
928.479	12350
928.585	12110
928.69	12216
928.796	12224
928.901	12106
929.007	11920
929.112	12083
929.218	12026
929.323	12011
929.428	11984
929.533	12049
929.638	11897
929.743	11889
929.848	12030
929.953	11980
930.058	11821
930.163	11649
930.267	11646
930.372	11703
930.477	11608
930.581	11813
930.685	11752
930.79	11551
930.894	11573
930.998	11516
931.103	11619
931.207	11265
931.311	11223
931.415	11151
931.519	10927
931.623	10976
