Data from test_V78500241_3160.txt Node
Date: Fri Mar 25 15:31:51 CST 2022
User: usil
Spectrometer: V785-0024
Trigger mode: 0
Integration Time (sec): 4.000000E-1
Scans to average: 1
Nonlinearity correction enabled: false
Boxcar width: 0
Storing dark spectrum: false
XAxis mode: Wavelengths
Number of Pixels in Spectrum: 1024
>>>>>Begin Spectral Data<<<<<
801.071	27188
801.214	27237
801.356	26910
801.499	26834
801.641	26826
801.783	26716
801.926	26773
802.068	26549
802.211	26705
802.353	26621
802.496	26438
802.638	26461
802.78	26233
802.923	26313
803.065	26267
803.208	26278
803.35	26442
803.492	26560
803.635	26488
803.777	26385
803.919	26514
804.061	26826
804.204	26549
804.346	26499
804.488	26461
804.63	26453
804.773	26317
804.915	26629
805.057	26545
805.199	26480
805.341	26571
805.483	26693
805.626	26590
805.768	26583
805.91	26609
806.052	26682
806.194	26415
806.336	26724
806.478	26648
806.62	26629
806.762	26682
806.904	26940
807.046	27085
807.188	27032
807.33	27112
807.472	27161
807.614	27074
807.756	27024
807.898	26872
808.04	26975
808.182	26804
808.324	27020
808.465	26823
808.607	26899
808.749	27195
808.891	27344
809.033	27351
809.174	27226
809.316	27195
809.458	27249
809.6	27230
809.741	27306
809.883	27424
810.025	27424
810.166	27443
810.308	27283
810.45	27496
810.591	27367
810.733	27245
810.875	27233
811.016	27055
811.158	27081
811.299	27192
811.441	27405
811.582	27279
811.724	27047
811.865	26998
812.007	27077
812.148	27157
812.29	27093
812.431	27302
812.573	27572
812.714	27633
812.855	27838
812.997	27736
813.138	27827
813.279	27747
813.421	27660
813.562	27641
813.703	27397
813.845	27435
813.986	27188
814.127	26853
814.268	26861
814.41	26842
814.551	26792
814.692	26948
814.833	26788
814.974	26956
815.115	27017
815.256	26754
815.397	26754
815.539	26670
815.68	26701
815.821	26701
815.962	26644
816.103	26469
816.244	26541
816.385	26434
816.526	26530
816.666	26214
816.807	26145
816.948	26157
817.089	26202
817.23	26168
817.371	26138
817.512	26008
817.653	26081
817.793	26008
817.934	26039
818.075	26149
818.216	26157
818.356	26100
818.497	25940
818.638	25807
818.778	25841
818.919	25951
819.06	25947
819.2	26187
819.341	26225
819.481	26153
819.622	26324
819.762	26434
819.903	26549
820.043	26313
820.184	26263
820.324	26111
820.465	26408
820.605	26195
820.746	26218
820.886	25993
821.026	26142
821.167	26012
821.307	26221
821.447	26149
821.588	26077
821.728	25879
821.868	25833
822.008	25571
822.149	25632
822.289	25590
822.429	25293
822.569	25240
822.709	25331
822.849	25103
822.99	25259
823.13	25015
823.27	25057
823.41	24897
823.55	24814
823.69	25034
823.83	24810
823.97	24806
824.11	24681
824.25	24631
824.389	24631
824.529	24757
824.669	24749
824.809	24890
824.949	24661
825.089	24798
825.228	24806
825.368	24555
825.508	24509
825.648	24464
825.787	24654
825.927	24582
826.067	24540
826.206	24540
826.346	24620
826.485	24612
826.625	24532
826.765	24658
826.904	24719
827.044	24361
827.183	24445
827.323	24190
827.462	24410
827.601	24311
827.741	24254
827.88	24323
828.02	24034
828.159	24285
828.298	24216
828.437	24448
828.577	24262
828.716	24281
828.855	24140
828.994	24018
829.134	23980
829.273	24030
829.412	23836
829.551	23904
829.69	24030
829.829	24011
829.968	24155
830.107	24079
830.246	24015
830.385	23832
830.524	23965
830.663	23851
830.802	23767
830.941	23623
831.08	23695
831.219	23657
831.357	23668
831.496	23885
831.635	23729
831.774	23589
831.913	23410
832.051	23478
832.19	23474
832.329	23406
832.467	23417
832.606	23231
832.744	23280
832.883	23337
833.022	23299
833.16	23334
833.299	23311
833.437	23349
833.576	23345
833.714	23151
833.852	23360
833.991	23501
834.129	23440
834.267	23444
834.406	23356
834.544	23417
834.682	23455
834.821	23356
834.959	23520
835.097	23212
835.235	23364
835.373	23387
835.511	23360
835.65	23200
835.788	23280
835.926	23128
836.064	23018
836.202	23003
836.34	23261
836.478	23280
836.615	23193
836.753	23105
836.891	23147
837.029	23318
837.167	23121
837.305	23003
837.443	23079
837.58	22987
837.718	23223
837.856	23083
837.993	22984
838.131	23094
838.269	22976
838.406	22946
838.544	22736
838.681	22733
838.819	22702
838.956	22588
839.094	22561
839.231	22611
839.369	22748
839.506	22965
839.643	22835
839.781	22546
839.918	22462
840.055	22641
840.193	22516
840.33	22554
840.467	22554
840.604	22538
840.742	22694
840.879	22375
841.016	22436
841.153	22291
841.29	22462
841.427	22413
841.564	22519
841.701	22519
841.838	22428
841.975	22382
842.112	22440
842.249	22360
842.385	22284
842.522	22455
842.659	22234
842.796	22261
842.933	22291
843.069	22246
843.206	22265
843.343	22143
843.479	22192
843.616	22150
843.752	21930
843.889	21895
844.025	22112
844.162	21983
844.298	22188
844.435	22124
844.571	21888
844.708	21994
844.844	22242
844.98	22257
845.117	22040
845.253	21888
845.389	21861
845.525	21975
845.661	21842
845.798	21633
845.934	21800
846.07	21618
846.206	21774
846.342	21907
846.478	21717
846.614	21504
846.75	21507
846.886	21618
847.022	21599
847.158	21583
847.294	21496
847.429	21610
847.565	21450
847.701	21542
847.837	21218
847.972	21192
848.108	21329
848.244	21313
848.379	21017
848.515	21028
848.65	21085
848.786	21085
848.921	21230
849.057	21138
849.192	21157
849.328	21203
849.463	21043
849.598	20994
849.734	20967
849.869	20937
850.004	20830
850.14	20842
850.275	20845
850.41	20735
850.545	20891
850.68	20834
850.815	20986
850.95	20830
851.085	20971
851.22	20891
851.355	20868
851.49	20861
851.625	20838
851.76	20705
851.895	20800
852.03	20708
852.165	20758
852.299	20842
852.434	20849
852.569	20982
852.703	20975
852.838	20960
852.973	20979
853.107	20967
853.242	20727
853.376	20754
853.511	20609
853.645	20560
853.78	20594
853.914	20815
854.048	20682
854.183	20670
854.317	20678
854.451	20765
854.585	20754
854.72	20644
854.854	20811
854.988	20609
855.122	20678
855.256	20522
855.39	20606
855.524	20750
855.658	20590
855.792	20727
855.926	20644
856.06	20739
856.194	20750
856.327	20701
856.461	20629
856.595	20583
856.729	20590
856.862	20754
856.996	20648
857.13	20731
857.263	20689
857.397	20693
857.53	20663
857.664	20693
857.797	20670
857.931	20739
858.064	20609
858.197	20800
858.331	20625
858.464	20765
858.597	20568
858.731	20541
858.864	20636
858.997	20621
859.13	20724
859.263	20720
859.396	20762
859.529	20667
859.662	20693
859.795	20655
859.928	20625
860.061	20899
860.194	20906
860.327	20746
860.46	20720
860.592	20716
860.725	20830
860.858	20686
860.99	20568
861.123	20499
861.256	20602
861.388	20613
861.521	21207
861.653	20609
861.786	20355
861.918	20469
862.05	20564
862.183	20533
862.315	20602
862.447	20659
862.58	20537
862.712	20465
862.844	20366
862.976	20427
863.108	20442
863.24	20746
863.372	20339
863.504	20423
863.636	20393
863.768	20362
863.9	20381
864.032	20305
864.164	20366
864.296	20351
864.428	20571
864.559	20454
864.691	20488
864.823	20450
864.954	20351
865.086	20309
865.217	20218
865.349	20267
865.48	20237
865.612	20275
865.743	20480
865.875	20320
866.006	20240
866.137	20256
866.269	20157
866.4	20168
866.531	20263
866.662	20195
866.793	20176
866.924	20237
867.055	20320
867.186	20221
867.317	20153
867.448	20145
867.579	20180
867.71	20035
867.841	20130
867.972	20214
868.103	20294
868.233	20278
868.364	20332
868.495	20362
868.625	20469
868.756	20602
868.886	20492
869.017	20427
869.147	20503
869.278	20575
869.408	20423
869.539	20560
869.669	20590
869.799	20522
869.929	20583
870.06	20583
870.19	20777
870.32	20746
870.45	20899
870.58	20887
870.71	20952
870.84	20979
870.97	20960
871.1	20887
871.23	21252
871.36	21062
871.489	21017
871.619	21051
871.749	20994
871.879	21116
872.008	21207
872.138	21150
872.267	21116
872.397	20948
872.526	20716
872.656	20910
872.785	20853
872.915	21222
873.044	21146
873.173	21036
873.303	21108
873.432	21226
873.561	21226
873.69	21135
873.819	21188
873.948	21157
874.077	21146
874.206	21104
874.335	21135
874.464	21321
874.593	21458
874.722	21287
874.851	21466
874.979	21523
875.108	21382
875.237	21317
875.365	21146
875.494	21294
875.623	21363
875.751	21359
875.88	21355
876.008	21481
876.136	21580
876.265	21720
876.393	21865
876.521	21831
876.65	21846
876.778	21648
876.906	21709
877.034	21671
877.162	21686
877.29	21724
877.418	21648
877.546	21709
877.674	21736
877.802	21686
877.93	21717
878.058	21701
878.185	21454
878.313	21663
878.441	21785
878.568	21572
878.696	21694
878.824	21576
878.951	21850
879.079	21846
879.206	22067
879.333	21827
879.461	21728
879.588	21827
879.715	21819
879.842	22078
879.97	21686
880.097	21477
880.224	21542
880.351	21561
880.478	21469
880.605	21507
880.732	21488
880.859	21762
880.986	21580
881.112	21591
881.239	21378
881.366	21279
881.493	21241
881.619	21116
881.746	21252
881.872	20918
881.999	20967
882.125	20948
882.252	21154
882.378	20956
882.505	21268
882.631	20929
882.757	20838
882.883	20933
883.01	20800
883.136	20895
883.262	20697
883.388	20765
883.514	20883
883.64	20918
883.766	20845
883.892	20648
884.018	20644
884.143	20781
884.269	20876
884.395	20598
884.52	20446
884.646	20495
884.772	20450
884.897	20427
885.023	20556
885.148	20571
885.274	20564
885.399	20594
885.524	20454
885.65	20575
885.775	20419
885.9	20480
886.025	20602
886.15	20442
886.275	20393
886.4	20362
886.525	20511
886.65	20351
886.775	20370
886.9	20454
887.025	20777
887.149	20400
887.274	20252
887.399	20286
887.523	20221
887.648	20244
887.773	20122
887.897	20282
888.021	20225
888.146	20210
888.27	20476
888.395	20336
888.519	20286
888.643	20294
888.767	20244
888.891	20088
889.015	20088
889.139	20088
889.263	20142
889.387	20210
889.511	20172
889.635	20130
889.759	20020
889.883	20001
890.006	20069
890.13	20065
890.254	19993
890.377	19967
890.501	19852
890.624	19719
890.748	19883
890.871	19693
890.995	19681
891.118	19575
891.241	19651
891.364	19639
891.488	19841
891.611	19685
891.734	19655
891.857	19647
891.98	19533
892.103	19658
892.226	19613
892.349	19502
892.471	19590
892.594	19597
892.717	19472
892.839	19445
892.962	19514
893.085	19651
893.207	19624
893.33	19445
893.452	19533
893.575	19544
893.697	19518
893.819	19776
893.941	19879
894.064	19658
894.186	19445
894.308	19453
894.43	19704
894.552	19632
894.674	19643
894.796	19460
894.918	19468
895.04	19457
895.161	19620
895.283	19651
895.405	19521
895.526	19483
895.648	19441
895.769	19563
895.891	19544
896.012	19624
896.134	19700
896.255	19563
896.376	19483
896.498	19533
896.619	19567
896.74	19590
896.861	19670
896.982	19940
897.103	19989
897.224	19765
897.345	19772
897.466	19685
897.587	19750
897.708	19818
897.828	19936
897.949	19712
898.07	19655
898.19	19613
898.311	19837
898.431	19769
898.552	19727
898.672	19883
898.792	19909
898.913	19757
899.033	19712
899.153	19616
899.273	19518
899.393	19502
899.513	19521
899.633	19521
899.753	19613
899.873	19525
899.993	19464
900.113	19381
900.232	19460
900.352	19438
900.472	19365
900.591	19259
900.711	19232
900.83	19225
900.95	19487
901.069	19487
901.189	19270
901.308	18852
901.427	18787
901.546	19004
901.665	18886
901.784	18848
901.904	18749
902.023	18745
902.141	18471
902.26	18525
902.379	18547
902.498	18384
902.617	18334
902.735	18384
902.854	18410
902.973	18414
903.091	18079
903.21	18091
903.328	18106
903.446	18038
903.565	17802
903.683	17992
903.801	17817
903.919	17832
904.038	17866
904.156	17703
904.274	17695
904.392	17604
904.51	17661
904.627	17558
904.745	17760
904.863	17691
904.981	17482
905.098	17391
905.216	17349
905.334	17379
905.451	17299
905.569	17341
905.686	17436
905.803	17303
905.921	17124
906.038	17227
906.155	17086
906.272	17098
906.389	17159
906.506	16957
906.623	16824
906.74	16847
906.857	16866
906.974	16854
907.091	16987
907.208	17018
907.324	16980
907.441	16831
907.557	16588
907.674	16630
907.79	16561
907.907	16592
908.023	16767
908.139	16668
908.256	16535
908.372	16485
908.488	16497
908.604	16329
908.72	16367
908.836	16367
908.952	16344
909.068	16382
909.184	16424
909.3	16348
909.415	16303
909.531	16272
909.647	16135
909.762	16090
909.878	16055
909.993	16055
910.108	16025
910.224	15934
910.339	15934
910.454	15941
910.57	15926
910.685	15823
910.8	16029
910.915	16006
911.03	15899
911.145	15743
911.259	15648
911.374	15728
911.489	15629
911.604	15553
911.718	15481
911.833	15405
911.947	15351
912.062	15252
912.176	15439
912.291	15473
912.405	15416
912.519	15610
912.633	15584
912.748	15447
912.862	15386
912.976	15294
913.09	15039
913.204	15161
913.318	15264
913.431	15428
913.545	15279
913.659	15329
913.772	15104
913.886	15127
914	15093
914.113	15146
914.226	15157
914.34	15127
914.453	14887
914.566	15119
914.68	14979
914.793	14887
914.906	14807
915.019	14667
915.132	14556
915.245	14583
915.358	14731
915.47	14697
915.583	14727
915.696	14701
915.809	14781
915.921	14754
916.034	14552
916.146	14560
916.259	14571
916.371	14625
916.483	14606
916.595	14507
916.708	14450
916.82	14473
916.932	14503
917.044	14518
917.156	14362
917.268	14317
917.38	14374
917.491	14362
917.603	14309
917.715	14358
917.826	14328
917.938	14298
918.049	14229
918.161	14286
918.272	14396
918.384	14377
918.495	14214
918.606	14107
918.717	14043
918.828	14016
918.939	14225
919.05	13974
919.161	14031
919.272	13849
919.383	14027
919.494	14126
919.604	14256
919.715	14050
919.826	14016
919.936	14065
920.047	14081
920.157	14005
920.267	14195
920.378	14103
920.488	14065
920.598	14195
920.708	14412
920.818	14168
920.928	14142
921.038	14385
921.148	14320
921.258	14016
921.368	13868
921.477	13833
921.587	13830
921.697	13746
921.806	13795
921.916	13704
922.025	13483
922.134	13468
922.244	13472
922.353	13495
922.462	13384
922.571	13263
922.68	13160
922.789	13198
922.898	13091
923.007	12977
923.116	13114
923.224	13042
923.333	13133
923.442	12973
923.55	12962
923.659	12890
923.767	12932
923.876	12947
923.984	12981
924.092	12840
924.201	12901
924.309	12814
924.417	12939
924.525	12730
924.633	12863
924.741	13715
924.849	12555
924.956	12700
925.064	12521
925.172	12506
925.279	12540
925.387	12540
925.494	12642
925.602	12654
925.709	12688
925.816	12547
925.924	12498
926.031	12547
926.138	12467
926.245	12544
926.352	12410
926.459	12578
926.566	12532
926.673	12445
926.779	12311
926.886	12308
926.993	12197
927.099	12117
927.206	12068
927.312	12091
927.419	12175
927.525	12079
927.631	12163
927.737	12034
927.843	11969
927.95	11931
928.056	11946
928.162	12022
928.267	11942
928.373	12570
928.479	11939
928.585	11817
928.69	11832
928.796	12011
928.901	11870
929.007	11672
929.112	11809
929.218	11748
929.323	11676
929.428	11722
929.533	11809
929.638	11699
929.743	11619
929.848	11737
929.953	11745
930.058	11558
930.163	11417
930.267	11474
930.372	11490
930.477	11318
930.581	11676
930.685	11376
930.79	11334
930.894	11353
930.998	11254
931.103	11334
931.207	10930
931.311	10927
931.415	10873
931.519	10664
931.623	10584
