Data from test_V78500241_3509.txt Node
Date: Fri Mar 25 15:34:17 CST 2022
User: usil
Spectrometer: V785-0024
Trigger mode: 0
Integration Time (sec): 4.000000E-1
Scans to average: 1
Nonlinearity correction enabled: false
Boxcar width: 0
Storing dark spectrum: false
XAxis mode: Wavelengths
Number of Pixels in Spectrum: 1024
>>>>>Begin Spectral Data<<<<<
801.071	27275
801.214	27260
801.356	27058
801.499	27089
801.641	26971
801.783	26838
801.926	27051
802.068	26937
802.211	26876
802.353	26788
802.496	26708
802.638	26651
802.78	26598
802.923	26446
803.065	26442
803.208	26549
803.35	26659
803.492	26629
803.635	26678
803.777	26644
803.919	26842
804.061	27017
804.204	26876
804.346	26606
804.488	26659
804.63	26594
804.773	26636
804.915	26746
805.057	26887
805.199	26682
805.341	26678
805.483	26781
805.626	26800
805.768	26785
805.91	26826
806.052	26815
806.194	26758
806.336	26960
806.478	26811
806.62	26735
806.762	26678
806.904	27116
807.046	27340
807.188	27169
807.33	27135
807.472	27157
807.614	27176
807.756	27100
807.898	27119
808.04	27036
808.182	27032
808.324	26967
808.465	27074
808.607	27268
808.749	27416
808.891	27496
809.033	27580
809.174	27427
809.316	27291
809.458	27268
809.6	27180
809.741	27599
809.883	27450
810.025	27743
810.166	27789
810.308	27709
810.45	27542
810.591	27561
810.733	27416
810.875	27382
811.016	27351
811.158	27275
811.299	27435
811.441	27694
811.582	27610
811.724	27408
811.865	27317
812.007	27355
812.148	27351
812.29	27561
812.431	27485
812.573	27739
812.714	27747
812.855	28017
812.997	28055
813.138	28116
813.279	27941
813.421	27953
813.562	28017
813.703	27743
813.845	27530
813.986	27252
814.127	27180
814.268	27100
814.41	27203
814.551	27039
814.692	27127
814.833	26902
814.974	27028
815.115	26971
815.256	26914
815.397	26906
815.539	26849
815.68	26948
815.821	26800
815.962	26804
816.103	26731
816.244	26670
816.385	26629
816.526	26575
816.666	26469
816.807	26225
816.948	26377
817.089	26408
817.23	26294
817.371	26320
817.512	26366
817.653	26275
817.793	26225
817.934	26313
818.075	26385
818.216	26366
818.356	26233
818.497	26351
818.638	25997
818.778	26092
818.919	26088
819.06	26142
819.2	26244
819.341	26347
819.481	26305
819.622	26374
819.762	26724
819.903	26492
820.043	26488
820.184	26431
820.324	26355
820.465	26377
820.605	26423
820.746	26438
820.886	26214
821.026	26324
821.167	26309
821.307	26568
821.447	26259
821.588	26313
821.728	25993
821.868	25928
822.008	25769
822.149	25742
822.289	25868
822.429	25479
822.569	25537
822.709	25628
822.849	25346
822.99	25373
823.13	25209
823.27	25327
823.41	25008
823.55	25042
823.69	25023
823.83	25050
823.97	25091
824.11	24894
824.25	24996
824.389	24970
824.529	24943
824.669	24947
824.809	25141
824.949	24977
825.089	25084
825.228	24996
825.368	24749
825.508	24825
825.648	24711
825.787	24730
825.927	24897
826.067	24738
826.206	24909
826.346	24817
826.485	24844
826.625	24859
826.765	24848
826.904	24856
827.044	24536
827.183	24673
827.323	24483
827.462	24551
827.601	24555
827.741	24566
827.88	24528
828.02	24525
828.159	24441
828.298	24490
828.437	24604
828.577	24380
828.716	24505
828.855	24369
828.994	24129
829.134	24220
829.273	24327
829.412	24167
829.551	24213
829.69	24140
829.829	24277
829.968	24365
830.107	24315
830.246	24251
830.385	24152
830.524	24155
830.663	23973
830.802	23904
830.941	23786
831.08	23889
831.219	23885
831.357	23901
831.496	24155
831.635	23802
831.774	23726
831.913	23729
832.051	23608
832.19	23630
832.329	23638
832.467	23497
832.606	23482
832.744	23596
832.883	23547
833.022	23505
833.16	23551
833.299	23531
833.437	23509
833.576	23687
833.714	23665
833.852	23558
833.991	23714
834.129	23767
834.267	23703
834.406	23520
834.544	23630
834.682	23619
834.821	23627
834.959	23748
835.097	23699
835.235	23543
835.373	23608
835.511	23722
835.65	23562
835.788	23524
835.926	23334
836.064	23326
836.202	23379
836.34	23440
836.478	23551
836.615	23395
836.753	23497
836.891	23478
837.029	23512
837.167	23493
837.305	23341
837.443	23303
837.58	23280
837.718	23402
837.856	23463
837.993	23185
838.131	23250
838.269	23246
838.406	23231
838.544	23151
838.681	22885
838.819	22942
838.956	22702
839.094	22710
839.231	22828
839.369	22850
839.506	23318
839.643	23090
839.781	22767
839.918	22733
840.055	22672
840.193	22717
840.33	22691
840.467	22615
840.604	22717
840.742	22957
840.879	22561
841.016	22668
841.153	22493
841.29	22816
841.427	22615
841.564	22752
841.701	22641
841.838	22706
841.975	22557
842.112	22687
842.249	22550
842.385	22542
842.522	22774
842.659	22512
842.796	22470
842.933	22493
843.069	22424
843.206	22424
843.343	22462
843.479	22481
843.616	22466
843.752	22223
843.889	22238
844.025	22303
844.162	22314
844.298	22398
844.435	22143
844.571	22173
844.708	22360
844.844	22421
844.98	22329
845.117	22382
845.253	22124
845.389	22109
845.525	22207
845.661	22063
845.798	21983
845.934	22044
846.07	21941
846.206	21983
846.342	22082
846.478	21903
846.614	21835
846.75	21622
846.886	21690
847.022	21873
847.158	21587
847.294	21823
847.429	21823
847.565	21701
847.701	21968
847.837	21416
847.972	21382
848.108	21485
848.244	21564
848.379	21412
848.515	21325
848.65	21317
848.786	21359
848.921	21237
849.057	21306
849.192	21249
849.328	21389
849.463	21355
849.598	21252
849.734	21207
849.869	21135
850.004	21116
850.14	21154
850.275	21055
850.41	20990
850.545	21058
850.68	21058
850.815	21157
850.95	20990
851.085	21176
851.22	21108
851.355	21188
851.49	21070
851.625	21077
851.76	20994
851.895	20994
852.03	20899
852.165	21024
852.299	20979
852.434	21135
852.569	21077
852.703	21119
852.838	21142
852.973	21214
853.107	21142
853.242	20960
853.376	20872
853.511	20823
853.645	20902
853.78	20929
853.914	20956
854.048	20929
854.183	20937
854.317	20895
854.451	21188
854.585	20861
854.72	20929
854.854	20914
854.988	20807
855.122	21001
855.256	20800
855.39	20929
855.524	21043
855.658	20853
855.792	20883
855.926	20891
856.06	20990
856.194	20899
856.327	20883
856.461	20804
856.595	20739
856.729	20914
856.862	20986
856.996	20944
857.13	20933
857.263	21020
857.397	20925
857.53	20944
857.664	20914
857.797	20933
857.931	20998
858.064	20921
858.197	21085
858.331	20971
858.464	20838
858.597	20785
858.731	20861
858.864	20762
858.997	20864
859.13	20906
859.263	20853
859.396	20948
859.529	20914
859.662	20864
859.795	20883
859.928	20952
860.061	21062
860.194	21169
860.327	20960
860.46	20853
860.592	20982
860.725	21055
860.858	21020
860.99	20941
861.123	20952
861.256	20823
861.388	20952
861.521	21644
861.653	20834
861.786	20667
861.918	20781
862.05	20804
862.183	20845
862.315	20838
862.447	20929
862.58	20845
862.712	20575
862.844	20568
862.976	20693
863.108	20804
863.24	21043
863.372	20556
863.504	20674
863.636	20530
863.768	20655
863.9	20587
864.032	20587
864.164	20602
864.296	20682
864.428	20720
864.559	20575
864.691	20705
864.823	20640
864.954	20716
865.086	20530
865.217	20590
865.349	20465
865.48	20495
865.612	20442
865.743	20655
865.875	20514
866.006	20442
866.137	20522
866.269	20537
866.4	20507
866.531	20396
866.662	20389
866.793	20446
866.924	20450
867.055	20507
867.186	20568
867.317	20320
867.448	20533
867.579	20389
867.71	20381
867.841	20339
867.972	20442
868.103	20446
868.233	20423
868.364	20339
868.495	20480
868.625	20887
868.756	20765
868.886	20473
869.017	20655
869.147	20712
869.278	20800
869.408	20689
869.539	20537
869.669	20762
869.799	20804
869.929	20811
870.06	20754
870.19	20933
870.32	21036
870.45	20990
870.58	21066
870.71	21260
870.84	21218
870.97	21043
871.1	21081
871.23	21287
871.36	21287
871.489	21154
871.619	21348
871.749	21264
871.879	21336
872.008	21412
872.138	21275
872.267	21237
872.397	21241
872.526	20990
872.656	21100
872.785	21207
872.915	21374
873.044	21397
873.173	21306
873.303	21313
873.432	21370
873.561	21317
873.69	21340
873.819	21283
873.948	21450
874.077	21275
874.206	21195
874.335	21382
874.464	21340
874.593	21625
874.722	21564
874.851	21713
874.979	21507
875.108	21580
875.237	21549
875.365	21439
875.494	21530
875.623	21557
875.751	21618
875.88	21618
876.008	21686
876.136	21766
876.265	21991
876.393	22059
876.521	22048
876.65	22074
876.778	21964
876.906	21979
877.034	21732
877.162	21892
877.29	21846
877.418	21819
877.546	21884
877.674	21899
877.802	22010
877.93	21903
878.058	21816
878.185	21846
878.313	21842
878.441	21888
878.568	21751
878.696	21800
878.824	21987
878.951	21972
879.079	22074
879.206	22234
879.333	22120
879.461	21991
879.588	21930
879.715	22063
879.842	22306
879.97	21937
880.097	21804
880.224	21736
880.351	21759
880.478	21869
880.605	21698
880.732	21679
880.859	21911
880.986	21823
881.112	21705
881.239	21660
881.366	21435
881.493	21408
881.619	21355
881.746	21317
881.872	21268
881.999	21294
882.125	21207
882.252	21275
882.378	21336
882.505	21412
882.631	21135
882.757	21051
882.883	21116
883.01	20990
883.136	20998
883.262	20880
883.388	20819
883.514	20998
883.64	20982
883.766	21009
883.892	20807
884.018	20899
884.143	20906
884.269	21013
884.395	20705
884.52	20644
884.646	20663
884.772	20609
884.897	20571
885.023	20640
885.148	20697
885.274	20872
885.399	20804
885.524	20731
885.65	20731
885.775	20682
885.9	20781
886.025	20769
886.15	20705
886.275	20590
886.4	20533
886.525	20609
886.65	20651
886.775	20564
886.9	20689
887.025	20845
887.149	20606
887.274	20446
887.399	20473
887.523	20381
887.648	20301
887.773	20389
887.897	20473
888.021	20495
888.146	20328
888.27	20488
888.395	20575
888.519	20461
888.643	20568
888.767	20507
888.891	20267
889.015	20183
889.139	20370
889.263	20218
889.387	20317
889.511	20427
889.635	20408
889.759	20183
889.883	20229
890.006	20374
890.13	20294
890.254	20210
890.377	20180
890.501	20008
890.624	19879
890.748	19932
890.871	19807
890.995	19731
891.118	19761
891.241	19719
891.364	19811
891.488	20001
891.611	19902
891.734	19932
891.857	19871
891.98	19944
892.103	19822
892.226	19864
892.349	19769
892.471	19658
892.594	19742
892.717	19753
892.839	19655
892.962	19776
893.085	19841
893.207	19662
893.33	19662
893.452	19575
893.575	19807
893.697	19643
893.819	19856
893.941	19890
894.064	19879
894.186	19685
894.308	19795
894.43	19852
894.552	19921
894.674	19757
894.796	19601
894.918	19738
895.04	19655
895.161	19750
895.283	19845
895.405	19609
895.526	19750
895.648	19750
895.769	19655
895.891	19635
896.012	19868
896.134	19742
896.255	19700
896.376	19693
896.498	19647
896.619	19670
896.74	19811
896.861	19822
896.982	20054
897.103	20092
897.224	19982
897.345	19921
897.466	19974
897.587	19997
897.708	20039
897.828	20001
897.949	20024
898.07	19776
898.19	19898
898.311	20016
898.431	19932
898.552	20001
898.672	19978
898.792	19989
898.913	19925
899.033	19814
899.153	19727
899.273	19643
899.393	19738
899.513	19761
899.633	19727
899.753	19845
899.873	19746
899.993	19799
900.113	19734
900.232	19632
900.352	19605
900.472	19537
900.591	19529
900.711	19438
900.83	19480
900.95	19525
901.069	19597
901.189	19381
901.308	19255
901.427	19069
901.546	19183
901.665	19110
901.784	19080
901.904	19000
902.023	18825
902.141	18620
902.26	18681
902.379	18749
902.498	18726
902.617	18612
902.735	18608
902.854	18540
902.973	18563
903.091	18273
903.21	18323
903.328	18213
903.446	18277
903.565	18098
903.683	18041
903.801	18038
903.919	18041
904.038	18041
904.156	17843
904.274	17889
904.392	17786
904.51	17802
904.627	17843
904.745	17809
904.863	17950
904.981	17668
905.098	17577
905.216	17406
905.334	17497
905.451	17592
905.569	17512
905.686	17630
905.803	17501
905.921	17364
906.038	17334
906.155	17364
906.272	17178
906.389	17147
906.506	17121
906.623	16995
906.74	17086
906.857	16999
906.974	17025
907.091	17071
907.208	17261
907.324	17048
907.441	16972
907.557	16885
907.674	16839
907.79	16801
907.907	16694
908.023	16877
908.139	16786
908.256	16698
908.372	16706
908.488	16630
908.604	16626
908.72	16489
908.836	16470
908.952	16360
909.068	16504
909.184	16584
909.3	16512
909.415	16588
909.531	16569
909.647	16238
909.762	16299
909.878	16166
909.993	16242
910.108	16242
910.224	16211
910.339	16204
910.454	16124
910.57	16010
910.685	15998
910.8	16192
910.915	16109
911.03	15987
911.145	15915
911.259	15838
911.374	15819
911.489	15698
911.604	15675
911.718	15595
911.833	15595
911.947	15466
912.062	15416
912.176	15553
912.291	15523
912.405	15618
912.519	15720
912.633	15610
912.748	15648
912.862	15488
912.976	15378
913.09	15412
913.204	15329
913.318	15401
913.431	15458
913.545	15488
913.659	15515
913.772	15344
913.886	15272
914	15188
914.113	15260
914.226	15287
914.34	15355
914.453	15100
914.566	15180
914.68	15176
914.793	15093
914.906	14838
915.019	14769
915.132	14792
915.245	14754
915.358	14746
915.47	14872
915.583	14849
915.696	14834
915.809	14918
915.921	14914
916.034	14773
916.146	14739
916.259	14716
916.371	14785
916.483	14838
916.595	14667
916.708	14610
916.82	14621
916.932	14640
917.044	14598
917.156	14594
917.268	14480
917.38	14492
917.491	14495
917.603	14389
917.715	14598
917.826	14571
917.938	14461
918.049	14305
918.161	14381
918.272	14476
918.384	14537
918.495	14530
918.606	14229
918.717	14183
918.828	14244
918.939	14240
919.05	14134
919.161	14183
919.272	14069
919.383	14065
919.494	14256
919.604	14415
919.715	14347
919.826	14100
919.936	14206
920.047	14301
920.157	14172
920.267	14358
920.378	14210
920.488	14046
920.598	14313
920.708	14442
920.818	14370
920.928	14366
921.038	14469
921.148	14370
921.258	14233
921.368	14027
921.477	13932
921.587	13928
921.697	13871
921.806	14027
921.916	13734
922.025	13624
922.134	13518
922.244	13651
922.353	13700
922.462	13540
922.571	13445
922.68	13274
922.789	13156
922.898	13251
923.007	13141
923.116	13282
923.224	13225
923.333	13179
923.442	13080
923.55	13046
923.659	13107
923.767	13164
923.876	13076
923.984	13149
924.092	12924
924.201	13012
924.309	13034
924.417	12993
924.525	12905
924.633	12882
924.741	13689
924.849	12719
924.956	12928
925.064	12623
925.172	12681
925.279	12658
925.387	12741
925.494	12703
925.602	12814
925.709	12772
925.816	12509
925.924	12673
926.031	12646
926.138	12715
926.245	12563
926.352	12536
926.459	12665
926.566	12639
926.673	12559
926.779	12479
926.886	12414
926.993	12273
927.099	12159
927.206	12197
927.312	12235
927.419	12251
927.525	12289
927.631	12270
927.737	12133
927.843	12106
927.95	12015
928.056	12095
928.162	12072
928.267	12106
928.373	12681
928.479	12213
928.585	11935
928.69	12022
928.796	12155
928.901	11950
929.007	11866
929.112	11939
929.218	11889
929.323	11939
929.428	11923
929.533	11931
929.638	11767
929.743	11855
929.848	11904
929.953	11847
930.058	11668
930.163	11478
930.267	11497
930.372	11627
930.477	11493
930.581	11668
930.685	11630
930.79	11360
930.894	11463
930.998	11376
931.103	11528
931.207	11193
931.311	11117
931.415	11003
931.519	10850
931.623	10812
