Data from test_V78500241_367.txt Node
Date: Fri Mar 25 15:12:24 CST 2022
User: usil
Spectrometer: V785-0024
Trigger mode: 0
Integration Time (sec): 4.000000E-1
Scans to average: 1
Nonlinearity correction enabled: false
Boxcar width: 0
Storing dark spectrum: false
XAxis mode: Wavelengths
Number of Pixels in Spectrum: 1024
>>>>>Begin Spectral Data<<<<<
801.071	26960
801.214	26720
801.356	26739
801.499	26632
801.641	26442
801.783	26473
801.926	26530
802.068	26442
802.211	26389
802.353	26271
802.496	26206
802.638	26161
802.78	26149
802.923	26134
803.065	25989
803.208	26111
803.35	26145
803.492	26298
803.635	26206
803.777	26252
803.919	26381
804.061	26590
804.204	26229
804.346	26225
804.488	26142
804.63	26225
804.773	26084
804.915	26271
805.057	26366
805.199	26248
805.341	26298
805.483	26488
805.626	26370
805.768	26252
805.91	26221
806.052	26377
806.194	26419
806.336	26526
806.478	26282
806.62	26305
806.762	26503
806.904	26533
807.046	26902
807.188	26800
807.33	26769
807.472	26948
807.614	26686
807.756	26651
807.898	26571
808.04	26530
808.182	26518
808.324	26613
808.465	26579
808.607	26762
808.749	26712
808.891	26842
809.033	27089
809.174	26971
809.316	26811
809.458	26880
809.6	26845
809.741	27028
809.883	27081
810.025	27020
810.166	27226
810.308	27127
810.45	27081
810.591	27214
810.733	26979
810.875	26788
811.016	26735
811.158	26743
811.299	27043
811.441	27180
811.582	27043
811.724	26842
811.865	26929
812.007	26910
812.148	26826
812.29	26956
812.431	26990
812.573	27161
812.714	27329
812.855	27416
812.997	27542
813.138	27755
813.279	27530
813.421	27416
813.562	27473
813.703	27302
813.845	27074
813.986	27005
814.127	26796
814.268	26427
814.41	26697
814.551	26632
814.692	26469
814.833	26469
814.974	26499
815.115	26560
815.256	26442
815.397	26473
815.539	26434
815.68	26381
815.821	26374
815.962	26469
816.103	26431
816.244	26263
816.385	26103
816.526	26073
816.666	25913
816.807	25860
816.948	25871
817.089	25795
817.23	25974
817.371	25807
817.512	25894
817.653	25875
817.793	25833
817.934	25845
818.075	25849
818.216	25902
818.356	25674
818.497	25681
818.638	25392
818.778	25635
818.919	25582
819.06	25712
819.2	25666
819.341	25784
819.481	25715
819.622	25944
819.762	26115
819.903	26115
820.043	26187
820.184	26031
820.324	25944
820.465	25974
820.605	26005
820.746	25959
820.886	25772
821.026	25830
821.167	25902
821.307	25909
821.447	25818
821.588	25715
821.728	25609
821.868	25476
822.008	25369
822.149	25343
822.289	25457
822.429	25008
822.569	25038
822.709	24935
822.849	24734
822.99	24970
823.13	24859
823.27	24844
823.41	24642
823.55	24658
823.69	24635
823.83	24623
823.97	24642
824.11	24452
824.25	24353
824.389	24540
824.529	24574
824.669	24350
824.809	24544
824.949	24452
825.089	24532
825.228	24513
825.368	24353
825.508	24285
825.648	24361
825.787	24391
825.927	24365
826.067	24327
826.206	24228
826.346	24300
826.485	24327
826.625	24365
826.765	24403
826.904	24395
827.044	24079
827.183	23954
827.323	23965
827.462	24064
827.601	23999
827.741	23897
827.88	24072
828.02	24034
828.159	23973
828.298	24072
828.437	24224
828.577	24011
828.716	24076
828.855	24011
828.994	23775
829.134	23794
829.273	23760
829.412	23756
829.551	23775
829.69	23737
829.829	23817
829.968	23836
830.107	23726
830.246	23767
830.385	23703
830.524	23676
830.663	23619
830.802	23486
830.941	23376
831.08	23414
831.219	23402
831.357	23459
831.496	23691
831.635	23376
831.774	23395
831.913	23204
832.051	23261
832.19	23288
832.329	23166
832.467	23132
832.606	23003
832.744	22965
832.883	23227
833.022	22942
833.16	23048
833.299	23166
833.437	23083
833.576	23166
833.714	23143
833.852	23254
833.991	23231
834.129	23208
834.267	23189
834.406	23155
834.544	23151
834.682	23132
834.821	23094
834.959	23330
835.097	23075
835.235	23166
835.373	23014
835.511	23067
835.65	23003
835.788	23136
835.926	22820
836.064	22858
836.202	22820
836.34	22911
836.478	22991
836.615	22968
836.753	22987
836.891	23067
837.029	22991
837.167	22889
837.305	22881
837.443	22961
837.58	22759
837.718	22881
837.856	22862
837.993	22786
838.131	22892
838.269	22771
838.406	22752
838.544	22664
838.681	22485
838.819	22367
838.956	22284
839.094	22382
839.231	22356
839.369	22333
839.506	22725
839.643	22740
839.781	22253
839.918	22211
840.055	22299
840.193	22390
840.33	22230
840.467	22375
840.604	22325
840.742	22455
840.879	22200
841.016	22219
841.153	22234
841.29	22306
841.427	22253
841.564	22329
841.701	22135
841.838	22173
841.975	22150
842.112	22276
842.249	22055
842.385	21979
842.522	22223
842.659	21972
842.796	21983
842.933	22032
843.069	21922
843.206	21994
843.343	22082
843.479	22036
843.616	21979
843.752	21808
843.889	21876
844.025	21907
844.162	21720
844.298	21838
844.435	21869
844.571	21701
844.708	21698
844.844	21941
844.98	21911
845.117	21911
845.253	21709
845.389	21705
845.525	21686
845.661	21720
845.798	21496
845.934	21530
846.07	21408
846.206	21603
846.342	21568
846.478	21485
846.614	21310
846.75	21207
846.886	21306
847.022	21485
847.158	21233
847.294	21355
847.429	21302
847.565	21195
847.701	21515
847.837	21005
847.972	20891
848.108	21184
848.244	21051
848.379	20979
848.515	20811
848.65	20804
848.786	20788
848.921	20842
849.057	20967
849.192	21036
849.328	20906
849.463	20716
849.598	20769
849.734	20792
849.869	20731
850.004	20533
850.14	20583
850.275	20636
850.41	20583
850.545	20613
850.68	20663
850.815	20602
850.95	20564
851.085	20686
851.22	20781
851.355	20522
851.49	20526
851.625	20526
851.76	20499
851.895	20560
852.03	20454
852.165	20590
852.299	20659
852.434	20720
852.569	20670
852.703	20712
852.838	20663
852.973	20697
853.107	20777
853.242	20594
853.376	20511
853.511	20320
853.645	20385
853.78	20590
853.914	20514
854.048	20362
854.183	20415
854.317	20480
854.451	20644
854.585	20492
854.72	20457
854.854	20503
854.988	20305
855.122	20374
855.256	20221
855.39	20503
855.524	20541
855.658	20587
855.792	20511
855.926	20488
856.06	20423
856.194	20488
856.327	20450
856.461	20324
856.595	20480
856.729	20507
856.862	20587
856.996	20480
857.13	20590
857.263	20670
857.397	20568
857.53	20503
857.664	20412
857.797	20522
857.931	20545
858.064	20434
858.197	20552
858.331	20355
858.464	20457
858.597	20408
858.731	20469
858.864	20393
858.997	20431
859.13	20461
859.263	20362
859.396	20511
859.529	20457
859.662	20385
859.795	20415
859.928	20374
860.061	20625
860.194	20682
860.327	20423
860.46	20442
860.592	20545
860.725	20594
860.858	20545
860.99	20446
861.123	20286
861.256	20450
861.388	20541
861.521	20960
861.653	20389
861.786	20240
861.918	20301
862.05	20313
862.183	20374
862.315	20351
862.447	20450
862.58	20366
862.712	20187
862.844	20183
862.976	20126
863.108	20145
863.24	20545
863.372	20111
863.504	20191
863.636	20199
863.768	20267
863.9	20161
864.032	20157
864.164	20126
864.296	20210
864.428	20278
864.559	20301
864.691	20187
864.823	20233
864.954	20237
865.086	20168
865.217	20035
865.349	20039
865.48	20119
865.612	20103
865.743	20218
865.875	20103
866.006	19982
866.137	20081
866.269	20092
866.4	19993
866.531	20031
866.662	20081
866.793	20062
866.924	19936
867.055	19940
867.186	19947
867.317	19921
867.448	19860
867.579	20035
867.71	19894
867.841	19986
867.972	19940
868.103	20050
868.233	20031
868.364	20062
868.495	20065
868.625	20084
868.756	20290
868.886	20103
869.017	20142
869.147	20298
869.278	20377
869.408	20294
869.539	20210
869.669	20415
869.799	20313
869.929	20358
870.06	20374
870.19	20629
870.32	20587
870.45	20552
870.58	20575
870.71	20815
870.84	20826
870.97	20530
871.1	20579
871.23	20899
871.36	20876
871.489	20613
871.619	20788
871.749	20804
871.879	20785
872.008	20971
872.138	20819
872.267	20861
872.397	20750
872.526	20621
872.656	20682
872.785	20724
872.915	20838
873.044	20975
873.173	20807
873.303	20933
873.432	20948
873.561	21020
873.69	20925
873.819	20857
873.948	20982
874.077	20937
874.206	20804
874.335	20918
874.464	21017
874.593	21226
874.722	21135
874.851	21161
874.979	21020
875.108	21180
875.237	21066
875.365	21150
875.494	21108
875.623	21173
875.751	21043
875.88	21001
876.008	21180
876.136	21268
876.265	21492
876.393	21591
876.521	21595
876.65	21641
876.778	21408
876.906	21458
877.034	21530
877.162	21477
877.29	21420
877.418	21473
877.546	21618
877.674	21504
877.802	21469
877.93	21447
878.058	21344
878.185	21283
878.313	21450
878.441	21488
878.568	21306
878.696	21310
878.824	21439
878.951	21576
879.079	21591
879.206	21713
879.333	21583
879.461	21523
879.588	21675
879.715	21587
879.842	21774
879.97	21549
880.097	21325
880.224	21264
880.351	21332
880.478	21329
880.605	21298
880.732	21199
880.859	21542
880.986	21226
881.112	21332
881.239	21264
881.366	21085
881.493	21009
881.619	20876
881.746	20868
881.872	20819
881.999	20819
882.125	20804
882.252	20849
882.378	20804
882.505	21047
882.631	20746
882.757	20590
882.883	20609
883.01	20533
883.136	20579
883.262	20507
883.388	20507
883.514	20613
883.64	20773
883.766	20667
883.892	20454
884.018	20469
884.143	20511
884.269	20613
884.395	20286
884.52	20244
884.646	20229
884.772	20157
884.897	20119
885.023	20218
885.148	20317
885.274	20396
885.399	20305
885.524	20355
885.65	20256
885.775	20256
885.9	20202
886.025	20377
886.15	20332
886.275	20103
886.4	20088
886.525	20248
886.65	20176
886.775	20168
886.9	20358
887.025	20385
887.149	20237
887.274	20145
887.399	19947
887.523	19993
887.648	19898
887.773	19841
887.897	20130
888.021	20092
888.146	19898
888.27	20077
888.395	20164
888.519	20024
888.643	20035
888.767	20046
888.891	19993
889.015	19780
889.139	19856
889.263	19906
889.387	19967
889.511	19959
889.635	19932
889.759	19731
889.883	19765
890.006	19978
890.13	19841
890.254	19731
890.377	19811
890.501	19575
890.624	19559
890.748	19632
890.871	19548
890.995	19373
891.118	19354
891.241	19354
891.364	19392
891.488	19575
891.611	19487
891.734	19487
891.857	19354
891.98	19304
892.103	19419
892.226	19403
892.349	19430
892.471	19270
892.594	19354
892.717	19415
892.839	19320
892.962	19274
893.085	19362
893.207	19411
893.33	19209
893.452	19194
893.575	19373
893.697	19209
893.819	19476
893.941	19571
894.064	19400
894.186	19209
894.308	19194
894.43	19453
894.552	19521
894.674	19324
894.796	19377
894.918	19251
895.04	19282
895.161	19381
895.283	19407
895.405	19141
895.526	19316
895.648	19320
895.769	19381
895.891	19339
896.012	19381
896.134	19434
896.255	19369
896.376	19304
896.498	19381
896.619	19343
896.74	19460
896.861	19430
896.982	19643
897.103	19746
897.224	19571
897.345	19533
897.466	19548
897.587	19590
897.708	19685
897.828	19552
897.949	19441
898.07	19381
898.19	19495
898.311	19662
898.431	19499
898.552	19563
898.672	19700
898.792	19639
898.913	19704
899.033	19567
899.153	19453
899.273	19343
899.393	19312
899.513	19289
899.633	19346
899.753	19301
899.873	19358
899.993	19285
900.113	19266
900.232	19221
900.352	19343
900.472	19141
900.591	19118
900.711	19202
900.83	19069
900.95	19232
901.069	19232
901.189	19072
901.308	18837
901.427	18783
901.546	18783
901.665	18738
901.784	18585
901.904	18513
902.023	18547
902.141	18338
902.26	18388
902.379	18369
902.498	18277
902.617	18186
902.735	18308
902.854	18125
902.973	18163
903.091	17893
903.21	17904
903.328	17912
903.446	17874
903.565	17745
903.683	17745
903.801	17600
903.919	17668
904.038	17668
904.156	17566
904.274	17665
904.392	17509
904.51	17395
904.627	17429
904.745	17509
904.863	17478
904.981	17265
905.098	17128
905.216	17151
905.334	17204
905.451	17250
905.569	17185
905.686	17193
905.803	17147
905.921	17029
906.038	17094
906.155	17010
906.272	16812
906.389	17064
906.506	16744
906.623	16736
906.74	16725
906.857	16580
906.974	16519
907.091	16824
907.208	16843
907.324	16725
907.441	16618
907.557	16516
907.674	16508
907.79	16272
907.907	16394
908.023	16481
908.139	16367
908.256	16428
908.372	16428
908.488	16382
908.604	16272
908.72	16143
908.836	16204
908.952	16051
909.068	16204
909.184	16223
909.3	16173
909.415	16124
909.531	16177
909.647	15968
909.762	15945
909.878	15789
909.993	15895
910.108	15842
910.224	15842
910.339	15911
910.454	15732
910.57	15720
910.685	15667
910.8	15895
910.915	15698
911.03	15724
911.145	15511
911.259	15580
911.374	15538
911.489	15439
911.604	15405
911.718	15230
911.833	15249
911.947	15108
912.062	15039
912.176	15176
912.291	15275
912.405	15176
912.519	15431
912.633	15367
912.748	15233
912.862	15184
912.976	15070
913.09	14960
913.204	15077
913.318	14979
913.431	15165
913.545	15127
913.659	15066
913.772	15028
913.886	14963
914	14952
914.113	14899
914.226	15024
914.34	14914
914.453	14670
914.566	14952
914.68	14826
914.793	14826
914.906	14594
915.019	14514
915.132	14484
915.245	14480
915.358	14533
915.47	14461
915.583	14522
915.696	14461
915.809	14743
915.921	14670
916.034	14511
916.146	14450
916.259	14366
916.371	14499
916.483	14454
916.595	14328
916.708	14313
916.82	14317
916.932	14237
917.044	14282
917.156	14244
917.268	14218
917.38	14199
917.491	14103
917.603	14176
917.715	14248
917.826	14282
917.938	14134
918.049	14100
918.161	14126
918.272	14168
918.384	14244
918.495	14176
918.606	13970
918.717	13814
918.828	14001
918.939	14001
919.05	13814
919.161	13879
919.272	13719
919.383	13784
919.494	13959
919.604	14142
919.715	13951
919.826	13921
919.936	13925
920.047	13978
920.157	13898
920.267	13970
920.378	13944
920.488	13989
920.598	14012
920.708	14164
920.818	14088
920.928	14039
921.038	14229
921.148	14164
921.258	13909
921.368	13826
921.477	13647
921.587	13643
921.697	13685
921.806	13666
921.916	13499
922.025	13381
922.134	13365
922.244	13251
922.353	13289
922.462	13190
922.571	13084
922.68	12966
922.789	12852
922.898	12867
923.007	12943
923.116	13057
923.224	13004
923.333	13000
923.442	12795
923.55	12760
923.659	12859
923.767	12886
923.876	12749
923.984	12783
924.092	12700
924.201	12734
924.309	12726
924.417	12692
924.525	12646
924.633	12673
924.741	13411
924.849	12437
924.956	12642
925.064	12448
925.172	12407
925.279	12391
925.387	12448
925.494	12410
925.602	12429
925.709	12467
925.816	12369
925.924	12323
926.031	12490
926.138	12426
926.245	12456
926.352	12357
926.459	12441
926.566	12391
926.673	12285
926.779	12194
926.886	12254
926.993	12030
927.099	11977
927.206	12079
927.312	11935
927.419	12064
927.525	11988
927.631	12076
927.737	11916
927.843	11790
927.95	11726
928.056	11904
928.162	11817
928.267	11863
928.373	12395
928.479	11901
928.585	11783
928.69	11843
928.796	11901
928.901	11695
929.007	11589
929.112	11676
929.218	11699
929.323	11581
929.428	11570
929.533	11710
929.638	11543
929.743	11474
929.848	11592
929.953	11589
930.058	11379
930.163	11220
930.267	11299
930.372	11398
930.477	11220
930.581	11455
930.685	11299
930.79	11227
930.894	11178
930.998	11113
931.103	11288
931.207	10877
931.311	10831
931.415	10790
931.519	10611
931.623	10630
