Data from test_V78500241_359.txt Node
Date: Fri Mar 25 15:12:21 CST 2022
User: usil
Spectrometer: V785-0024
Trigger mode: 0
Integration Time (sec): 4.000000E-1
Scans to average: 1
Nonlinearity correction enabled: false
Boxcar width: 0
Storing dark spectrum: false
XAxis mode: Wavelengths
Number of Pixels in Spectrum: 1024
>>>>>Begin Spectral Data<<<<<
801.071	26940
801.214	26982
801.356	26594
801.499	26845
801.641	26537
801.783	26587
801.926	26495
802.068	26461
802.211	26377
802.353	26434
802.496	26317
802.638	26408
802.78	26077
802.923	26347
803.065	25959
803.208	26267
803.35	26149
803.492	26237
803.635	26343
803.777	26221
803.919	26389
804.061	26602
804.204	26244
804.346	26161
804.488	26351
804.63	26404
804.773	26263
804.915	26244
805.057	26484
805.199	26404
805.341	26351
805.483	26431
805.626	26328
805.768	26298
805.91	26355
806.052	26431
806.194	26419
806.336	26533
806.478	26514
806.62	26324
806.762	26568
806.904	26613
807.046	26826
807.188	26887
807.33	26918
807.472	27039
807.614	26826
807.756	26796
807.898	26625
808.04	26644
808.182	26674
808.324	26674
808.465	26621
808.607	26838
808.749	26883
808.891	27180
809.033	27268
809.174	27032
809.316	27104
809.458	27058
809.6	26956
809.741	27093
809.883	26998
810.025	27325
810.166	27233
810.308	27370
810.45	27329
810.591	27351
810.733	27017
810.875	27055
811.016	26921
811.158	26986
811.299	27116
811.441	27108
811.582	27112
811.724	27036
811.865	26944
812.007	27028
812.148	26929
812.29	26933
812.431	27180
812.573	27291
812.714	27492
812.855	27420
812.997	27557
813.138	27778
813.279	27667
813.421	27576
813.562	27496
813.703	27325
813.845	27252
813.986	26857
814.127	26845
814.268	26754
814.41	26773
814.551	26625
814.692	26667
814.833	26689
814.974	26579
815.115	26640
815.256	26583
815.397	26530
815.539	26552
815.68	26465
815.821	26404
815.962	26431
816.103	26366
816.244	26332
816.385	26115
816.526	26244
816.666	26096
816.807	25871
816.948	26039
817.089	26206
817.23	25917
817.371	25925
817.512	25887
817.653	25921
817.793	25864
817.934	25913
818.075	25959
818.216	25906
818.356	25875
818.497	25917
818.638	25780
818.778	25670
818.919	25651
819.06	25727
819.2	25849
819.341	25974
819.481	25966
819.622	25993
819.762	26229
819.903	26199
820.043	26119
820.184	26039
820.324	25928
820.465	26145
820.605	25928
820.746	25959
820.886	25879
821.026	26035
821.167	25898
821.307	26005
821.447	26058
821.588	25887
821.728	25731
821.868	25616
822.008	25441
822.149	25487
822.289	25441
822.429	25209
822.569	25114
822.709	25088
822.849	24867
822.99	24867
823.13	24890
823.27	24863
823.41	24772
823.55	24551
823.69	24719
823.83	24787
823.97	24582
824.11	24490
824.25	24429
824.389	24437
824.529	24601
824.669	24620
824.809	24639
824.949	24597
825.089	24574
825.228	24486
825.368	24334
825.508	24353
825.648	24456
825.787	24388
825.927	24445
826.067	24289
826.206	24323
826.346	24369
826.485	24369
826.625	24407
826.765	24547
826.904	24460
827.044	24159
827.183	24068
827.323	24064
827.462	24197
827.601	24167
827.741	24239
827.88	24197
828.02	24102
828.159	24148
828.298	24125
828.437	24117
828.577	24064
828.716	24197
828.855	24022
828.994	23969
829.134	23874
829.273	23923
829.412	23802
829.551	23695
829.69	23840
829.829	23893
829.968	23809
830.107	23836
830.246	23726
830.385	23775
830.524	23562
830.663	23539
830.802	23482
830.941	23474
831.08	23425
831.219	23562
831.357	23444
831.496	23638
831.635	23425
831.774	23345
831.913	23231
832.051	23277
832.19	23197
832.329	23292
832.467	23147
832.606	23155
832.744	23132
832.883	23147
833.022	23086
833.16	23239
833.299	23185
833.437	23307
833.576	23265
833.714	23143
833.852	23178
833.991	23216
834.129	23155
834.267	23273
834.406	23189
834.544	23239
834.682	23235
834.821	23140
834.959	23315
835.097	23113
835.235	23227
835.373	23258
835.511	23204
835.65	23086
835.788	23018
835.926	23018
836.064	22873
836.202	22858
836.34	23041
836.478	23102
836.615	22911
836.753	22980
836.891	23204
837.029	22999
837.167	22999
837.305	22991
837.443	22919
837.58	22885
837.718	22942
837.856	22984
837.993	22900
838.131	22782
838.269	22729
838.406	22828
838.544	22778
838.681	22626
838.819	22550
838.956	22405
839.094	22459
839.231	22459
839.369	22557
839.506	22774
839.643	22649
839.781	22356
839.918	22306
840.055	22333
840.193	22382
840.33	22379
840.467	22265
840.604	22405
840.742	22630
840.879	22215
841.016	22211
841.153	22135
841.29	22367
841.427	22242
841.564	22428
841.701	22405
841.838	22249
841.975	22223
842.112	22173
842.249	22230
842.385	22139
842.522	22329
842.659	22070
842.796	22036
842.933	22128
843.069	21998
843.206	22059
843.343	22078
843.479	22101
843.616	21968
843.752	21949
843.889	21793
844.025	21956
844.162	21739
844.298	22063
844.435	21899
844.571	21861
844.708	21884
844.844	22044
844.98	22002
845.117	21926
845.253	21884
845.389	21732
845.525	21682
845.661	21587
845.798	21583
845.934	21648
846.07	21622
846.206	21698
846.342	21656
846.478	21652
846.614	21530
846.75	21214
846.886	21302
847.022	21435
847.158	21332
847.294	21173
847.429	21340
847.565	21367
847.701	21545
847.837	21154
847.972	21001
848.108	21173
848.244	21195
848.379	20899
848.515	20910
848.65	20796
848.786	20925
848.921	20941
849.057	20963
849.192	20990
849.328	21020
849.463	20910
849.598	20872
849.734	20746
849.869	20804
850.004	20678
850.14	20667
850.275	20724
850.41	20644
850.545	20602
850.68	20644
850.815	20727
850.95	20678
851.085	20697
851.22	20708
851.355	20708
851.49	20724
851.625	20670
851.76	20598
851.895	20488
852.03	20579
852.165	20655
852.299	20693
852.434	20705
852.569	20686
852.703	20689
852.838	20674
852.973	20887
853.107	20762
853.242	20564
853.376	20636
853.511	20275
853.645	20499
853.78	20682
853.914	20495
854.048	20507
854.183	20442
854.317	20480
854.451	20629
854.585	20488
854.72	20457
854.854	20701
854.988	20484
855.122	20522
855.256	20286
855.39	20579
855.524	20507
855.658	20609
855.792	20552
855.926	20545
856.06	20556
856.194	20670
856.327	20484
856.461	20530
856.595	20450
856.729	20511
856.862	20629
856.996	20533
857.13	20632
857.263	20632
857.397	20518
857.53	20663
857.664	20564
857.797	20613
857.931	20571
858.064	20431
858.197	20602
858.331	20530
858.464	20499
858.597	20427
858.731	20518
858.864	20438
858.997	20484
859.13	20583
859.263	20571
859.396	20537
859.529	20514
859.662	20537
859.795	20473
859.928	20533
860.061	20686
860.194	20785
860.327	20537
860.46	20609
860.592	20594
860.725	20549
860.858	20530
860.99	20571
861.123	20336
861.256	20507
861.388	20507
861.521	21161
861.653	20366
861.786	20339
861.918	20366
862.05	20339
862.183	20404
862.315	20499
862.447	20488
862.58	20533
862.712	20240
862.844	20332
862.976	20332
863.108	20343
863.24	20659
863.372	20153
863.504	20195
863.636	20176
863.768	20210
863.9	20290
864.032	20172
864.164	20233
864.296	20282
864.428	20374
864.559	20275
864.691	20480
864.823	20267
864.954	20286
865.086	20259
865.217	20202
865.349	20103
865.48	20081
865.612	20206
865.743	20275
865.875	20134
866.006	20096
866.137	20122
866.269	20050
866.4	20176
866.531	20069
866.662	20020
866.793	20035
866.924	20043
867.055	20111
867.186	20039
867.317	20103
867.448	20008
867.579	20050
867.71	20107
867.841	19993
867.972	20119
868.103	20157
868.233	20115
868.364	20058
868.495	20180
868.625	20286
868.756	20473
868.886	20275
869.017	20191
869.147	20495
869.278	20377
869.408	20351
869.539	20347
869.669	20446
869.799	20298
869.929	20511
870.06	20358
870.19	20674
870.32	20648
870.45	20701
870.58	20648
870.71	20826
870.84	20967
870.97	20682
871.1	20663
871.23	20746
871.36	20883
871.489	20842
871.619	20842
871.749	20941
871.879	20883
872.008	21001
872.138	20956
872.267	20811
872.397	20838
872.526	20849
872.656	20792
872.785	20750
872.915	20937
873.044	21043
873.173	20826
873.303	21032
873.432	21001
873.561	21066
873.69	20929
873.819	20895
873.948	21036
874.077	20967
874.206	21013
874.335	20941
874.464	21161
874.593	21275
874.722	21100
874.851	21138
874.979	21203
875.108	21116
875.237	21176
875.365	21001
875.494	21146
875.623	21222
875.751	21192
875.88	21176
876.008	21340
876.136	21389
876.265	21549
876.393	21618
876.521	21739
876.65	21667
876.778	21701
876.906	21435
877.034	21523
877.162	21466
877.29	21454
877.418	21561
877.546	21526
877.674	21656
877.802	21599
877.93	21591
878.058	21477
878.185	21408
878.313	21447
878.441	21454
878.568	21332
878.696	21519
878.824	21538
878.951	21667
879.079	21823
879.206	21770
879.333	21770
879.461	21564
879.588	21625
879.715	21652
879.842	21724
879.97	21603
880.097	21359
880.224	21313
880.351	21359
880.478	21374
880.605	21332
880.732	21302
880.859	21701
880.986	21378
881.112	21332
881.239	21203
881.366	21131
881.493	21066
881.619	20971
881.746	20998
881.872	21043
881.999	20883
882.125	20826
882.252	20921
882.378	20838
882.505	20963
882.631	20750
882.757	20651
882.883	20716
883.01	20659
883.136	20678
883.262	20469
883.388	20545
883.514	20522
883.64	20629
883.766	20457
883.892	20412
884.018	20461
884.143	20648
884.269	20674
884.395	20499
884.52	20370
884.646	20389
884.772	20233
884.897	20191
885.023	20278
885.148	20575
885.274	20476
885.399	20423
885.524	20328
885.65	20294
885.775	20248
885.9	20164
886.025	20347
886.15	20476
886.275	20259
886.4	20202
886.525	20218
886.65	20229
886.775	20248
886.9	20412
887.025	20537
887.149	20229
887.274	20027
887.399	20054
887.523	20039
887.648	20024
887.773	19955
887.897	20195
888.021	20202
888.146	20050
888.27	20081
888.395	20301
888.519	20130
888.643	20054
888.767	20092
888.891	19940
889.015	19856
889.139	20027
889.263	19879
889.387	20054
889.511	20065
889.635	19986
889.759	19940
889.883	19856
890.006	19944
890.13	19906
890.254	19715
890.377	19849
890.501	19662
890.624	19624
890.748	19696
890.871	19605
890.995	19445
891.118	19476
891.241	19453
891.364	19430
891.488	19632
891.611	19449
891.734	19529
891.857	19476
891.98	19502
892.103	19438
892.226	19430
892.349	19358
892.471	19289
892.594	19373
892.717	19430
892.839	19445
892.962	19331
893.085	19457
893.207	19502
893.33	19244
893.452	19426
893.575	19476
893.697	19358
893.819	19590
893.941	19556
894.064	19495
894.186	19369
894.308	19308
894.43	19483
894.552	19525
894.674	19483
894.796	19339
894.918	19396
895.04	19392
895.161	19491
895.283	19419
895.405	19441
895.526	19350
895.648	19320
895.769	19411
895.891	19487
896.012	19495
896.134	19605
896.255	19403
896.376	19392
896.498	19476
896.619	19460
896.74	19400
896.861	19419
896.982	19712
897.103	19807
897.224	19632
897.345	19639
897.466	19499
897.587	19769
897.708	19833
897.828	19666
897.949	19609
898.07	19476
898.19	19510
898.311	19655
898.431	19613
898.552	19700
898.672	19681
898.792	19750
898.913	19601
899.033	19510
899.153	19476
899.273	19354
899.393	19411
899.513	19472
899.633	19434
899.753	19381
899.873	19232
899.993	19426
900.113	19335
900.232	19312
900.352	19384
900.472	19289
900.591	19145
900.711	19137
900.83	19046
900.95	19236
901.069	19164
901.189	19004
901.308	18863
901.427	18696
901.546	18684
901.665	18875
901.784	18844
901.904	18642
902.023	18513
902.141	18475
902.26	18342
902.379	18357
902.498	18289
902.617	18209
902.735	18235
902.854	18224
902.973	18224
903.091	17885
903.21	17965
903.328	17992
903.446	17790
903.565	17767
903.683	17691
903.801	17729
903.919	17840
904.038	17653
904.156	17608
904.274	17630
904.392	17455
904.51	17535
904.627	17596
904.745	17687
904.863	17535
904.981	17364
905.098	17212
905.216	17235
905.334	17242
905.451	17239
905.569	17235
905.686	17193
905.803	17197
905.921	17094
906.038	17060
906.155	16991
906.272	16904
906.389	16934
906.506	16717
906.623	16850
906.74	16793
906.857	16660
906.974	16759
907.091	16923
907.208	16850
907.324	16736
907.441	16710
907.557	16630
907.674	16569
907.79	16436
907.907	16462
908.023	16485
908.139	16474
908.256	16478
908.372	16451
908.488	16379
908.604	16204
908.72	16109
908.836	16196
908.952	16150
909.068	16226
909.184	16344
909.3	16166
909.415	16109
909.531	16131
909.647	15937
909.762	16013
909.878	15949
909.993	15865
910.108	15956
910.224	15880
910.339	15857
910.454	15698
910.57	15778
910.685	15698
910.8	15949
910.915	15926
911.03	15778
911.145	15553
911.259	15504
911.374	15591
911.489	15534
911.604	15439
911.718	15291
911.833	15355
911.947	15283
912.062	15131
912.176	15279
912.291	15233
912.405	15336
912.519	15534
912.633	15462
912.748	15367
912.862	15370
912.976	14998
913.09	14823
913.204	14986
913.318	15180
913.431	15207
913.545	15256
913.659	15222
913.772	15077
913.886	14895
914	14883
914.113	15047
914.226	15036
914.34	15020
914.453	14697
914.566	14925
914.68	14792
914.793	14693
914.906	14617
915.019	14560
915.132	14514
915.245	14552
915.358	14625
915.47	14594
915.583	14541
915.696	14610
915.809	14587
915.921	14670
916.034	14602
916.146	14396
916.259	14446
916.371	14480
916.483	14446
916.595	14389
916.708	14415
916.82	14320
916.932	14355
917.044	14313
917.156	14351
917.268	14202
917.38	14267
917.491	14263
917.603	14142
917.715	14370
917.826	14301
917.938	14027
918.049	14149
918.161	14088
918.272	14267
918.384	14347
918.495	14065
918.606	14008
918.717	13974
918.828	14027
918.939	14039
919.05	13955
919.161	14031
919.272	13841
919.383	13776
919.494	13989
919.604	14164
919.715	14024
919.826	13906
919.936	13883
920.047	14043
920.157	13963
920.267	14161
920.378	14077
920.488	13978
920.598	14206
920.708	14176
920.818	14077
920.928	14138
921.038	14256
921.148	14176
921.258	13913
921.368	13776
921.477	13746
921.587	13753
921.697	13571
921.806	13651
921.916	13586
922.025	13434
922.134	13304
922.244	13278
922.353	13403
922.462	13251
922.571	13168
922.68	13050
922.789	12951
922.898	12985
923.007	12973
923.116	13046
923.224	13042
923.333	13012
923.442	12966
923.55	12840
923.659	12856
923.767	12863
923.876	12760
923.984	12829
924.092	12688
924.201	12791
924.309	12817
924.417	12738
924.525	12681
924.633	12722
924.741	13472
924.849	12509
924.956	12654
925.064	12456
925.172	12437
925.279	12471
925.387	12460
925.494	12369
925.602	12574
925.709	12532
925.816	12376
925.924	12452
926.031	12391
926.138	12422
926.245	12486
926.352	12277
926.459	12441
926.566	12448
926.673	12273
926.779	12201
926.886	12190
926.993	12106
927.099	12057
927.206	11999
927.312	11942
927.419	12068
927.525	12045
927.631	12038
927.737	11912
927.843	11931
927.95	11748
928.056	11798
928.162	11851
928.267	11840
928.373	12426
928.479	11923
928.585	11703
928.69	11813
928.796	11767
928.901	11680
929.007	11581
929.112	11703
929.218	11680
929.323	11589
929.428	11688
929.533	11737
929.638	11509
929.743	11547
929.848	11668
929.953	11532
930.058	11471
930.163	11303
930.267	11307
930.372	11395
930.477	11315
930.581	11493
930.685	11383
930.79	11170
930.894	11136
930.998	11174
931.103	11303
931.207	10987
931.311	10873
931.415	10786
931.519	10637
931.623	10504
