Data from test_V78500241_3527.txt Node
Date: Fri Mar 25 15:34:25 CST 2022
User: usil
Spectrometer: V785-0024
Trigger mode: 0
Integration Time (sec): 4.000000E-1
Scans to average: 1
Nonlinearity correction enabled: false
Boxcar width: 0
Storing dark spectrum: false
XAxis mode: Wavelengths
Number of Pixels in Spectrum: 1024
>>>>>Begin Spectral Data<<<<<
801.071	27336
801.214	27386
801.356	26914
801.499	26963
801.641	26902
801.783	26849
801.926	27009
802.068	26895
802.211	26682
802.353	26724
802.496	26613
802.638	26556
802.78	26450
802.923	26488
803.065	26385
803.208	26374
803.35	26617
803.492	26716
803.635	26689
803.777	26735
803.919	26682
804.061	26998
804.204	26765
804.346	26541
804.488	26629
804.63	26731
804.773	26552
804.915	26670
805.057	26792
805.199	26640
805.341	26743
805.483	26899
805.626	26781
805.768	26655
805.91	26796
806.052	26739
806.194	26762
806.336	26853
806.478	26849
806.62	26739
806.762	26887
806.904	27028
807.046	27294
807.188	27241
807.33	27165
807.472	27329
807.614	27043
807.756	27150
807.898	27108
808.04	26864
808.182	26864
808.324	27085
808.465	27066
808.607	27081
808.749	27367
808.891	27534
809.033	27504
809.174	27435
809.316	27355
809.458	27408
809.6	27469
809.741	27481
809.883	27469
810.025	27709
810.166	27633
810.308	27755
810.45	27675
810.591	27629
810.733	27374
810.875	27408
811.016	27359
811.158	27317
811.299	27473
811.441	27466
811.582	27534
811.724	27348
811.865	27268
812.007	27302
812.148	27340
812.29	27526
812.431	27504
812.573	27827
812.714	27759
812.855	27892
812.997	28109
813.138	28223
813.279	28036
813.421	27899
813.562	27785
813.703	27778
813.845	27580
813.986	27279
814.127	27176
814.268	27157
814.41	27138
814.551	26937
814.692	27207
814.833	27032
814.974	27043
815.115	27100
815.256	26975
815.397	27028
815.539	26986
815.68	26773
815.821	26750
815.962	26750
816.103	26765
816.244	26598
816.385	26640
816.526	26556
816.666	26339
816.807	26267
816.948	26461
817.089	26507
817.23	26339
817.371	26214
817.512	26328
817.653	26408
817.793	26290
817.934	26332
818.075	26191
818.216	26404
818.356	26225
818.497	26187
818.638	25963
818.778	25986
818.919	26024
819.06	26206
819.2	26157
819.341	26278
819.481	26278
819.622	26556
819.762	26632
819.903	26575
820.043	26636
820.184	26545
820.324	26457
820.465	26480
820.605	26530
820.746	26473
820.886	26240
821.026	26473
821.167	26313
821.307	26473
821.447	26370
821.588	26187
821.728	26153
821.868	25951
822.008	25772
822.149	25807
822.289	25750
822.429	25616
822.569	25381
822.709	25575
822.849	25312
822.99	25384
823.13	25206
823.27	25335
823.41	25137
823.55	25008
823.69	25103
823.83	25171
823.97	24970
824.11	24954
824.25	24996
824.389	25088
824.529	24924
824.669	25008
824.809	25012
824.949	24970
825.089	25088
825.228	24951
825.368	24837
825.508	24741
825.648	24871
825.787	24810
825.927	24833
826.067	24730
826.206	24779
826.346	24825
826.485	24848
826.625	24722
826.765	24916
826.904	24909
827.044	24593
827.183	24650
827.323	24532
827.462	24631
827.601	24498
827.741	24509
827.88	24486
828.02	24429
828.159	24498
828.298	24486
828.437	24547
828.577	24471
828.716	24528
828.855	24407
828.994	24334
829.134	24159
829.273	24167
829.412	24277
829.551	24277
829.69	24277
829.829	24247
829.968	24300
830.107	24262
830.246	24190
830.385	24182
830.524	24087
830.663	24121
830.802	24079
830.941	23874
831.08	23824
831.219	23946
831.357	24034
831.496	24041
831.635	23843
831.774	23786
831.913	23737
832.051	23714
832.19	23573
832.329	23687
832.467	23585
832.606	23474
832.744	23573
832.883	23566
833.022	23589
833.16	23630
833.299	23535
833.437	23478
833.576	23630
833.714	23733
833.852	23695
833.991	23604
834.129	23558
834.267	23668
834.406	23668
834.544	23714
834.682	23543
834.821	23638
834.959	23699
835.097	23512
835.235	23710
835.373	23581
835.511	23608
835.65	23512
835.788	23512
835.926	23376
836.064	23181
836.202	23204
836.34	23516
836.478	23516
836.615	23395
836.753	23417
836.891	23395
837.029	23505
837.167	23421
837.305	23322
837.443	23436
837.58	23334
837.718	23368
837.856	23360
837.993	23292
838.131	23269
838.269	23056
838.406	23204
838.544	23117
838.681	22919
838.819	22847
838.956	22812
839.094	22816
839.231	22858
839.369	22953
839.506	23170
839.643	23060
839.781	22828
839.918	22721
840.055	22877
840.193	22763
840.33	22763
840.467	22774
840.604	22706
840.742	22889
840.879	22622
841.016	22634
841.153	22634
841.29	22786
841.427	22733
841.564	22725
841.701	22607
841.838	22656
841.975	22542
842.112	22698
842.249	22729
842.385	22554
842.522	22710
842.659	22546
842.796	22462
842.933	22440
843.069	22337
843.206	22382
843.343	22538
843.479	22508
843.616	22478
843.752	22280
843.889	22344
844.025	22398
844.162	22200
844.298	22367
844.435	22234
844.571	22196
844.708	22405
844.844	22402
844.98	22356
845.117	22306
845.253	22147
845.389	22162
845.525	22265
845.661	22029
845.798	21987
845.934	22093
846.07	22032
846.206	22040
846.342	22059
846.478	22025
846.614	21785
846.75	21614
846.886	21705
847.022	21861
847.158	21838
847.294	21774
847.429	21842
847.565	21663
847.701	22010
847.837	21454
847.972	21359
848.108	21454
848.244	21542
848.379	21439
848.515	21336
848.65	21325
848.786	21302
848.921	21401
849.057	21401
849.192	21378
849.328	21424
849.463	21424
849.598	21245
849.734	21329
849.869	21138
850.004	21104
850.14	21081
850.275	21112
850.41	21047
850.545	21009
850.68	21150
850.815	21028
850.95	21135
851.085	21275
851.22	21332
851.355	21157
851.49	21100
851.625	21058
851.76	21058
851.895	20975
852.03	21024
852.165	21043
852.299	20982
852.434	21226
852.569	21138
852.703	21028
852.838	21165
852.973	21180
853.107	21298
853.242	20937
853.376	21032
853.511	20693
853.645	20895
853.78	21123
853.914	20941
854.048	20899
854.183	20815
854.317	20956
854.451	20986
854.585	20895
854.72	20887
854.854	21005
854.988	20895
855.122	20933
855.256	20754
855.39	20754
855.524	21020
855.658	20929
855.792	20998
855.926	20906
856.06	20944
856.194	20937
856.327	20921
856.461	20883
856.595	20925
856.729	20845
856.862	21051
856.996	20944
857.13	21005
857.263	20925
857.397	20963
857.53	20960
857.664	21013
857.797	20910
857.931	21062
858.064	21089
858.197	21074
858.331	20864
858.464	20864
858.597	20864
858.731	20838
858.864	21005
858.997	20853
859.13	20887
859.263	20994
859.396	20975
859.529	20952
859.662	20845
859.795	20948
859.928	20963
860.061	21062
860.194	21104
860.327	20990
860.46	20998
860.592	20948
860.725	21047
860.858	21093
860.99	20891
861.123	20883
861.256	20746
861.388	20937
861.521	21739
861.653	20739
861.786	20876
861.918	20754
862.05	20788
862.183	20849
862.315	20800
862.447	20952
862.58	20914
862.712	20648
862.844	20705
862.976	20708
863.108	20720
863.24	20994
863.372	20640
863.504	20678
863.636	20640
863.768	20712
863.9	20708
864.032	20659
864.164	20533
864.296	20678
864.428	20689
864.559	20678
864.691	20667
864.823	20636
864.954	20537
865.086	20617
865.217	20678
865.349	20404
865.48	20442
865.612	20495
865.743	20640
865.875	20663
866.006	20484
866.137	20530
866.269	20613
866.4	20473
866.531	20507
866.662	20408
866.793	20473
866.924	20461
867.055	20381
867.186	20476
867.317	20537
867.448	20320
867.579	20381
867.71	20404
867.841	20415
867.972	20442
868.103	20522
868.233	20537
868.364	20461
868.495	20552
868.625	20632
868.756	20800
868.886	20617
869.017	20769
869.147	20750
869.278	20735
869.408	20708
869.539	20804
869.669	20830
869.799	20788
869.929	20868
870.06	20765
870.19	21058
870.32	21039
870.45	20937
870.58	21093
870.71	21157
870.84	21093
870.97	21077
871.1	21123
871.23	21317
871.36	21332
871.489	21256
871.619	21367
871.749	21260
871.879	21340
872.008	21462
872.138	21302
872.267	21439
872.397	21226
872.526	21165
872.656	21161
872.785	21104
872.915	21279
873.044	21386
873.173	21245
873.303	21348
873.432	21500
873.561	21504
873.69	21481
873.819	21348
873.948	21397
874.077	21302
874.206	21275
874.335	21275
874.464	21382
874.593	21633
874.722	21507
874.851	21629
874.979	21606
875.108	21568
875.237	21564
875.365	21462
875.494	21561
875.623	21762
875.751	21492
875.88	21580
876.008	21762
876.136	21876
876.265	21949
876.393	22185
876.521	22082
876.65	22086
876.778	21930
876.906	21949
877.034	21884
877.162	21960
877.29	21937
877.418	21857
877.546	21865
877.674	21926
877.802	21838
877.93	21972
878.058	21846
878.185	21816
878.313	21778
878.441	21934
878.568	21614
878.696	21880
878.824	21979
878.951	22101
879.079	22109
879.206	22257
879.333	22128
879.461	22063
879.588	22082
879.715	22055
879.842	22158
879.97	22036
880.097	21701
880.224	21728
880.351	21922
880.478	21838
880.605	21804
880.732	21698
880.859	21960
880.986	21846
881.112	21823
881.239	21595
881.366	21519
881.493	21370
881.619	21351
881.746	21214
881.872	21230
881.999	21336
882.125	21207
882.252	21329
882.378	21363
882.505	21363
882.631	21272
882.757	21135
882.883	21108
883.01	21146
883.136	21032
883.262	20971
883.388	20826
883.514	21017
883.64	21112
883.766	20864
883.892	20796
884.018	20842
884.143	20967
884.269	21062
884.395	20819
884.52	20583
884.646	20697
884.772	20644
884.897	20697
885.023	20651
885.148	20765
885.274	20842
885.399	20842
885.524	20617
885.65	20659
885.775	20636
885.9	20514
886.025	20716
886.15	20754
886.275	20575
886.4	20480
886.525	20750
886.65	20648
886.775	20632
886.9	20792
887.025	20864
887.149	20667
887.274	20533
887.399	20484
887.523	20324
887.648	20358
887.773	20324
887.897	20537
888.021	20537
888.146	20469
888.27	20606
888.395	20575
888.519	20488
888.643	20480
888.767	20530
888.891	20351
889.015	20317
889.139	20229
889.263	20259
889.387	20324
889.511	20480
889.635	20381
889.759	20328
889.883	20191
890.006	20244
890.13	20374
890.254	20199
890.377	20187
890.501	19890
890.624	19974
890.748	20001
890.871	19997
890.995	19864
891.118	19803
891.241	19864
891.364	19830
891.488	20016
891.611	19883
891.734	19826
891.857	19997
891.98	19772
892.103	19932
892.226	19917
892.349	19830
892.471	19677
892.594	19639
892.717	19757
892.839	19734
892.962	19742
893.085	19856
893.207	19799
893.33	19639
893.452	19734
893.575	19784
893.697	19845
893.819	19803
893.941	19951
894.064	19868
894.186	19700
894.308	19662
894.43	19871
894.552	19875
894.674	19868
894.796	19647
894.918	19715
895.04	19731
895.161	19856
895.283	19674
895.405	19658
895.526	19799
895.648	19746
895.769	19742
895.891	19696
896.012	19852
896.134	19788
896.255	19643
896.376	19765
896.498	19674
896.619	19788
896.74	19871
896.861	19674
896.982	20134
897.103	20271
897.224	19986
897.345	20024
897.466	19940
897.587	20050
897.708	19986
897.828	19951
897.949	19940
898.07	20001
898.19	19940
898.311	20031
898.431	19936
898.552	20039
898.672	20100
898.792	20005
898.913	19917
899.033	19925
899.153	19856
899.273	19772
899.393	19814
899.513	19799
899.633	19849
899.753	19807
899.873	19681
899.993	19609
900.113	19620
900.232	19655
900.352	19605
900.472	19552
900.591	19419
900.711	19533
900.83	19609
900.95	19419
901.069	19761
901.189	19411
901.308	19194
901.427	19076
901.546	19171
901.665	19171
901.784	19099
901.904	18920
902.023	18802
902.141	18646
902.26	18696
902.379	18669
902.498	18681
902.617	18589
902.735	18551
902.854	18429
902.973	18528
903.091	18216
903.21	18228
903.328	18292
903.446	18216
903.565	18121
903.683	18129
903.801	18076
903.919	18019
904.038	18049
904.156	17764
904.274	17969
904.392	17931
904.51	17832
904.627	17939
904.745	17954
904.863	17954
904.981	17657
905.098	17722
905.216	17547
905.334	17577
905.451	17539
905.569	17490
905.686	17623
905.803	17520
905.921	17372
906.038	17395
906.155	17376
906.272	17242
906.389	17212
906.506	17064
906.623	17029
906.74	17014
906.857	16999
906.974	16968
907.091	17079
907.208	17227
907.324	17140
907.441	16991
907.557	16892
907.674	16843
907.79	16755
907.907	16778
908.023	16869
908.139	16839
908.256	16778
908.372	16645
908.488	16778
908.604	16618
908.72	16459
908.836	16603
908.952	16432
909.068	16497
909.184	16694
909.3	16519
909.415	16588
909.531	16516
909.647	16284
909.762	16204
909.878	16257
909.993	16166
910.108	16143
910.224	16162
910.339	16215
910.454	16090
910.57	16074
910.685	15895
910.8	16181
910.915	16128
911.03	16090
911.145	15892
911.259	15831
911.374	15899
911.489	15720
911.604	15797
911.718	15606
911.833	15648
911.947	15625
912.062	15382
912.176	15538
912.291	15599
912.405	15644
912.519	15732
912.633	15884
912.748	15603
912.862	15507
912.976	15504
913.09	15306
913.204	15355
913.318	15511
913.431	15450
913.545	15405
913.659	15526
913.772	15481
913.886	15260
914	15131
914.113	15310
914.226	15275
914.34	15245
914.453	15009
914.566	15302
914.68	15097
914.793	15119
914.906	14998
915.019	14826
915.132	14773
915.245	14815
915.358	14864
915.47	14807
915.583	14857
915.696	14758
915.809	14956
915.921	14944
916.034	14758
916.146	14834
916.259	14674
916.371	14849
916.483	14834
916.595	14674
916.708	14701
916.82	14670
916.932	14644
917.044	14621
917.156	14590
917.268	14457
917.38	14526
917.491	14518
917.603	14476
917.715	14556
917.826	14617
917.938	14450
918.049	14309
918.161	14412
918.272	14564
918.384	14514
918.495	14492
918.606	14438
918.717	14183
918.828	14290
918.939	14240
919.05	14180
919.161	14221
919.272	13963
919.383	14123
919.494	14377
919.604	14408
919.715	14256
919.826	14202
919.936	14271
920.047	14305
920.157	14305
920.267	14419
920.378	14305
920.488	14214
920.598	14385
920.708	14530
920.818	14324
920.928	14362
921.038	14541
921.148	14461
921.258	14183
921.368	14084
921.477	14084
921.587	13989
921.697	13811
921.806	13921
921.916	13909
922.025	13655
922.134	13651
922.244	13567
922.353	13689
922.462	13487
922.571	13491
922.68	13301
922.789	13350
922.898	13225
923.007	13247
923.116	13278
923.224	13270
923.333	13217
923.442	13141
923.55	13149
923.659	13168
923.767	13114
923.876	13152
923.984	13179
924.092	12951
924.201	13107
924.309	13000
924.417	12943
924.525	13065
924.633	13065
924.741	13734
924.849	12684
924.956	12817
925.064	12604
925.172	12578
925.279	12707
925.387	12700
925.494	12715
925.602	12920
925.709	12745
925.816	12612
925.924	12635
926.031	12760
926.138	12555
926.245	12631
926.352	12658
926.459	12665
926.566	12665
926.673	12646
926.779	12479
926.886	12475
926.993	12270
927.099	12201
927.206	12235
927.312	12194
927.419	12334
927.525	12266
927.631	12319
927.737	12178
927.843	12159
927.95	12030
928.056	12106
928.162	12140
928.267	12159
928.373	12684
928.479	12167
928.585	11969
928.69	12125
928.796	12129
928.901	11961
929.007	11828
929.112	11908
929.218	11958
929.323	11843
929.428	11809
929.533	11958
929.638	11752
929.743	11828
929.848	11748
929.953	11821
930.058	11615
930.163	11452
930.267	11509
930.372	11661
930.477	11486
930.581	11790
930.685	11570
930.79	11349
930.894	11410
930.998	11406
931.103	11497
931.207	11136
931.311	10999
931.415	11060
931.519	10790
931.623	10850
