Data from test_V78500241_2468.txt Node
Date: Fri Mar 25 15:27:02 CST 2022
User: usil
Spectrometer: V785-0024
Trigger mode: 0
Integration Time (sec): 4.000000E-1
Scans to average: 1
Nonlinearity correction enabled: false
Boxcar width: 0
Storing dark spectrum: false
XAxis mode: Wavelengths
Number of Pixels in Spectrum: 1024
>>>>>Begin Spectral Data<<<<<
801.071	27051
801.214	26952
801.356	26701
801.499	26632
801.641	26476
801.783	26404
801.926	26514
802.068	26488
802.211	26431
802.353	26282
802.496	26107
802.638	26176
802.78	25970
802.923	25890
803.065	26088
803.208	26054
803.35	26043
803.492	26282
803.635	26290
803.777	26187
803.919	26237
804.061	26495
804.204	26370
804.346	26138
804.488	26107
804.63	26317
804.773	26187
804.915	26336
805.057	26442
805.199	26313
805.341	26332
805.483	26301
805.626	26419
805.768	26180
805.91	26412
806.052	26301
806.194	26362
806.336	26423
806.478	26362
806.62	26377
806.762	26469
806.904	26526
807.046	26880
807.188	26735
807.33	26940
807.472	26731
807.614	26621
807.756	26724
807.898	26651
808.04	26564
808.182	26594
808.324	26644
808.465	26621
808.607	26811
808.749	26910
808.891	27009
809.033	27051
809.174	27013
809.316	27009
809.458	26963
809.6	26952
809.741	27096
809.883	27017
810.025	27252
810.166	27214
810.308	27249
810.45	27241
810.591	26998
810.733	26940
810.875	26937
811.016	26823
811.158	26933
811.299	27108
811.441	27386
811.582	27142
811.724	26967
811.865	26975
812.007	26792
812.148	26929
812.29	26967
812.431	26998
812.573	27157
812.714	27199
812.855	27405
812.997	27355
813.138	27629
813.279	27583
813.421	27549
813.562	27268
813.703	27207
813.845	27119
813.986	26826
814.127	26746
814.268	26575
814.41	26617
814.551	26423
814.692	26602
814.833	26552
814.974	26545
815.115	26629
815.256	26419
815.397	26450
815.539	26351
815.68	26438
815.821	26290
815.962	26351
816.103	26153
816.244	26324
816.385	26256
816.526	26145
816.666	26020
816.807	25928
816.948	25906
817.089	25936
817.23	25883
817.371	25761
817.512	25860
817.653	25647
817.793	25753
817.934	25822
818.075	25883
818.216	25700
818.356	25898
818.497	25742
818.638	25518
818.778	25567
818.919	25632
819.06	25693
819.2	25712
819.341	25791
819.481	25902
819.622	25902
819.762	26149
819.903	26088
820.043	25868
820.184	25978
820.324	25894
820.465	25940
820.605	25856
820.746	25940
820.886	25814
821.026	26005
821.167	25890
821.307	25849
821.447	25723
821.588	25597
821.728	25609
821.868	25495
822.008	25407
822.149	25331
822.289	25304
822.429	25008
822.569	24916
822.709	25069
822.849	24829
822.99	24741
823.13	24776
823.27	24814
823.41	24525
823.55	24566
823.69	24707
823.83	24661
823.97	24467
824.11	24289
824.25	24422
824.389	24437
824.529	24521
824.669	24452
824.809	24547
824.949	24422
825.089	24490
825.228	24414
825.368	24258
825.508	24327
825.648	24315
825.787	24334
825.927	24418
826.067	24342
826.206	24186
826.346	24251
826.485	24410
826.625	24327
826.765	24460
826.904	24205
827.044	24273
827.183	24228
827.323	23912
827.462	24110
827.601	24110
827.741	24011
827.88	24072
828.02	23946
828.159	24038
828.298	24015
828.437	24091
828.577	23901
828.716	24015
828.855	23904
828.994	23809
829.134	23638
829.273	23714
829.412	23714
829.551	23539
829.69	23843
829.829	23710
829.968	23817
830.107	23843
830.246	23707
830.385	23745
830.524	23600
830.663	23543
830.802	23402
830.941	23433
831.08	23299
831.219	23337
831.357	23383
831.496	23501
831.635	23341
831.774	23223
831.913	23170
832.051	23140
832.19	23155
832.329	23109
832.467	23014
832.606	23071
832.744	22793
832.883	23006
833.022	22949
833.16	23071
833.299	23056
833.437	22968
833.576	23102
833.714	23071
833.852	23067
833.991	23189
834.129	22957
834.267	23132
834.406	23079
834.544	23181
834.682	23090
834.821	23098
834.959	23258
835.097	22976
835.235	23239
835.373	23010
835.511	22984
835.65	23067
835.788	22942
835.926	22797
836.064	22679
836.202	22748
836.34	22968
836.478	22980
836.615	22908
836.753	22812
836.891	22961
837.029	23003
837.167	22889
837.305	22885
837.443	22752
837.58	22797
837.718	22854
837.856	22896
837.993	22725
838.131	22706
838.269	22641
838.406	22729
838.544	22656
838.681	22424
838.819	22481
838.956	22150
839.094	22246
839.231	22329
839.369	22405
839.506	22634
839.643	22504
839.781	22215
839.918	22306
840.055	22192
840.193	22265
840.33	22242
840.467	22196
840.604	22352
840.742	22504
840.879	22181
841.016	22257
841.153	22143
841.29	22325
841.427	22196
841.564	22204
841.701	22226
841.838	22162
841.975	22147
842.112	22166
842.249	22177
842.385	22116
842.522	22341
842.659	22211
842.796	21953
842.933	22044
843.069	21907
843.206	22051
843.343	22017
843.479	21979
843.616	21968
843.752	21793
843.889	21827
844.025	21854
844.162	21679
844.298	21876
844.435	21717
844.571	21694
844.708	21717
844.844	21770
844.98	21819
845.117	21717
845.253	21599
845.389	21633
845.525	21686
845.661	21557
845.798	21416
845.934	21622
846.07	21370
846.206	21553
846.342	21538
846.478	21408
846.614	21332
846.75	21203
846.886	21089
847.022	21351
847.158	21173
847.294	21291
847.429	21237
847.565	21157
847.701	21420
847.837	20887
847.972	20834
848.108	21039
848.244	21043
848.379	20853
848.515	20754
848.65	20686
848.786	20807
848.921	20792
849.057	20906
849.192	20868
849.328	20929
849.463	20773
849.598	20739
849.734	20743
849.869	20587
850.004	20526
850.14	20590
850.275	20560
850.41	20560
850.545	20514
850.68	20446
850.815	20636
850.95	20533
851.085	20663
851.22	20701
851.355	20651
851.49	20514
851.625	20541
851.76	20537
851.895	20625
852.03	20511
852.165	20632
852.299	20587
852.434	20629
852.569	20617
852.703	20583
852.838	20613
852.973	20667
853.107	20788
853.242	20408
853.376	20480
853.511	20347
853.645	20377
853.78	20530
853.914	20320
854.048	20343
854.183	20362
854.317	20377
854.451	20583
854.585	20301
854.72	20366
854.854	20442
854.988	20355
855.122	20355
855.256	20263
855.39	20400
855.524	20450
855.658	20442
855.792	20457
855.926	20492
856.06	20320
856.194	20423
856.327	20366
856.461	20355
856.595	20351
856.729	20332
856.862	20465
856.996	20518
857.13	20450
857.263	20503
857.397	20503
857.53	20301
857.664	20507
857.797	20495
857.931	20461
858.064	20412
858.197	20457
858.331	20495
858.464	20374
858.597	20336
858.731	20317
858.864	20351
858.997	20366
859.13	20305
859.263	20419
859.396	20389
859.529	20339
859.662	20309
859.795	20336
859.928	20339
860.061	20560
860.194	20587
860.327	20434
860.46	20385
860.592	20606
860.725	20492
860.858	20556
860.99	20400
861.123	20298
861.256	20343
861.388	20347
861.521	20899
861.653	20309
861.786	20244
861.918	20305
862.05	20294
862.183	20358
862.315	20381
862.447	20355
862.58	20419
862.712	20096
862.844	20142
862.976	20164
863.108	20233
863.24	20625
863.372	19978
863.504	20138
863.636	20081
863.768	20145
863.9	20077
864.032	20142
864.164	20050
864.296	20153
864.428	20221
864.559	20210
864.691	20164
864.823	20206
864.954	20081
865.086	20065
865.217	20073
865.349	19955
865.48	20081
865.612	20092
865.743	20100
865.875	20142
866.006	19997
866.137	20001
866.269	19974
866.4	19997
866.531	20035
866.662	19902
866.793	19830
866.924	19856
867.055	20005
867.186	19890
867.317	19909
867.448	19917
867.579	19795
867.71	19898
867.841	19978
867.972	19913
868.103	20001
868.233	19947
868.364	19932
868.495	20024
868.625	20206
868.756	20214
868.886	20149
869.017	20221
869.147	20225
869.278	20412
869.408	20267
869.539	20244
869.669	20275
869.799	20195
869.929	20313
870.06	20309
870.19	20495
870.32	20419
870.45	20480
870.58	20629
870.71	20674
870.84	20765
870.97	20545
871.1	20708
871.23	20785
871.36	20720
871.489	20708
871.619	20743
871.749	20792
871.879	20861
872.008	20952
872.138	20781
872.267	20815
872.397	20655
872.526	20560
872.656	20625
872.785	20613
872.915	20853
873.044	20823
873.173	20807
873.303	20849
873.432	20925
873.561	20788
873.69	20838
873.819	20857
873.948	20998
874.077	20792
874.206	20849
874.335	20762
874.464	20887
874.593	21089
874.722	21047
874.851	21108
874.979	21104
875.108	20979
875.237	21005
875.365	20994
875.494	20876
875.623	21138
875.751	21043
875.88	21104
876.008	21321
876.136	21199
876.265	21469
876.393	21515
876.521	21644
876.65	21511
876.778	21462
876.906	21351
877.034	21351
877.162	21393
877.29	21397
877.418	21359
877.546	21454
877.674	21485
877.802	21367
877.93	21458
878.058	21405
878.185	21207
878.313	21306
878.441	21500
878.568	21252
878.696	21241
878.824	21648
878.951	21473
879.079	21705
879.206	21816
879.333	21488
879.461	21507
879.588	21580
879.715	21614
879.842	21557
879.97	21367
880.097	21321
880.224	21332
880.351	21420
880.478	21348
880.605	21260
880.732	21249
880.859	21481
880.986	21302
881.112	21272
881.239	21207
881.366	21047
881.493	21013
881.619	20815
881.746	20861
881.872	20800
881.999	20777
882.125	20781
882.252	21055
882.378	20716
882.505	21051
882.631	20716
882.757	20632
882.883	20613
883.01	20617
883.136	20499
883.262	20492
883.388	20362
883.514	20461
883.64	20575
883.766	20408
883.892	20412
884.018	20389
884.143	20396
884.269	20495
884.395	20336
884.52	20081
884.646	20180
884.772	20244
884.897	20210
885.023	20229
885.148	20309
885.274	20351
885.399	20290
885.524	20355
885.65	20145
885.775	20229
885.9	20183
886.025	20298
886.15	20229
886.275	20100
886.4	20195
886.525	20317
886.65	20043
886.775	20103
886.9	20218
887.025	20370
887.149	20187
887.274	20008
887.399	19936
887.523	20012
887.648	19982
887.773	19871
887.897	20115
888.021	19993
888.146	19887
888.27	20016
888.395	20126
888.519	20001
888.643	19944
888.767	20069
888.891	19841
889.015	19807
889.139	19856
889.263	19776
889.387	19864
889.511	19909
889.635	19898
889.759	19712
889.883	19795
890.006	19742
890.13	19944
890.254	19723
890.377	19803
890.501	19480
890.624	19544
890.748	19647
890.871	19544
890.995	19282
891.118	19232
891.241	19381
891.364	19362
891.488	19567
891.611	19434
891.734	19411
891.857	19358
891.98	19343
892.103	19430
892.226	19373
892.349	19289
892.471	19285
892.594	19274
892.717	19335
892.839	19407
892.962	19293
893.085	19244
893.207	19255
893.33	19175
893.452	19175
893.575	19304
893.697	19072
893.819	19381
893.941	19514
894.064	19403
894.186	19240
894.308	19175
894.43	19335
894.552	19430
894.674	19403
894.796	19320
894.918	19194
895.04	19240
895.161	19571
895.283	19282
895.405	19232
895.526	19327
895.648	19346
895.769	19324
895.891	19400
896.012	19495
896.134	19426
896.255	19411
896.376	19232
896.498	19236
896.619	19209
896.74	19270
896.861	19438
896.982	19723
897.103	19807
897.224	19658
897.345	19613
897.466	19441
897.587	19575
897.708	19567
897.828	19586
897.949	19464
898.07	19362
898.19	19590
898.311	19651
898.431	19445
898.552	19480
898.672	19594
898.792	19597
898.913	19681
899.033	19552
899.153	19255
899.273	19247
899.393	19377
899.513	19343
899.633	19362
899.753	19312
899.873	19179
899.993	19369
900.113	19236
900.232	19343
900.352	19228
900.472	19164
900.591	19103
900.711	19008
900.83	19088
900.95	19316
901.069	19244
901.189	19012
901.308	18684
901.427	18608
901.546	18753
901.665	18795
901.784	18616
901.904	18448
902.023	18448
902.141	18327
902.26	18201
902.379	18292
902.498	18209
902.617	18148
902.735	18182
902.854	18098
902.973	18049
903.091	17901
903.21	17916
903.328	17916
903.446	17832
903.565	17627
903.683	17718
903.801	17649
903.919	17596
904.038	17646
904.156	17482
904.274	17566
904.392	17440
904.51	17421
904.627	17349
904.745	17528
904.863	17562
904.981	17258
905.098	17067
905.216	17143
905.334	17181
905.451	17235
905.569	17223
905.686	17181
905.803	17056
905.921	16881
906.038	17041
906.155	16961
906.272	16915
906.389	16892
906.506	16717
906.623	16702
906.74	16683
906.857	16500
906.974	16588
907.091	16721
907.208	16816
907.324	16778
907.441	16592
907.557	16470
907.674	16493
907.79	16398
907.907	16398
908.023	16466
908.139	16542
908.256	16352
908.372	16322
908.488	16337
908.604	16211
908.72	16078
908.836	16112
908.952	16013
909.068	16242
909.184	16169
909.3	16109
909.415	16143
909.531	16230
909.647	15895
909.762	15823
909.878	15880
909.993	15736
910.108	15846
910.224	15808
910.339	15793
910.454	15823
910.57	15739
910.685	15644
910.8	15804
910.915	15876
911.03	15804
911.145	15424
911.259	15492
911.374	15557
911.489	15462
911.604	15363
911.718	15252
911.833	15275
911.947	15291
912.062	15207
912.176	15294
912.291	15462
912.405	15317
912.519	15561
912.633	15481
912.748	15268
912.862	15199
912.976	15085
913.09	14960
913.204	15032
913.318	14956
913.431	15108
913.545	15074
913.659	15249
913.772	14994
913.886	14849
914	14781
914.113	14914
914.226	14929
914.34	14910
914.453	14735
914.566	14998
914.68	14674
914.793	14746
914.906	14518
915.019	14465
915.132	14355
915.245	14412
915.358	14438
915.47	14454
915.583	14541
915.696	14514
915.809	14583
915.921	14610
916.034	14434
916.146	14278
916.259	14343
916.371	14431
916.483	14389
916.595	14256
916.708	14343
916.82	14343
916.932	14301
917.044	14256
917.156	14180
917.268	14161
917.38	14126
917.491	14130
917.603	14168
917.715	14221
917.826	14218
917.938	14100
918.049	14005
918.161	14115
918.272	14290
918.384	14153
918.495	14153
918.606	13864
918.717	13849
918.828	13989
918.939	13951
919.05	13841
919.161	13902
919.272	13719
919.383	13822
919.494	13944
919.604	14138
919.715	13982
919.826	13909
919.936	13791
920.047	13967
920.157	13909
920.267	14123
920.378	13947
920.488	13925
920.598	14092
920.708	14138
920.818	14062
920.928	14073
921.038	14157
921.148	14134
921.258	13807
921.368	13837
921.477	13639
921.587	13636
921.697	13525
921.806	13647
921.916	13499
922.025	13369
922.134	13388
922.244	13346
922.353	13369
922.462	13282
922.571	13175
922.68	12943
922.789	13000
922.898	13061
923.007	12916
923.116	12905
923.224	12909
923.333	12913
923.442	12787
923.55	12707
923.659	12852
923.767	12821
923.876	12760
923.984	12783
924.092	12642
924.201	12764
924.309	12726
924.417	12700
924.525	12642
924.633	12620
924.741	13643
924.849	12486
924.956	12601
925.064	12429
925.172	12418
925.279	12342
925.387	12407
925.494	12388
925.602	12578
925.709	12589
925.816	12300
925.924	12350
926.031	12479
926.138	12369
926.245	12437
926.352	12273
926.459	12372
926.566	12441
926.673	12235
926.779	12194
926.886	12186
926.993	12019
927.099	12019
927.206	11950
927.312	12026
927.419	11996
927.525	11908
927.631	12087
927.737	11885
927.843	11802
927.95	11748
928.056	11813
928.162	11821
928.267	11901
928.373	12391
928.479	11927
928.585	11657
928.69	11748
928.796	11882
928.901	11600
929.007	11589
929.112	11661
929.218	11608
929.323	11528
929.428	11649
929.533	11707
929.638	11471
929.743	11547
929.848	11554
929.953	11505
930.058	11493
930.163	11242
930.267	11280
930.372	11440
930.477	11235
930.581	11406
930.685	11284
930.79	11113
930.894	11178
930.998	11128
931.103	11277
931.207	10854
931.311	10835
931.415	10771
931.519	10656
931.623	10535
