Data from test_V78500241_606.txt Node
Date: Fri Mar 25 15:14:04 CST 2022
User: usil
Spectrometer: V785-0024
Trigger mode: 0
Integration Time (sec): 4.000000E-1
Scans to average: 1
Nonlinearity correction enabled: false
Boxcar width: 0
Storing dark spectrum: false
XAxis mode: Wavelengths
Number of Pixels in Spectrum: 1024
>>>>>Begin Spectral Data<<<<<
801.071	27542
801.214	27511
801.356	27302
801.499	27195
801.641	27036
801.783	27184
801.926	27127
802.068	27093
802.211	26948
802.353	26925
802.496	26769
802.638	26758
802.78	26826
802.923	26712
803.065	26724
803.208	26735
803.35	26712
803.492	26891
803.635	26762
803.777	26838
803.919	26868
804.061	27161
804.204	26773
804.346	26731
804.488	26785
804.63	26849
804.773	26880
804.915	26842
805.057	27093
805.199	26804
805.341	26948
805.483	27104
805.626	26918
805.768	26872
805.91	26956
806.052	27055
806.194	26921
806.336	27123
806.478	27020
806.62	26975
806.762	27135
806.904	27161
807.046	27458
807.188	27424
807.33	27447
807.472	27504
807.614	27272
807.756	27439
807.898	27272
808.04	27165
808.182	27188
808.324	27131
808.465	27245
808.607	27477
808.749	27644
808.891	27557
809.033	27743
809.174	27603
809.316	27496
809.458	27599
809.6	27580
809.741	27648
809.883	27766
810.025	27907
810.166	27998
810.308	27960
810.45	27892
810.591	27941
810.733	27652
810.875	27652
811.016	27454
811.158	27481
811.299	27660
811.441	27789
811.582	27766
811.724	27572
811.865	27629
812.007	27458
812.148	27534
812.29	27595
812.431	27797
812.573	27953
812.714	28177
812.855	28109
812.997	28299
813.138	28352
813.279	28162
813.421	28207
813.562	28067
813.703	27972
813.845	27797
813.986	27625
814.127	27401
814.268	27367
814.41	27348
814.551	27298
814.692	27340
814.833	27195
814.974	27279
815.115	27359
815.256	27096
815.397	27116
815.539	27237
815.68	27146
815.821	27036
815.962	27032
816.103	27039
816.244	26872
816.385	26750
816.526	26876
816.666	26758
816.807	26629
816.948	26670
817.089	26663
817.23	26636
817.371	26575
817.512	26476
817.653	26678
817.793	26480
817.934	26617
818.075	26625
818.216	26587
818.356	26473
818.497	26366
818.638	26355
818.778	26248
818.919	26526
819.06	26434
819.2	26465
819.341	26575
819.481	26537
819.622	26800
819.762	26845
819.903	26807
820.043	26819
820.184	26769
820.324	26568
820.465	26708
820.605	26697
820.746	26678
820.886	26602
821.026	26735
821.167	26663
821.307	26792
821.447	26587
821.588	26545
821.728	26408
821.868	26317
822.008	26020
822.149	26065
822.289	25959
822.429	25677
822.569	25590
822.709	25780
822.849	25453
822.99	25738
823.13	25514
823.27	25499
823.41	25346
823.55	25266
823.69	25403
823.83	25381
823.97	25438
824.11	25084
824.25	25107
824.389	25266
824.529	25289
824.669	25137
824.809	25369
824.949	25289
825.089	25415
825.228	25187
825.368	25000
825.508	25027
825.648	24916
825.787	25072
825.927	25225
826.067	24992
826.206	25042
826.346	25065
826.485	25156
826.625	25065
826.765	25129
826.904	25095
827.044	24852
827.183	24779
827.323	24875
827.462	24719
827.601	24783
827.741	24772
827.88	24772
828.02	24673
828.159	24684
828.298	24821
828.437	24715
828.577	24726
828.716	24970
828.855	24631
828.994	24467
829.134	24475
829.273	24498
829.412	24441
829.551	24441
829.69	24528
829.829	24665
829.968	24570
830.107	24460
830.246	24479
830.385	24399
830.524	24422
830.663	24308
830.802	24186
830.941	24152
831.08	23996
831.219	24178
831.357	24140
831.496	24334
831.635	23984
831.774	24155
831.913	23999
832.051	23946
832.19	23885
832.329	23973
832.467	23893
832.606	23649
832.744	23718
832.883	23764
833.022	23817
833.16	23813
833.299	23798
833.437	23855
833.576	23893
833.714	23805
833.852	23851
833.991	23828
834.129	23942
834.267	23863
834.406	24030
834.544	23920
834.682	23805
834.821	23699
834.959	23992
835.097	23824
835.235	23851
835.373	23874
835.511	23863
835.65	23627
835.788	23752
835.926	23653
836.064	23509
836.202	23486
836.34	23756
836.478	23771
836.615	23615
836.753	23741
836.891	23775
837.029	23695
837.167	23638
837.305	23691
837.443	23482
837.58	23520
837.718	23653
837.856	23528
837.993	23497
838.131	23524
838.269	23391
838.406	23436
838.544	23356
838.681	23109
838.819	23143
838.956	23025
839.094	22980
839.231	23117
839.369	23105
839.506	23284
839.643	23124
839.781	22942
839.918	22942
840.055	23124
840.193	22850
840.33	22877
840.467	22831
840.604	22991
840.742	23041
840.879	22793
841.016	22900
841.153	22820
841.29	23018
841.427	22991
841.564	22942
841.701	22805
841.838	22908
841.975	22877
842.112	22957
842.249	22698
842.385	22592
842.522	22847
842.659	22748
842.796	22679
842.933	22656
843.069	22733
843.206	22767
843.343	22717
843.479	22752
843.616	22691
843.752	22470
843.889	22554
844.025	22637
844.162	22504
844.298	22554
844.435	22386
844.571	22421
844.708	22432
844.844	22599
844.98	22584
845.117	22592
845.253	22356
845.389	22318
845.525	22295
845.661	22303
845.798	22143
845.934	22322
846.07	22147
846.206	22234
846.342	22341
846.478	22204
846.614	21972
846.75	21911
846.886	21766
847.022	21934
847.158	22067
847.294	21880
847.429	21926
847.565	21850
847.701	22158
847.837	21610
847.972	21648
848.108	21789
848.244	21698
848.379	21583
848.515	21530
848.65	21507
848.786	21481
848.921	21477
849.057	21629
849.192	21538
849.328	21473
849.463	21473
849.598	21557
849.734	21408
849.869	21378
850.004	21317
850.14	21348
850.275	21268
850.41	21138
850.545	21256
850.68	21256
850.815	21279
850.95	21401
851.085	21447
851.22	21374
851.355	21317
851.49	21306
851.625	21272
851.76	21237
851.895	21184
852.03	21260
852.165	21176
852.299	21348
852.434	21401
852.569	21367
852.703	21336
852.838	21386
852.973	21439
853.107	21431
853.242	21237
853.376	21074
853.511	21013
853.645	21081
853.78	21226
853.914	21203
854.048	21062
854.183	21116
854.317	21195
854.451	21367
854.585	21058
854.72	20933
854.854	21291
854.988	20891
855.122	21184
855.256	20971
855.39	21188
855.524	21100
855.658	21138
855.792	21176
855.926	21222
856.06	21264
856.194	21165
856.327	21135
856.461	21039
856.595	21028
856.729	21047
856.862	21218
856.996	21070
857.13	21188
857.263	21264
857.397	21199
857.53	21009
857.664	21173
857.797	21203
857.931	21207
858.064	21081
858.197	21272
858.331	21169
858.464	21058
858.597	20994
858.731	21081
858.864	21123
858.997	21123
859.13	21070
859.263	21135
859.396	21089
859.529	20986
859.662	21055
859.795	21123
859.928	21157
860.061	21214
860.194	21176
860.327	21211
860.46	21119
860.592	21268
860.725	21249
860.858	21188
860.99	21165
861.123	21074
861.256	21062
861.388	21233
861.521	21991
861.653	21001
861.786	20956
861.918	20910
862.05	21051
862.183	21001
862.315	21036
862.447	21085
862.58	21119
862.712	20887
862.844	20697
862.976	20967
863.108	20967
863.24	21348
863.372	20705
863.504	20883
863.636	20796
863.768	20849
863.9	20792
864.032	20769
864.164	20765
864.296	20849
864.428	20902
864.559	20960
864.691	20845
864.823	20880
864.954	20838
865.086	20785
865.217	20670
865.349	20636
865.48	20773
865.612	20785
865.743	20758
865.875	20712
866.006	20613
866.137	20838
866.269	20686
866.4	20754
866.531	20682
866.662	20632
866.793	20587
866.924	20545
867.055	20853
867.186	20807
867.317	20556
867.448	20514
867.579	20674
867.71	20670
867.841	20648
867.972	20655
868.103	20609
868.233	20617
868.364	20621
868.495	20708
868.625	20819
868.756	20925
868.886	20777
869.017	20861
869.147	20986
869.278	21005
869.408	20963
869.539	20925
869.669	20986
869.799	20921
869.929	21024
870.06	20990
870.19	21287
870.32	21173
870.45	21104
870.58	21146
870.71	21386
870.84	21416
870.97	21249
871.1	21275
871.23	21275
871.36	21576
871.489	21428
871.619	21393
871.749	21530
871.879	21500
872.008	21572
872.138	21545
872.267	21435
872.397	21287
872.526	21348
872.656	21382
872.785	21382
872.915	21420
873.044	21496
873.173	21538
873.303	21656
873.432	21462
873.561	21568
873.69	21553
873.819	21591
873.948	21667
874.077	21553
874.206	21500
874.335	21485
874.464	21739
874.593	21747
874.722	21663
874.851	21781
874.979	21709
875.108	21713
875.237	21739
875.365	21682
875.494	21781
875.623	21705
875.751	21690
875.88	21705
876.008	21835
876.136	21972
876.265	22192
876.393	22238
876.521	22211
876.65	22177
876.778	22158
876.906	22036
877.034	22010
877.162	22025
877.29	22093
877.418	22120
877.546	22143
877.674	21991
877.802	22169
877.93	22070
878.058	22032
878.185	21960
878.313	22120
878.441	22101
878.568	21907
878.696	21972
878.824	22158
878.951	22177
879.079	22215
879.206	22360
879.333	22215
879.461	22158
879.588	22101
879.715	22192
879.842	22352
879.97	22230
880.097	21918
880.224	21899
880.351	21918
880.478	21953
880.605	21846
880.732	21968
880.859	22097
880.986	21895
881.112	21964
881.239	21720
881.366	21762
881.493	21526
881.619	21523
881.746	21526
881.872	21507
881.999	21348
882.125	21401
882.252	21466
882.378	21603
882.505	21511
882.631	21386
882.757	21199
882.883	21321
883.01	21195
883.136	21203
883.262	21055
883.388	21108
883.514	21241
883.64	21195
883.766	21195
883.892	20918
884.018	20944
884.143	21013
884.269	21032
884.395	20864
884.52	20872
884.646	20777
884.772	20826
884.897	20769
885.023	20796
885.148	20902
885.274	20952
885.399	20921
885.524	20849
885.65	20899
885.775	20899
885.9	20792
886.025	20853
886.15	20975
886.275	20819
886.4	20724
886.525	20868
886.65	20765
886.775	20727
886.9	20906
887.025	21051
887.149	20762
887.274	20678
887.399	20549
887.523	20575
887.648	20621
887.773	20473
887.897	20564
888.021	20503
888.146	20583
888.27	20705
888.395	20762
888.519	20651
888.643	20651
888.767	20602
888.891	20507
889.015	20358
889.139	20434
889.263	20427
889.387	20537
889.511	20583
889.635	20579
889.759	20404
889.883	20469
890.006	20404
890.13	20499
890.254	20263
890.377	20275
890.501	20195
890.624	19993
890.748	20256
890.871	20039
890.995	20081
891.118	19902
891.241	19974
891.364	19906
891.488	20107
891.611	20043
891.734	19982
891.857	20065
891.98	19993
892.103	20096
892.226	19951
892.349	19925
892.471	19723
892.594	19753
892.717	19898
892.839	19932
892.962	19833
893.085	20020
893.207	19890
893.33	19841
893.452	19841
893.575	19932
893.697	19883
893.819	20054
893.941	20043
894.064	19967
894.186	19883
894.308	19791
894.43	19947
894.552	19944
894.674	20024
894.796	19769
894.918	19864
895.04	19814
895.161	19906
895.283	19871
895.405	19784
895.526	19807
895.648	19799
895.769	19894
895.891	19826
896.012	19959
896.134	19947
896.255	19940
896.376	19772
896.498	19803
896.619	19932
896.74	19993
896.861	19894
896.982	20225
897.103	20286
897.224	20153
897.345	20126
897.466	19963
897.587	20130
897.708	20172
897.828	20180
897.949	20039
898.07	19852
898.19	20107
898.311	20183
898.431	19993
898.552	20069
898.672	20168
898.792	20134
898.913	20027
899.033	19925
899.153	19936
899.273	19696
899.393	19875
899.513	19909
899.633	19852
899.753	19780
899.873	19856
899.993	19932
900.113	19765
900.232	19868
900.352	19887
900.472	19791
900.591	19620
900.711	19677
900.83	19590
900.95	19818
901.069	19655
901.189	19548
901.308	19369
901.427	19175
901.546	19244
901.665	19232
901.784	19297
901.904	19015
902.023	18993
902.141	18802
902.26	18840
902.379	18935
902.498	18772
902.617	18802
902.735	18635
902.854	18711
902.973	18707
903.091	18418
903.21	18471
903.328	18471
903.446	18232
903.565	18327
903.683	18190
903.801	18148
903.919	18140
904.038	18087
904.156	18057
904.274	18167
904.392	17942
904.51	17878
904.627	17908
904.745	18068
904.863	17973
904.981	17855
905.098	17710
905.216	17581
905.334	17611
905.451	17611
905.569	17649
905.686	17676
905.803	17684
905.921	17539
906.038	17539
906.155	17455
906.272	17414
906.389	17349
906.506	17277
906.623	17265
906.74	17277
906.857	17064
906.974	17045
907.091	17220
907.208	17364
907.324	17147
907.441	16968
907.557	17014
907.674	17003
907.79	16927
907.907	16824
908.023	16991
908.139	16930
908.256	16866
908.372	16801
908.488	16938
908.604	16653
908.72	16592
908.836	16626
908.952	16592
909.068	16694
909.184	16774
909.3	16573
909.415	16668
909.531	16679
909.647	16344
909.762	16360
909.878	16314
909.993	16386
910.108	16253
910.224	16276
910.339	16344
910.454	16230
910.57	16150
910.685	16166
910.8	16318
910.915	16337
911.03	16055
911.145	15987
911.259	16040
911.374	16044
911.489	15994
911.604	15819
911.718	15705
911.833	15694
911.947	15504
912.062	15538
912.176	15633
912.291	15762
912.405	15762
912.519	15911
912.633	15873
912.748	15705
912.862	15694
912.976	15587
913.09	15386
913.204	15477
913.318	15462
913.431	15595
913.545	15603
913.659	15568
913.772	15405
913.886	15336
914	15317
914.113	15321
914.226	15405
914.34	15393
914.453	15214
914.566	15370
914.68	15245
914.793	15047
914.906	14975
915.019	14982
915.132	14853
915.245	14914
915.358	14918
915.47	14933
915.583	14902
915.696	14948
915.809	15058
915.921	15017
916.034	14826
916.146	14880
916.259	14762
916.371	14941
916.483	14918
916.595	14773
916.708	14777
916.82	14834
916.932	14682
917.044	14758
917.156	14636
917.268	14568
917.38	14640
917.491	14530
917.603	14587
917.715	14640
917.826	14686
917.938	14564
918.049	14427
918.161	14552
918.272	14648
918.384	14549
918.495	14587
918.606	14423
918.717	14263
918.828	14385
918.939	14389
919.05	14263
919.161	14351
919.272	14149
919.383	14256
919.494	14412
919.604	14537
919.715	14218
919.826	14267
919.936	14343
920.047	14370
920.157	14332
920.267	14431
920.378	14389
920.488	14301
920.598	14450
920.708	14667
920.818	14503
920.928	14514
921.038	14495
921.148	14518
921.258	14275
921.368	14229
921.477	14111
921.587	14100
921.697	14012
921.806	14027
921.916	13982
922.025	13811
922.134	13704
922.244	13605
922.353	13723
922.462	13597
922.571	13483
922.68	13384
922.789	13369
922.898	13400
923.007	13285
923.116	13396
923.224	13331
923.333	13324
923.442	13282
923.55	13213
923.659	13190
923.767	13312
923.876	13050
923.984	13152
924.092	13065
924.201	13069
924.309	13076
924.417	13198
924.525	12970
924.633	12981
924.741	13932
924.849	12848
924.956	13004
925.064	12821
925.172	12703
925.279	12688
925.387	12821
925.494	12821
925.602	12886
925.709	12749
925.816	12642
925.924	12802
926.031	12810
926.138	12741
926.245	12757
926.352	12582
926.459	12764
926.566	12741
926.673	12623
926.779	12483
926.886	12513
926.993	12410
927.099	12319
927.206	12315
927.312	12201
927.419	12372
927.525	12414
927.631	12441
927.737	12159
927.843	12152
927.95	12182
928.056	12167
928.162	12190
928.267	12308
928.373	12791
928.479	12224
928.585	12045
928.69	12114
928.796	12144
928.901	12083
929.007	11878
929.112	12091
929.218	12057
929.323	11901
929.428	11901
929.533	12034
929.638	11809
929.743	11855
929.848	11908
929.953	11775
930.058	11790
930.163	11623
930.267	11627
930.372	11828
930.477	11589
930.581	11760
930.685	11684
930.79	11482
930.894	11532
930.998	11493
931.103	11512
931.207	11311
931.311	11151
931.415	11041
931.519	10885
931.623	10919
