Data from test_V78500241_765.txt Node
Date: Fri Mar 25 15:15:11 CST 2022
User: usil
Spectrometer: V785-0024
Trigger mode: 0
Integration Time (sec): 4.000000E-1
Scans to average: 1
Nonlinearity correction enabled: false
Boxcar width: 0
Storing dark spectrum: false
XAxis mode: Wavelengths
Number of Pixels in Spectrum: 1024
>>>>>Begin Spectral Data<<<<<
801.071	28055
801.214	27941
801.356	27778
801.499	27656
801.641	27599
801.783	27580
801.926	27774
802.068	27507
802.211	27500
802.353	27477
802.496	27378
802.638	27283
802.78	27184
802.923	27249
803.065	27245
803.208	27173
803.35	27298
803.492	27321
803.635	27313
803.777	27386
803.919	27420
804.061	27804
804.204	27450
804.346	27237
804.488	27473
804.63	27184
804.773	27218
804.915	27435
805.057	27549
805.199	27389
805.341	27500
805.483	27591
805.626	27557
805.768	27545
805.91	27542
806.052	27431
806.194	27416
806.336	27644
806.478	27686
806.62	27572
806.762	27701
806.904	27705
807.046	28135
807.188	27987
807.33	27934
807.472	27926
807.614	27975
807.756	27800
807.898	27945
808.04	27686
808.182	27873
808.324	27800
808.465	27861
808.607	27972
808.749	28234
808.891	28367
809.033	28401
809.174	28166
809.316	28188
809.458	28360
809.6	28200
809.741	28272
809.883	28268
810.025	28542
810.166	28459
810.308	28500
810.45	28577
810.591	28459
810.733	28223
810.875	28215
811.016	28051
811.158	28192
811.299	28356
811.441	28238
811.582	28371
811.724	28207
811.865	28101
812.007	28303
812.148	28181
812.29	28257
812.431	28299
812.573	28538
812.714	28759
812.855	28755
812.997	28710
813.138	29018
813.279	28904
813.421	28710
813.562	28755
813.703	28618
813.845	28497
813.986	28192
814.127	28029
814.268	27812
814.41	27930
814.551	27873
814.692	27888
814.833	27873
814.974	27861
815.115	27747
815.256	27823
815.397	27789
815.539	27869
815.68	27789
815.821	27724
815.962	27736
816.103	27739
816.244	27542
816.385	27519
816.526	27439
816.666	27237
816.807	27294
816.948	27332
817.089	27348
817.23	27294
817.371	27222
817.512	27302
817.653	27310
817.793	27108
817.934	27264
818.075	27272
818.216	27260
818.356	27226
818.497	27043
818.638	27020
818.778	26967
818.919	26979
819.06	27017
819.2	27180
819.341	27256
819.481	27096
819.622	27275
819.762	27572
819.903	27450
820.043	27447
820.184	27321
820.324	27359
820.465	27378
820.605	27252
820.746	27374
820.886	27321
821.026	27256
821.167	27241
821.307	27351
821.447	27184
821.588	27123
821.728	26906
821.868	26960
822.008	26716
822.149	26629
822.289	26655
822.429	26389
822.569	26469
822.709	26374
822.849	26065
822.99	26157
823.13	26153
823.27	26149
823.41	25890
823.55	25871
823.69	25997
823.83	26062
823.97	25970
824.11	25795
824.25	25830
824.389	25982
824.529	25909
824.669	25772
824.809	25879
824.949	25913
825.089	26012
825.228	25887
825.368	25693
825.508	25704
825.648	25708
825.787	25753
825.927	25788
826.067	25689
826.206	25540
826.346	25799
826.485	25856
826.625	25799
826.765	25814
826.904	25818
827.044	25479
827.183	25468
827.323	25479
827.462	25499
827.601	25464
827.741	25320
827.88	25453
828.02	25426
828.159	25529
828.298	25403
828.437	25445
828.577	25232
828.716	25514
828.855	25324
828.994	25141
829.134	25133
829.273	25137
829.412	25103
829.551	25084
829.69	25194
829.829	25168
829.968	25141
830.107	25225
830.246	25095
830.385	24981
830.524	24928
830.663	24966
830.802	24753
830.941	24684
831.08	24722
831.219	24859
831.357	24776
831.496	24970
831.635	24825
831.774	24677
831.913	24654
832.051	24509
832.19	24521
832.329	24460
832.467	24502
832.606	24391
832.744	24285
832.883	24471
833.022	24315
833.16	24555
833.299	24437
833.437	24426
833.576	24544
833.714	24494
833.852	24551
833.991	24346
834.129	24540
834.267	24574
834.406	24494
834.544	24475
834.682	24494
834.821	24483
834.959	24623
835.097	24365
835.235	24555
835.373	24464
835.511	24429
835.65	24277
835.788	24407
835.926	24152
836.064	24091
836.202	24076
836.34	24353
836.478	24403
836.615	24243
836.753	24213
836.891	24410
837.029	24429
837.167	24178
837.305	24239
837.443	24258
837.58	24136
837.718	24190
837.856	24148
837.993	23965
838.131	24034
838.269	23992
838.406	24178
838.544	23866
838.681	23699
838.819	23748
838.956	23699
839.094	23581
839.231	23680
839.369	23786
839.506	23912
839.643	23889
839.781	23649
839.918	23592
840.055	23547
840.193	23566
840.33	23482
840.467	23501
840.604	23414
840.742	23802
840.879	23334
841.016	23516
841.153	23353
841.29	23634
841.427	23478
841.564	23551
841.701	23581
841.838	23554
841.975	23406
842.112	23387
842.249	23452
842.385	23246
842.522	23531
842.659	23341
842.796	23261
842.933	23307
843.069	23239
843.206	23235
843.343	23383
843.479	23239
843.616	23258
843.752	23025
843.889	23105
844.025	23117
844.162	23098
844.298	23140
844.435	22991
844.571	23033
844.708	23048
844.844	23223
844.98	23235
845.117	23212
845.253	23044
845.389	22816
845.525	23003
845.661	22919
845.798	22793
845.934	22801
846.07	22858
846.206	22710
846.342	22854
846.478	22805
846.614	22599
846.75	22474
846.886	22481
847.022	22493
847.158	22504
847.294	22462
847.429	22580
847.565	22466
847.701	22797
847.837	22272
847.972	22253
848.108	22402
848.244	22367
848.379	22242
848.515	22048
848.65	22082
848.786	22067
848.921	22070
849.057	22207
849.192	22063
849.328	22090
849.463	22101
849.598	22032
849.734	21983
849.869	21953
850.004	21937
850.14	21800
850.275	21899
850.41	21690
850.545	21903
850.68	21736
850.815	21876
850.95	21709
851.085	22116
851.22	22025
851.355	21854
851.49	21907
851.625	21713
851.76	21831
851.895	21724
852.03	21656
852.165	21831
852.299	21949
852.434	22010
852.569	21797
852.703	21739
852.838	21854
852.973	21983
853.107	22040
853.242	21705
853.376	21728
853.511	21618
853.645	21736
853.78	21873
853.914	21770
854.048	21690
854.183	21568
854.317	21755
854.451	21827
854.585	21686
854.72	21781
854.854	21701
854.988	21511
855.122	21751
855.256	21614
855.39	21656
855.524	21789
855.658	21614
855.792	21679
855.926	21778
856.06	21762
856.194	21766
856.327	21660
856.461	21606
856.595	21599
856.729	21808
856.862	21705
856.996	21755
857.13	21660
857.263	21835
857.397	21660
857.53	21625
857.664	21800
857.797	21819
857.931	21827
858.064	21679
858.197	21869
858.331	21603
858.464	21435
858.597	21485
858.731	21671
858.864	21709
858.997	21690
859.13	21682
859.263	21644
859.396	21698
859.529	21473
859.662	21766
859.795	21667
859.928	21675
860.061	21781
860.194	21899
860.327	21743
860.46	21743
860.592	21812
860.725	21987
860.858	21747
860.99	21793
861.123	21633
861.256	21587
861.388	21705
861.521	22356
861.653	21641
861.786	21363
861.918	21462
862.05	21641
862.183	21614
862.315	21526
862.447	21633
862.58	21568
862.712	21420
862.844	21405
862.976	21500
863.108	21462
863.24	21781
863.372	21382
863.504	21374
863.636	21340
863.768	21401
863.9	21450
864.032	21386
864.164	21306
864.296	21473
864.428	21500
864.559	21439
864.691	21408
864.823	21473
864.954	21226
865.086	21260
865.217	21230
865.349	21264
865.48	21249
865.612	21237
865.743	21435
865.875	21264
866.006	21291
866.137	21203
866.269	21249
866.4	21222
866.531	21131
866.662	21222
866.793	21188
866.924	21268
867.055	21256
867.186	21211
867.317	21146
867.448	21218
867.579	21150
867.71	21135
867.841	21104
867.972	21169
868.103	21081
868.233	21195
868.364	21222
868.495	21283
868.625	21424
868.756	21511
868.886	21424
869.017	21397
869.147	21412
869.278	21519
869.408	21416
869.539	21439
869.669	21618
869.799	21488
869.929	21496
870.06	21462
870.19	21682
870.32	21671
870.45	21641
870.58	21857
870.71	21857
870.84	21915
870.97	21964
871.1	21800
871.23	22040
871.36	21979
871.489	21873
871.619	21907
871.749	22036
871.879	22116
872.008	22032
872.138	22048
872.267	22006
872.397	22078
872.526	21884
872.656	21895
872.785	21922
872.915	22192
873.044	22055
873.173	22036
873.303	22135
873.432	22055
873.561	22192
873.69	22135
873.819	22055
873.948	22143
874.077	21941
874.206	21911
874.335	22067
874.464	22086
874.593	22352
874.722	22131
874.851	22325
874.979	22382
875.108	22215
875.237	22284
875.365	22131
875.494	22101
875.623	22352
875.751	22306
875.88	22261
876.008	22413
876.136	22462
876.265	22672
876.393	22748
876.521	22713
876.65	22892
876.778	22702
876.906	22706
877.034	22622
877.162	22706
877.29	22596
877.418	22660
877.546	22512
877.674	22653
877.802	22615
877.93	22584
878.058	22611
878.185	22421
878.313	22542
878.441	22649
878.568	22356
878.696	22550
878.824	22557
878.951	22744
879.079	22759
879.206	22927
879.333	22881
879.461	22535
879.588	22691
879.715	22797
879.842	22824
879.97	22672
880.097	22360
880.224	22360
880.351	22424
880.478	22485
880.605	22386
880.732	22546
880.859	22653
880.986	22409
881.112	22462
881.239	22226
881.366	22135
881.493	22036
881.619	22032
881.746	21994
881.872	21983
881.999	22010
882.125	21911
882.252	21991
882.378	22029
882.505	22048
882.631	21926
882.757	21743
882.883	21656
883.01	21614
883.136	21641
883.262	21564
883.388	21496
883.514	21720
883.64	21587
883.766	21580
883.892	21447
884.018	21523
884.143	21496
884.269	21736
884.395	21431
884.52	21260
884.646	21389
884.772	21260
884.897	21214
885.023	21355
885.148	21393
885.274	21507
885.399	21393
885.524	21443
885.65	21336
885.775	21340
885.9	21237
886.025	21466
886.15	21363
886.275	21439
886.4	21222
886.525	21241
886.65	21173
886.775	21180
886.9	21458
887.025	21538
887.149	21218
887.274	21039
887.399	21047
887.523	21074
887.648	21146
887.773	21070
887.897	21142
888.021	21131
888.146	20910
888.27	21184
888.395	21184
888.519	21252
888.643	21066
888.767	21138
888.891	20967
889.015	20762
889.139	21013
889.263	20933
889.387	21001
889.511	21028
889.635	20998
889.759	20849
889.883	20853
890.006	20861
890.13	21028
890.254	20819
890.377	20880
890.501	20735
890.624	20583
890.748	20686
890.871	20594
890.995	20473
891.118	20492
891.241	20522
891.364	20465
891.488	20590
891.611	20571
891.734	20499
891.857	20598
891.98	20396
892.103	20511
892.226	20507
892.349	20526
892.471	20248
892.594	20438
892.717	20465
892.839	20404
892.962	20408
893.085	20457
893.207	20408
893.33	20381
893.452	20336
893.575	20393
893.697	20332
893.819	20537
893.941	20552
894.064	20530
894.186	20404
894.308	20320
894.43	20423
894.552	20415
894.674	20393
894.796	20366
894.918	20328
895.04	20336
895.161	20431
895.283	20484
895.405	20332
895.526	20419
895.648	20377
895.769	20305
895.891	20393
896.012	20465
896.134	20484
896.255	20301
896.376	20202
896.498	20427
896.619	20507
896.74	20343
896.861	20408
896.982	20815
897.103	20785
897.224	20541
897.345	20613
897.466	20602
897.587	20667
897.708	20815
897.828	20549
897.949	20545
898.07	20294
898.19	20495
898.311	20609
898.431	20526
898.552	20495
898.672	20739
898.792	20583
898.913	20598
899.033	20457
899.153	20317
899.273	20275
899.393	20374
899.513	20336
899.633	20389
899.753	20366
899.873	20221
899.993	20271
900.113	20309
900.232	20202
900.352	20259
900.472	20096
900.591	20157
900.711	20187
900.83	20035
900.95	20271
901.069	20225
901.189	20008
901.308	19753
901.427	19689
901.546	19734
901.665	19750
901.784	19616
901.904	19559
902.023	19400
902.141	19320
902.26	19133
902.379	19343
902.498	19175
902.617	19320
902.735	19198
902.854	19198
902.973	19194
903.091	18867
903.21	18844
903.328	18897
903.446	18768
903.565	18673
903.683	18722
903.801	18475
903.919	18593
904.038	18547
904.156	18506
904.274	18551
904.392	18304
904.51	18452
904.627	18448
904.745	18414
904.863	18525
904.981	18281
905.098	18106
905.216	18125
905.334	18148
905.451	18178
905.569	18060
905.686	18194
905.803	18163
905.921	17798
906.038	17946
906.155	17916
906.272	17821
906.389	17885
906.506	17642
906.623	17703
906.74	17623
906.857	17577
906.974	17558
907.091	17729
907.208	17665
907.324	17714
907.441	17532
907.557	17376
907.674	17254
907.79	17360
907.907	17299
908.023	17463
908.139	17349
908.256	17356
908.372	17277
908.488	17246
908.604	17098
908.72	16976
908.836	17037
908.952	17037
909.068	17079
909.184	17197
909.3	17098
909.415	17060
909.531	16995
909.647	16774
909.762	16786
909.878	16774
909.993	16862
910.108	16816
910.224	16793
910.339	16733
910.454	16687
910.57	16550
910.685	16440
910.8	16824
910.915	16725
911.03	16542
911.145	16432
911.259	16398
911.374	16409
911.489	16287
911.604	16226
911.718	16051
911.833	16139
911.947	15945
912.062	15972
912.176	16040
912.291	16105
912.405	16139
912.519	16287
912.633	16318
912.748	16154
912.862	16002
912.976	15949
913.09	15793
913.204	15903
913.318	15964
913.431	16032
913.545	15975
913.659	16063
913.772	15797
913.886	15770
914	15713
914.113	15778
914.226	15785
914.34	15774
914.453	15591
914.566	15717
914.68	15625
914.793	15473
914.906	15374
915.019	15431
915.132	15275
915.245	15344
915.358	15378
915.47	15275
915.583	15317
915.696	15302
915.809	15393
915.921	15405
916.034	15279
916.146	15245
916.259	15211
916.371	15348
916.483	15363
916.595	15142
916.708	15138
916.82	15218
916.932	15241
917.044	15024
917.156	15089
917.268	15024
917.38	14956
917.491	15070
917.603	14986
917.715	15074
917.826	15051
917.938	14838
918.049	14842
918.161	14861
918.272	15013
918.384	15013
918.495	14899
918.606	14762
918.717	14815
918.828	14762
918.939	14739
919.05	14617
919.161	14777
919.272	14530
919.383	14606
919.494	14777
919.604	14853
919.715	14708
919.826	14682
919.936	14606
920.047	14697
920.157	14739
920.267	14842
920.378	14640
920.488	14689
920.598	14872
920.708	14998
920.818	14857
920.928	14754
921.038	15070
921.148	14982
921.258	14659
921.368	14556
921.477	14522
921.587	14389
921.697	14298
921.806	14396
921.916	14301
922.025	14126
922.134	14111
922.244	14046
922.353	13940
922.462	13951
922.571	13833
922.68	13715
922.789	13757
922.898	13750
923.007	13605
923.116	13734
923.224	13563
923.333	13772
923.442	13464
923.55	13464
923.659	13472
923.767	13571
923.876	13563
923.984	13495
924.092	13365
924.201	13491
924.309	13483
924.417	13510
924.525	13358
924.633	13415
924.741	14164
924.849	13175
924.956	13293
925.064	13194
925.172	13080
925.279	13145
925.387	13091
925.494	13072
925.602	13240
925.709	13194
925.816	13069
925.924	13061
926.031	13183
926.138	13126
926.245	13107
926.352	12947
926.459	13129
926.566	13129
926.673	12993
926.779	12852
926.886	12920
926.993	12779
927.099	12688
927.206	12646
927.312	12646
927.419	12719
927.525	12650
927.631	12711
927.737	12521
927.843	12574
927.95	12426
928.056	12494
928.162	12601
928.267	12525
928.373	13103
928.479	12536
928.585	12323
928.69	12460
928.796	12426
928.901	12330
929.007	12209
929.112	12369
929.218	12296
929.323	12247
929.428	12281
929.533	12266
929.638	12175
929.743	12235
929.848	12254
929.953	12186
930.058	12064
930.163	11897
930.267	11939
930.372	11996
930.477	11901
930.581	12053
930.685	11950
930.79	11779
930.894	11798
930.998	11699
931.103	11874
931.207	11558
931.311	11493
931.415	11368
931.519	11140
931.623	11189
