Data from test_V78500241_67.txt Node
Date: Fri Mar 25 15:10:19 CST 2022
User: usil
Spectrometer: V785-0024
Trigger mode: 0
Integration Time (sec): 4.000000E-1
Scans to average: 1
Nonlinearity correction enabled: false
Boxcar width: 0
Storing dark spectrum: false
XAxis mode: Wavelengths
Number of Pixels in Spectrum: 1024
>>>>>Begin Spectral Data<<<<<
801.071	28786
801.214	28702
801.356	28382
801.499	28474
801.641	28379
801.783	28166
801.926	28447
802.068	28261
802.211	28116
802.353	27937
802.496	27854
802.638	27911
802.78	27914
802.923	27884
803.065	27690
803.208	27800
803.35	27888
803.492	27876
803.635	28078
803.777	27861
803.919	27937
804.061	28257
804.204	27972
804.346	27857
804.488	27812
804.63	27835
804.773	27713
804.915	27880
805.057	27892
805.199	27747
805.341	28090
805.483	28013
805.626	28029
805.768	27937
805.91	28029
806.052	28074
806.194	28074
806.336	28280
806.478	28013
806.62	28006
806.762	28150
806.904	28166
807.046	28470
807.188	28329
807.33	28318
807.472	28360
807.614	28344
807.756	28428
807.898	28280
808.04	28032
808.182	28196
808.324	28223
808.465	28234
808.607	28363
808.749	28428
808.891	28512
809.033	28675
809.174	28531
809.316	28500
809.458	28554
809.6	28390
809.741	28527
809.883	28622
810.025	28687
810.166	28774
810.308	28877
810.45	28687
810.591	28664
810.733	28565
810.875	28508
811.016	28497
811.158	28310
811.299	28478
811.441	28527
811.582	28660
811.724	28470
811.865	28401
812.007	28375
812.148	28390
812.29	28466
812.431	28649
812.573	28698
812.714	28816
812.855	28797
812.997	28968
813.138	29216
813.279	29102
813.421	28984
813.562	28896
813.703	28801
813.845	28565
813.986	28363
814.127	28162
814.268	27994
814.41	28188
814.551	28135
814.692	28086
814.833	27888
814.974	27953
815.115	27831
815.256	27816
815.397	27842
815.539	27911
815.68	27690
815.821	27705
815.962	27934
816.103	27785
816.244	27549
816.385	27507
816.526	27526
816.666	27389
816.807	27127
816.948	27211
817.089	27222
817.23	27256
817.371	27294
817.512	27142
817.653	27195
817.793	27077
817.934	27188
818.075	27142
818.216	27173
818.356	27036
818.497	27009
818.638	26937
818.778	26910
818.919	26861
819.06	26864
819.2	26883
819.341	27127
819.481	27036
819.622	27108
819.762	27412
819.903	27386
820.043	27226
820.184	27214
820.324	27264
820.465	27192
820.605	27169
820.746	27138
820.886	27032
821.026	27074
821.167	27032
821.307	27146
821.447	27176
821.588	26826
821.728	26815
821.868	26617
822.008	26492
822.149	26400
822.289	26366
822.429	26347
822.569	26176
822.709	26199
822.849	25982
822.99	25997
823.13	25947
823.27	25963
823.41	25887
823.55	25734
823.69	25807
823.83	25635
823.97	25750
824.11	25635
824.25	25552
824.389	25609
824.529	25586
824.669	25578
824.809	25719
824.949	25563
825.089	25670
825.228	25628
825.368	25312
825.508	25350
825.648	25350
825.787	25396
825.927	25453
826.067	25346
826.206	25297
826.346	25472
826.485	25369
826.625	25259
826.765	25411
826.904	25316
827.044	25069
827.183	25160
827.323	25019
827.462	25034
827.601	25019
827.741	25027
827.88	24973
828.02	24886
828.159	24954
828.298	25042
828.437	24996
828.577	25053
828.716	25042
828.855	24970
828.994	24593
829.134	24783
829.273	24798
829.412	24673
829.551	24631
829.69	24681
829.829	24730
829.968	24745
830.107	24760
830.246	24715
830.385	24608
830.524	24608
830.663	24486
830.802	24380
830.941	24311
831.08	24235
831.219	24273
831.357	24338
831.496	24452
831.635	24110
831.774	24148
831.913	24007
832.051	24083
832.19	23958
832.329	24034
832.467	23882
832.606	23916
832.744	23752
832.883	23786
833.022	23707
833.16	23859
833.299	23885
833.437	23908
833.576	23992
833.714	23813
833.852	23999
833.991	23813
834.129	23988
834.267	23969
834.406	23935
834.544	23878
834.682	23855
834.821	23836
834.959	23939
835.097	23813
835.235	23942
835.373	23904
835.511	23775
835.65	23623
835.788	23691
835.926	23379
836.064	23539
836.202	23482
836.34	23767
836.478	23630
836.615	23638
836.753	23714
836.891	23680
837.029	23668
837.167	23585
837.305	23589
837.443	23490
837.58	23387
837.718	23486
837.856	23592
837.993	23471
838.131	23558
838.269	23360
838.406	23299
838.544	23330
838.681	23136
838.819	23025
838.956	22942
839.094	22987
839.231	22946
839.369	22999
839.506	23356
839.643	22968
839.781	22900
839.918	22847
840.055	22908
840.193	22976
840.33	22713
840.467	22854
840.604	22900
840.742	23075
840.879	22653
841.016	22782
841.153	22626
841.29	22892
841.427	22733
841.564	22854
841.701	22763
841.838	22736
841.975	22729
842.112	22698
842.249	22462
842.385	22500
842.522	22736
842.659	22611
842.796	22352
842.933	22447
843.069	22447
843.206	22512
843.343	22580
843.479	22512
843.616	22466
843.752	22207
843.889	22188
844.025	22481
844.162	22261
844.298	22356
844.435	22249
844.571	22131
844.708	22325
844.844	22329
844.98	22375
845.117	22382
845.253	22226
845.389	22036
845.525	22017
845.661	22131
845.798	21880
845.934	22029
846.07	21975
846.206	21869
846.342	22032
846.478	21816
846.614	21831
846.75	21561
846.886	21648
847.022	21751
847.158	21660
847.294	21564
847.429	21701
847.565	21656
847.701	21915
847.837	21466
847.972	21207
848.108	21477
848.244	21534
848.379	21218
848.515	21245
848.65	21199
848.786	21195
848.921	21233
849.057	21332
849.192	21363
849.328	21260
849.463	21241
849.598	21093
849.734	21131
849.869	21104
850.004	20948
850.14	21070
850.275	20880
850.41	20967
850.545	21009
850.68	20899
850.815	20948
850.95	20910
851.085	21188
851.22	20914
851.355	20952
851.49	20986
851.625	20800
851.76	20857
851.895	20826
852.03	20792
852.165	20815
852.299	20933
852.434	20975
852.569	20998
852.703	20914
852.838	20921
852.973	20963
853.107	20994
853.242	20838
853.376	20697
853.511	20556
853.645	20777
853.78	20952
853.914	20648
854.048	20606
854.183	20701
854.317	20678
854.451	20887
854.585	20678
854.72	20693
854.854	20727
854.988	20769
855.122	20682
855.256	20651
855.39	20644
855.524	20823
855.658	20701
855.792	20811
855.926	20800
856.06	20739
856.194	20906
856.327	20708
856.461	20545
856.595	20648
856.729	20674
856.862	20876
856.996	20735
857.13	20807
857.263	20750
857.397	20906
857.53	20686
857.664	20807
857.797	20712
857.931	20792
858.064	20769
858.197	20731
858.331	20560
858.464	20617
858.597	20568
858.731	20617
858.864	20568
858.997	20621
859.13	20648
859.263	20659
859.396	20716
859.529	20644
859.662	20644
859.795	20518
859.928	20575
860.061	20777
860.194	20937
860.327	20686
860.46	20640
860.592	20769
860.725	20849
860.858	20765
860.99	20678
861.123	20617
861.256	20651
861.388	20625
861.521	21161
861.653	20537
861.786	20511
861.918	20533
862.05	20552
862.183	20720
862.315	20609
862.447	20701
862.58	20613
862.712	20473
862.844	20320
862.976	20431
863.108	20438
863.24	20819
863.372	20298
863.504	20332
863.636	20233
863.768	20419
863.9	20263
864.032	20161
864.164	20271
864.296	20347
864.428	20526
864.559	20434
864.691	20317
864.823	20294
864.954	20256
865.086	20206
865.217	20233
865.349	20138
865.48	20298
865.612	20229
865.743	20294
865.875	20157
866.006	20119
866.137	20240
866.269	20210
866.4	20225
866.531	20183
866.662	20187
866.793	20210
866.924	20240
867.055	20122
867.186	20248
867.317	20153
867.448	20206
867.579	20149
867.71	20130
867.841	20218
867.972	20256
868.103	20176
868.233	20142
868.364	20142
868.495	20259
868.625	20366
868.756	20492
868.886	20396
869.017	20469
869.147	20465
869.278	20568
869.408	20427
869.539	20313
869.669	20488
869.799	20400
869.929	20503
870.06	20492
870.19	20522
870.32	20678
870.45	20617
870.58	20743
870.71	20921
870.84	20925
870.97	20750
871.1	20781
871.23	21013
871.36	20990
871.489	20861
871.619	20918
871.749	20948
871.879	21024
872.008	21123
872.138	20952
872.267	21013
872.397	20823
872.526	20834
872.656	20686
872.785	20868
872.915	20975
873.044	21047
873.173	21039
873.303	20956
873.432	20994
873.561	21131
873.69	21009
873.819	20963
873.948	21085
874.077	20990
874.206	21001
874.335	21028
874.464	21173
874.593	21245
874.722	21108
874.851	21306
874.979	21310
875.108	21313
875.237	21146
875.365	21176
875.494	21199
875.623	21306
875.751	21306
875.88	21268
876.008	21302
876.136	21504
876.265	21724
876.393	21755
876.521	21751
876.65	21770
876.778	21720
876.906	21542
877.034	21679
877.162	21576
877.29	21466
877.418	21641
877.546	21614
877.674	21599
877.802	21545
877.93	21534
878.058	21572
878.185	21553
878.313	21424
878.441	21572
878.568	21447
878.696	21538
878.824	21561
878.951	21656
879.079	21720
879.206	21873
879.333	21751
879.461	21618
879.588	21713
879.715	21800
879.842	21831
879.97	21785
880.097	21610
880.224	21507
880.351	21553
880.478	21542
880.605	21329
880.732	21306
880.859	21705
880.986	21428
881.112	21492
881.239	21317
881.366	21176
881.493	21043
881.619	21036
881.746	21123
881.872	21005
881.999	20975
882.125	20971
882.252	21142
882.378	21039
882.505	21146
882.631	20883
882.757	20781
882.883	20906
883.01	20883
883.136	20670
883.262	20682
883.388	20606
883.514	20849
883.64	20887
883.766	20712
883.892	20545
884.018	20674
884.143	20727
884.269	20781
884.395	20503
884.52	20427
884.646	20492
884.772	20412
884.897	20294
885.023	20499
885.148	20461
885.274	20530
885.399	20609
885.524	20404
885.65	20457
885.775	20412
885.9	20332
886.025	20511
886.15	20503
886.275	20400
886.4	20214
886.525	20347
886.65	20199
886.775	20248
886.9	20526
887.025	20549
887.149	20358
887.274	20187
887.399	20069
887.523	20206
887.648	20046
887.773	19993
887.897	20065
888.021	20111
888.146	20115
888.27	20187
888.395	20252
888.519	20206
888.643	20111
888.767	20069
888.891	20081
889.015	19989
889.139	19967
889.263	19814
889.387	19902
889.511	20035
889.635	20081
889.759	19921
889.883	19822
890.006	20024
890.13	19864
890.254	19776
890.377	19963
890.501	19632
890.624	19727
890.748	19727
890.871	19620
890.995	19460
891.118	19327
891.241	19525
891.364	19445
891.488	19689
891.611	19552
891.734	19506
891.857	19525
891.98	19400
892.103	19578
892.226	19525
892.349	19487
892.471	19335
892.594	19400
892.717	19445
892.839	19369
892.962	19403
893.085	19586
893.207	19377
893.33	19240
893.452	19350
893.575	19350
893.697	19388
893.819	19655
893.941	19597
894.064	19453
894.186	19297
894.308	19266
894.43	19525
894.552	19601
894.674	19468
894.796	19384
894.918	19422
895.04	19381
895.161	19521
895.283	19468
895.405	19331
895.526	19457
895.648	19426
895.769	19582
895.891	19495
896.012	19533
896.134	19457
896.255	19392
896.376	19476
896.498	19381
896.619	19514
896.74	19643
896.861	19605
896.982	19761
897.103	19967
897.224	19662
897.345	19643
897.466	19655
897.587	19704
897.708	19814
897.828	19788
897.949	19525
898.07	19559
898.19	19655
898.311	19742
898.431	19719
898.552	19635
898.672	19658
898.792	19727
898.913	19590
899.033	19438
899.153	19346
899.273	19373
899.393	19362
899.513	19278
899.633	19293
899.753	19449
899.873	19259
899.993	19487
900.113	19362
900.232	19324
900.352	19320
900.472	19198
900.591	19206
900.711	19232
900.83	19129
900.95	19259
901.069	19175
901.189	19042
901.308	18791
901.427	18700
901.546	18700
901.665	18806
901.784	18837
901.904	18620
902.023	18494
902.141	18357
902.26	18292
902.379	18418
902.498	18296
902.617	18216
902.735	18361
902.854	18251
902.973	18060
903.091	17980
903.21	18003
903.328	17840
903.446	17828
903.565	17828
903.683	17748
903.801	17699
903.919	17756
904.038	17714
904.156	17505
904.274	17638
904.392	17429
904.51	17474
904.627	17532
904.745	17471
904.863	17604
904.981	17303
905.098	17162
905.216	17166
905.334	17128
905.451	17216
905.569	17200
905.686	17204
905.803	17185
905.921	17014
906.038	17014
906.155	17071
906.272	16877
906.389	16904
906.506	16778
906.623	16828
906.74	16744
906.857	16694
906.974	16736
907.091	16675
907.208	16911
907.324	16763
907.441	16626
907.557	16538
907.674	16462
907.79	16413
907.907	16360
908.023	16459
908.139	16402
908.256	16333
908.372	16246
908.488	16280
908.604	16188
908.72	16101
908.836	16116
908.952	16055
909.068	16086
909.184	16150
909.3	16082
909.415	16139
909.531	16131
909.647	15747
909.762	15812
909.878	15812
909.993	15747
910.108	15774
910.224	15743
910.339	15812
910.454	15736
910.57	15679
910.685	15591
910.8	15816
910.915	15751
911.03	15580
911.145	15485
911.259	15370
911.374	15443
911.489	15302
911.604	15298
911.718	15070
911.833	15123
911.947	15062
912.062	14944
912.176	15085
912.291	15154
912.405	15104
912.519	15355
912.633	15249
912.748	15142
912.862	15055
912.976	15009
913.09	14834
913.204	14883
913.318	15024
913.431	15085
913.545	15039
913.659	15116
913.772	14876
913.886	14910
914	14823
914.113	14765
914.226	14796
914.34	14891
914.453	14716
914.566	14819
914.68	14689
914.793	14640
914.906	14476
915.019	14450
915.132	14324
915.245	14393
915.358	14423
915.47	14366
915.583	14480
915.696	14431
915.809	14583
915.921	14499
916.034	14465
916.146	14240
916.259	14271
916.371	14355
916.483	14301
916.595	14286
916.708	14168
916.82	14191
916.932	14164
917.044	14168
917.156	14256
917.268	14084
917.38	13986
917.491	14008
917.603	14107
917.715	14153
917.826	14130
917.938	14020
918.049	14024
918.161	14065
918.272	14115
918.384	14149
918.495	13993
918.606	13906
918.717	13845
918.828	13776
918.939	13894
919.05	13788
919.161	13807
919.272	13639
919.383	13700
919.494	13883
919.604	14016
919.715	13830
919.826	13712
919.936	13795
920.047	13887
920.157	13742
920.267	13982
920.378	13769
920.488	13753
920.598	13898
920.708	14088
920.818	13928
920.928	13921
921.038	14084
921.148	14054
921.258	13769
921.368	13601
921.477	13533
921.587	13441
921.697	13407
921.806	13506
921.916	13411
922.025	13221
922.134	13107
922.244	13141
922.353	13088
922.462	13099
922.571	12924
922.68	12768
922.789	12806
922.898	12768
923.007	12814
923.116	12791
923.224	12715
923.333	12760
923.442	12760
923.55	12620
923.659	12658
923.767	12779
923.876	12662
923.984	12757
924.092	12483
924.201	12608
924.309	12616
924.417	12631
924.525	12475
924.633	12528
924.741	13213
924.849	12342
924.956	12452
925.064	12220
925.172	12289
925.279	12232
925.387	12369
925.494	12232
925.602	12361
925.709	12334
925.816	12175
925.924	12304
926.031	12330
926.138	12148
926.245	12205
926.352	12136
926.459	12281
926.566	12330
926.673	12175
926.779	12045
926.886	12019
926.993	11904
927.099	11828
927.206	11786
927.312	11729
927.419	11912
927.525	11878
927.631	11866
927.737	11866
927.843	11642
927.95	11657
928.056	11676
928.162	11729
928.267	11665
928.373	12429
928.479	11771
928.585	11604
928.69	11676
928.796	11676
928.901	11528
929.007	11459
929.112	11520
929.218	11554
929.323	11414
929.428	11379
929.533	11592
929.638	11341
929.743	11433
929.848	11395
929.953	11414
930.058	11269
930.163	11136
930.267	11098
930.372	11318
930.477	11136
930.581	11265
930.685	11147
930.79	11014
930.894	11048
930.998	10965
931.103	11151
931.207	10767
931.311	10656
931.415	10588
931.519	10451
931.623	10272
