Data from test_V78500241_269.txt Node
Date: Fri Mar 25 15:11:43 CST 2022
User: usil
Spectrometer: V785-0024
Trigger mode: 0
Integration Time (sec): 4.000000E-1
Scans to average: 1
Nonlinearity correction enabled: false
Boxcar width: 0
Storing dark spectrum: false
XAxis mode: Wavelengths
Number of Pixels in Spectrum: 1024
>>>>>Begin Spectral Data<<<<<
801.071	28272
801.214	28246
801.356	28010
801.499	27968
801.641	27888
801.783	27899
801.926	27781
802.068	27759
802.211	27846
802.353	27838
802.496	27610
802.638	27454
802.78	27462
802.923	27424
803.065	27458
803.208	27454
803.35	27481
803.492	27538
803.635	27660
803.777	27447
803.919	27759
804.061	27911
804.204	27637
804.346	27732
804.488	27412
804.63	27591
804.773	27610
804.915	27500
805.057	27519
805.199	27576
805.341	27667
805.483	27789
805.626	27709
805.768	27603
805.91	27747
806.052	27759
806.194	27622
806.336	27770
806.478	27618
806.62	27774
806.762	27808
806.904	27926
807.046	28249
807.188	28074
807.33	27968
807.472	28177
807.614	27987
807.756	28135
807.898	28021
808.04	27880
808.182	27785
808.324	27949
808.465	27937
808.607	28082
808.749	28284
808.891	28329
809.033	28500
809.174	28436
809.316	28322
809.458	28341
809.6	28314
809.741	28421
809.883	28367
810.025	28459
810.166	28611
810.308	28557
810.45	28443
810.591	28409
810.733	28268
810.875	28207
811.016	28303
811.158	28158
811.299	28306
811.441	28535
811.582	28390
811.724	28173
811.865	28352
812.007	28386
812.148	28325
812.29	28188
812.431	28455
812.573	28554
812.714	28615
812.855	28713
812.997	28866
813.138	29098
813.279	28862
813.421	28801
813.562	28797
813.703	28580
813.845	28401
813.986	28246
814.127	27994
814.268	28070
814.41	28048
814.551	27804
814.692	28051
814.833	27827
814.974	28013
815.115	27869
815.256	27816
815.397	27774
815.539	27641
815.68	27785
815.821	27637
815.962	27774
816.103	27717
816.244	27572
816.385	27576
816.526	27485
816.666	27302
816.807	27214
816.948	27154
817.089	27355
817.23	27184
817.371	27138
817.512	27260
817.653	27211
817.793	27047
817.934	27264
818.075	27127
818.216	27173
818.356	27055
818.497	27062
818.638	26910
818.778	26868
818.919	26811
819.06	26895
819.2	27047
819.341	27146
819.481	26982
819.622	27157
819.762	27561
819.903	27287
820.043	27260
820.184	27089
820.324	27291
820.465	27336
820.605	27214
820.746	27249
820.886	27074
821.026	27233
821.167	27184
821.307	27184
821.447	27112
821.588	27055
821.728	26758
821.868	26716
822.008	26746
822.149	26377
822.289	26651
822.429	26233
822.569	26240
822.709	26256
822.849	26012
822.99	26195
823.13	26065
823.27	25978
823.41	25830
823.55	25837
823.69	25814
823.83	25890
823.97	25811
824.11	25784
824.25	25632
824.389	25605
824.529	25761
824.669	25662
824.809	25696
824.949	25814
825.089	25830
825.228	25704
825.368	25445
825.508	25624
825.648	25384
825.787	25578
825.927	25628
826.067	25419
826.206	25559
826.346	25502
826.485	25487
826.625	25605
826.765	25594
826.904	25525
827.044	25270
827.183	25236
827.323	25198
827.462	25171
827.601	25183
827.741	24981
827.88	25312
828.02	25198
828.159	25137
828.298	25270
828.437	25240
828.577	25065
828.716	25278
828.855	25141
828.994	24924
829.134	25012
829.273	24920
829.412	24916
829.551	24814
829.69	24829
829.829	24814
829.968	24973
830.107	24989
830.246	24791
830.385	24943
830.524	24749
830.663	24597
830.802	24498
830.941	24441
831.08	24597
831.219	24498
831.357	24525
831.496	24753
831.635	24433
831.774	24410
831.913	24365
832.051	24304
832.19	24254
832.329	24429
832.467	24182
832.606	24087
832.744	24220
832.883	24216
833.022	24224
833.16	24117
833.299	24152
833.437	24205
833.576	24098
833.714	24114
833.852	24300
833.991	24251
834.129	24235
834.267	24350
834.406	24220
834.544	24163
834.682	24273
834.821	24182
834.959	24372
835.097	23996
835.235	24289
835.373	24178
835.511	24155
835.65	24064
835.788	24098
835.926	23923
836.064	23859
836.202	23882
836.34	23950
836.478	24011
836.615	23969
836.753	24007
836.891	24155
837.029	24053
837.167	23999
837.305	24018
837.443	23847
837.58	23805
837.718	23916
837.856	23908
837.993	23718
838.131	23897
838.269	23821
838.406	23828
838.544	23714
838.681	23615
838.819	23501
838.956	23345
839.094	23254
839.231	23463
839.369	23471
839.506	23710
839.643	23543
839.781	23273
839.918	23239
840.055	23395
840.193	23216
840.33	23170
840.467	23235
840.604	23178
840.742	23425
840.879	23060
841.016	23121
841.153	23041
841.29	23334
841.427	23193
841.564	23246
841.701	23265
841.838	23037
841.975	23212
842.112	23044
842.249	22900
842.385	22858
842.522	23064
842.659	22854
842.796	22919
842.933	23014
843.069	22999
843.206	22873
843.343	23086
843.479	22972
843.616	22919
843.752	22847
843.889	22755
844.025	22850
844.162	22596
844.298	22797
844.435	22744
844.571	22668
844.708	22721
844.844	22923
844.98	22858
845.117	22675
845.253	22725
845.389	22603
845.525	22637
845.661	22481
845.798	22428
845.934	22447
846.07	22337
846.206	22538
846.342	22656
846.478	22436
846.614	22367
846.75	22181
846.886	22272
847.022	22272
847.158	22154
847.294	22128
847.429	22188
847.565	22124
847.701	22462
847.837	21918
847.972	21930
848.108	21983
848.244	22013
848.379	21682
848.515	21816
848.65	21766
848.786	21724
848.921	21675
849.057	21831
849.192	21926
849.328	21831
849.463	21713
849.598	21701
849.734	21641
849.869	21530
850.004	21431
850.14	21424
850.275	21424
850.41	21424
850.545	21443
850.68	21500
850.815	21473
850.95	21450
851.085	21625
851.22	21599
851.355	21507
851.49	21443
851.625	21355
851.76	21447
851.895	21340
852.03	21386
852.165	21515
852.299	21412
852.434	21572
852.569	21355
852.703	21428
852.838	21405
852.973	21580
853.107	21568
853.242	21405
853.376	21252
853.511	21203
853.645	21268
853.78	21469
853.914	21245
854.048	21344
854.183	21249
854.317	21355
854.451	21351
854.585	21367
854.72	21195
854.854	21340
854.988	21222
855.122	21252
855.256	21165
855.39	21169
855.524	21218
855.658	21237
855.792	21313
855.926	21291
856.06	21245
856.194	21393
856.327	21294
856.461	21192
856.595	21325
856.729	21260
856.862	21332
856.996	21359
857.13	21355
857.263	21302
857.397	21348
857.53	21222
857.664	21298
857.797	21310
857.931	21370
858.064	21211
858.197	21408
858.331	21211
858.464	21222
858.597	21020
858.731	21389
858.864	21165
858.997	21233
859.13	21203
859.263	21329
859.396	21382
859.529	21150
859.662	21226
859.795	21192
859.928	21241
860.061	21469
860.194	21473
860.327	21275
860.46	21306
860.592	21317
860.725	21485
860.858	21363
860.99	21268
861.123	21165
861.256	21211
861.388	21302
861.521	21743
861.653	21222
861.786	20982
861.918	21009
862.05	21127
862.183	21135
862.315	21222
862.447	21294
862.58	21268
862.712	20998
862.844	20982
862.976	21081
863.108	21024
863.24	21500
863.372	20910
863.504	20982
863.636	20891
863.768	21028
863.9	20910
864.032	20933
864.164	20925
864.296	21036
864.428	21039
864.559	20952
864.691	20895
864.823	20929
864.954	20971
865.086	20929
865.217	20773
865.349	20864
865.48	20743
865.612	20781
865.743	21032
865.875	20971
866.006	20895
866.137	20838
866.269	20948
866.4	20876
866.531	20769
866.662	20689
866.793	20674
866.924	20834
867.055	20872
867.186	20823
867.317	20811
867.448	20686
867.579	20769
867.71	20739
867.841	20625
867.972	20765
868.103	20838
868.233	20823
868.364	20842
868.495	20830
868.625	20906
868.756	21188
868.886	20937
869.017	20963
869.147	21009
869.278	21157
869.408	21142
869.539	21062
869.669	21032
869.799	21089
869.929	21154
870.06	21070
870.19	21374
870.32	21325
870.45	21287
870.58	21408
870.71	21466
870.84	21545
870.97	21485
871.1	21428
871.23	21515
871.36	21504
871.489	21557
871.619	21625
871.749	21641
871.879	21591
872.008	21728
872.138	21591
872.267	21641
872.397	21469
872.526	21363
872.656	21450
872.785	21473
872.915	21663
873.044	21625
873.173	21713
873.303	21713
873.432	21637
873.561	21785
873.69	21675
873.819	21557
873.948	21675
874.077	21648
874.206	21690
874.335	21614
874.464	21774
874.593	21953
874.722	21823
874.851	21972
874.979	21960
875.108	21808
875.237	21797
875.365	21850
875.494	21861
875.623	21937
875.751	21720
875.88	21835
876.008	21991
876.136	21972
876.265	22322
876.393	22268
876.521	22318
876.65	22352
876.778	22265
876.906	22158
877.034	22215
877.162	22158
877.29	22234
877.418	22284
877.546	22200
877.674	22238
877.802	22211
877.93	22200
878.058	22143
878.185	22010
878.313	22177
878.441	22204
878.568	22074
878.696	22147
878.824	22249
878.951	22291
879.079	22402
879.206	22459
879.333	22314
879.461	22261
879.588	22257
879.715	22402
879.842	22516
879.97	22261
880.097	22017
880.224	22105
880.351	22074
880.478	22059
880.605	21941
880.732	22128
880.859	22242
880.986	21972
881.112	22040
881.239	21937
881.366	21698
881.493	21698
881.619	21633
881.746	21576
881.872	21625
881.999	21648
882.125	21599
882.252	21728
882.378	21614
882.505	21652
882.631	21561
882.757	21397
882.883	21416
883.01	21401
883.136	21321
883.262	21195
883.388	21096
883.514	21389
883.64	21268
883.766	21329
883.892	21066
884.018	21150
884.143	21382
884.269	21279
884.395	21051
884.52	20990
884.646	21123
884.772	20891
884.897	20811
885.023	20971
885.148	21070
885.274	21142
885.399	20986
885.524	21039
885.65	20937
885.775	20963
885.9	20762
886.025	21066
886.15	20998
886.275	20864
886.4	20815
886.525	20933
886.65	20868
886.775	20891
886.9	21150
887.025	21119
887.149	20880
887.274	20773
887.399	20731
887.523	20682
887.648	20762
887.773	20689
887.897	20686
888.021	20845
888.146	20693
888.27	20864
888.395	20895
888.519	20651
888.643	20853
888.767	20712
888.891	20746
889.015	20587
889.139	20594
889.263	20446
889.387	20499
889.511	20705
889.635	20579
889.759	20454
889.883	20522
890.006	20514
890.13	20602
890.254	20454
890.377	20571
890.501	20282
890.624	20290
890.748	20290
890.871	20191
890.995	20126
891.118	20065
891.241	20054
891.364	20035
891.488	20278
891.611	20081
891.734	20054
891.857	20263
891.98	20142
892.103	20062
892.226	20031
892.349	20039
892.471	19917
892.594	20046
892.717	20092
892.839	19982
892.962	20024
893.085	20035
893.207	19902
893.33	19989
893.452	19940
893.575	19978
893.697	19970
893.819	20134
893.941	20195
894.064	20084
894.186	19940
894.308	19864
894.43	20103
894.552	20153
894.674	20039
894.796	19849
894.918	20016
895.04	19986
895.161	20016
895.283	20001
895.405	19852
895.526	19936
895.648	19883
895.769	19894
895.891	19940
896.012	19989
896.134	20039
896.255	20001
896.376	19913
896.498	20027
896.619	20012
896.74	19909
896.861	20039
896.982	20412
897.103	20317
897.224	20355
897.345	20248
897.466	20130
897.587	20240
897.708	20305
897.828	20290
897.949	20320
898.07	20027
898.19	20138
898.311	20263
898.431	20103
898.552	20347
898.672	20290
898.792	20161
898.913	20161
899.033	20016
899.153	19986
899.273	19780
899.393	19875
899.513	19986
899.633	19894
899.753	19913
899.873	19868
899.993	19967
900.113	19890
900.232	19780
900.352	19883
900.472	19811
900.591	19670
900.711	19712
900.83	19746
900.95	19837
901.069	19791
901.189	19651
901.308	19411
901.427	19285
901.546	19339
901.665	19331
901.784	19263
901.904	19080
902.023	19164
902.141	18935
902.26	18878
902.379	18901
902.498	18840
902.617	18859
902.735	18856
902.854	18738
902.973	18669
903.091	18467
903.21	18372
903.328	18342
903.446	18254
903.565	18350
903.683	18239
903.801	18281
903.919	18251
904.038	18174
904.156	18003
904.274	18152
904.392	18121
904.51	17988
904.627	18064
904.745	18041
904.863	18079
904.981	17726
905.098	17684
905.216	17665
905.334	17752
905.451	17859
905.569	17642
905.686	17783
905.803	17714
905.921	17417
906.038	17615
906.155	17467
906.272	17330
906.389	17467
906.506	17311
906.623	17231
906.74	17261
906.857	17159
906.974	17185
907.091	17303
907.208	17402
907.324	17269
907.441	17227
907.557	16949
907.674	17033
907.79	16923
907.907	16968
908.023	17022
908.139	16980
908.256	16866
908.372	16854
908.488	16736
908.604	16721
908.72	16698
908.836	16679
908.952	16660
909.068	16637
909.184	16774
909.3	16725
909.415	16759
909.531	16546
909.647	16356
909.762	16405
909.878	16352
909.993	16287
910.108	16348
910.224	16249
910.339	16382
910.454	16097
910.57	16177
910.685	16139
910.8	16329
910.915	16322
911.03	16211
911.145	16036
911.259	16002
911.374	15953
911.489	15922
911.604	15895
911.718	15751
911.833	15732
911.947	15648
912.062	15496
912.176	15663
912.291	15720
912.405	15610
912.519	15854
912.633	15884
912.748	15675
912.862	15610
912.976	15519
913.09	15397
913.204	15496
913.318	15401
913.431	15637
913.545	15660
913.659	15530
913.772	15485
913.886	15336
914	15393
914.113	15428
914.226	15542
914.34	15408
914.453	15199
914.566	15348
914.68	15291
914.793	15100
914.906	15005
915.019	14979
915.132	14891
915.245	14979
915.358	14998
915.47	14941
915.583	14956
915.696	14948
915.809	15058
915.921	15108
916.034	14861
916.146	14815
916.259	14815
916.371	14872
916.483	14864
916.595	14746
916.708	14781
916.82	14853
916.932	14686
917.044	14712
917.156	14716
917.268	14648
917.38	14686
917.491	14648
917.603	14530
917.715	14648
917.826	14629
917.938	14526
918.049	14336
918.161	14537
918.272	14746
918.384	14670
918.495	14503
918.606	14393
918.717	14290
918.828	14377
918.939	14385
919.05	14400
919.161	14343
919.272	14202
919.383	14138
919.494	14488
919.604	14613
919.715	14393
919.826	14351
919.936	14309
920.047	14347
920.157	14267
920.267	14488
920.378	14290
920.488	14317
920.598	14465
920.708	14530
920.818	14404
920.928	14533
921.038	14511
921.148	14450
921.258	14263
921.368	14130
921.477	14119
921.587	14039
921.697	13913
921.806	14073
921.916	13875
922.025	13666
922.134	13723
922.244	13590
922.353	13795
922.462	13582
922.571	13495
922.68	13460
922.789	13411
922.898	13369
923.007	13263
923.116	13396
923.224	13358
923.333	13232
923.442	13175
923.55	13145
923.659	13247
923.767	13236
923.876	13072
923.984	13232
924.092	13114
924.201	13088
924.309	13019
924.417	13031
924.525	13038
924.633	13061
924.741	13746
924.849	12764
924.956	12954
925.064	12669
925.172	12707
925.279	12665
925.387	12806
925.494	12825
925.602	12821
925.709	12825
925.816	12681
925.924	12741
926.031	12791
926.138	12753
926.245	12707
926.352	12570
926.459	12711
926.566	12783
926.673	12517
926.779	12483
926.886	12506
926.993	12410
927.099	12376
927.206	12327
927.312	12292
927.419	12296
927.525	12289
927.631	12380
927.737	12140
927.843	12121
927.95	12114
928.056	12159
928.162	12148
928.267	12197
928.373	12692
928.479	12194
928.585	11893
928.69	12076
928.796	12129
928.901	12011
929.007	11889
929.112	12022
929.218	11916
929.323	11927
929.428	11859
929.533	11927
929.638	11805
929.743	11786
929.848	11824
929.953	11794
930.058	11809
930.163	11592
930.267	11649
930.372	11745
930.477	11509
930.581	11726
930.685	11634
930.79	11353
930.894	11512
930.998	11356
931.103	11634
931.207	11098
931.311	11071
931.415	11064
931.519	10797
931.623	10866
