Data from test_V78500241_1431.txt Node
Date: Fri Mar 25 15:19:49 CST 2022
User: usil
Spectrometer: V785-0024
Trigger mode: 0
Integration Time (sec): 4.000000E-1
Scans to average: 1
Nonlinearity correction enabled: false
Boxcar width: 0
Storing dark spectrum: false
XAxis mode: Wavelengths
Number of Pixels in Spectrum: 1024
>>>>>Begin Spectral Data<<<<<
801.071	27979
801.214	27964
801.356	27797
801.499	27751
801.641	27652
801.783	27576
801.926	27618
802.068	27622
802.211	27393
802.353	27310
802.496	27233
802.638	27119
802.78	27176
802.923	27207
803.065	27066
803.208	27188
803.35	27211
803.492	27389
803.635	27382
803.777	27332
803.919	27329
804.061	27930
804.204	27466
804.346	27382
804.488	27287
804.63	27466
804.773	27268
804.915	27378
805.057	27515
805.199	27348
805.341	27580
805.483	27538
805.626	27625
805.768	27496
805.91	27614
806.052	27583
806.194	27412
806.336	27656
806.478	27538
806.62	27549
806.762	27781
806.904	27823
807.046	28063
807.188	28036
807.33	28025
807.472	27983
807.614	27907
807.756	28025
807.898	27854
808.04	27728
808.182	27838
808.324	27914
808.465	27972
808.607	28139
808.749	28253
808.891	28287
809.033	28451
809.174	28299
809.316	28287
809.458	28207
809.6	28211
809.741	28519
809.883	28303
810.025	28565
810.166	28554
810.308	28618
810.45	28478
810.591	28363
810.733	28295
810.875	28143
811.016	27994
811.158	28086
811.299	28242
811.441	28120
811.582	28401
811.724	28265
811.865	28253
812.007	28272
812.148	28181
812.29	28215
812.431	28504
812.573	28577
812.714	28710
812.855	28755
812.997	28850
813.138	28949
813.279	28930
813.421	28801
813.562	28717
813.703	28622
813.845	28417
813.986	28177
814.127	28044
814.268	28048
814.41	27949
814.551	27922
814.692	27991
814.833	27850
814.974	27972
815.115	27979
815.256	27701
815.397	27778
815.539	27751
815.68	27766
815.821	27663
815.962	27892
816.103	27660
816.244	27580
816.385	27507
816.526	27549
816.666	27310
816.807	27302
816.948	27310
817.089	27310
817.23	27199
817.371	27287
817.512	27199
817.653	27184
817.793	27146
817.934	27108
818.075	27211
818.216	27089
818.356	27165
818.497	27070
818.638	26876
818.778	26914
818.919	26914
819.06	27138
819.2	27058
819.341	27112
819.481	27214
819.622	27374
819.762	27538
819.903	27401
820.043	27458
820.184	27302
820.324	27291
820.465	27405
820.605	27374
820.746	27298
820.886	27135
821.026	27317
821.167	27313
821.307	27351
821.447	27203
821.588	27135
821.728	26982
821.868	26807
822.008	26587
822.149	26758
822.289	26594
822.429	26446
822.569	26343
822.709	26328
822.849	26111
822.99	26225
823.13	26058
823.27	26134
823.41	26008
823.55	25849
823.69	25974
823.83	26001
823.97	25940
824.11	25852
824.25	25784
824.389	25799
824.529	25902
824.669	25791
824.809	25887
824.949	25940
825.089	26020
825.228	25928
825.368	25616
825.508	25799
825.648	25651
825.787	25715
825.927	25814
826.067	25613
826.206	25643
826.346	25795
826.485	25609
826.625	25849
826.765	25746
826.904	25666
827.044	25411
827.183	25601
827.323	25392
827.462	25403
827.601	25518
827.741	25464
827.88	25510
828.02	25335
828.159	25369
828.298	25354
828.437	25510
828.577	25331
828.716	25434
828.855	25430
828.994	25126
829.134	24943
829.273	25057
829.412	25168
829.551	25004
829.69	25076
829.829	25114
829.968	25187
830.107	25152
830.246	25084
830.385	25065
830.524	24962
830.663	24886
830.802	24806
830.941	24734
831.08	24745
831.219	24730
831.357	24821
831.496	24951
831.635	24844
831.774	24608
831.913	24551
832.051	24574
832.19	24437
832.329	24563
832.467	24578
832.606	24369
832.744	24350
832.883	24445
833.022	24361
833.16	24395
833.299	24452
833.437	24365
833.576	24361
833.714	24357
833.852	24456
833.991	24551
834.129	24570
834.267	24574
834.406	24464
834.544	24422
834.682	24338
834.821	24456
834.959	24627
835.097	24391
835.235	24502
835.373	24441
835.511	24441
835.65	24254
835.788	24232
835.926	24133
836.064	24064
836.202	24155
836.34	24178
836.478	24292
836.615	24258
836.753	24327
836.891	24384
837.029	24300
837.167	24232
837.305	24095
837.443	24167
837.58	24110
837.718	24144
837.856	24102
837.993	24095
838.131	24053
838.269	24045
838.406	23923
838.544	23897
838.681	23798
838.819	23752
838.956	23463
839.094	23619
839.231	23608
839.369	23699
839.506	23904
839.643	23840
839.781	23695
839.918	23558
840.055	23570
840.193	23585
840.33	23505
840.467	23455
840.604	23490
840.742	23756
840.879	23254
841.016	23326
841.153	23383
841.29	23615
841.427	23311
841.564	23539
841.701	23589
841.838	23467
841.975	23273
842.112	23391
842.249	23254
842.385	23231
842.522	23459
842.659	23303
842.796	23155
842.933	23200
843.069	23128
843.206	23204
843.343	23261
843.479	23212
843.616	23326
843.752	22889
843.889	22972
844.025	23185
844.162	23010
844.298	23166
844.435	23010
844.571	23010
844.708	23006
844.844	23094
844.98	23216
845.117	23124
845.253	22866
845.389	23022
845.525	22923
845.661	22786
845.798	22816
845.934	22812
846.07	22729
846.206	22759
846.342	22801
846.478	22752
846.614	22641
846.75	22421
846.886	22478
847.022	22443
847.158	22363
847.294	22577
847.429	22653
847.565	22462
847.701	22645
847.837	22280
847.972	22093
848.108	22177
848.244	22246
848.379	22112
848.515	22093
848.65	22032
848.786	22120
848.921	22093
849.057	22223
849.192	22029
849.328	22078
849.463	21960
849.598	22013
849.734	21911
849.869	21968
850.004	21774
850.14	21774
850.275	21739
850.41	21663
850.545	21804
850.68	21739
850.815	21808
850.95	21884
851.085	22029
851.22	21960
851.355	21846
851.49	21785
851.625	21724
851.76	21736
851.895	21633
852.03	21880
852.165	21701
852.299	21766
852.434	21876
852.569	21827
852.703	21918
852.838	21937
852.973	21949
853.107	21907
853.242	21804
853.376	21766
853.511	21469
853.645	21564
853.78	21759
853.914	21660
854.048	21538
854.183	21663
854.317	21800
854.451	21857
854.585	21686
854.72	21549
854.854	21724
854.988	21576
855.122	21553
855.256	21686
855.39	21762
855.524	21644
855.658	21652
855.792	21724
855.926	21648
856.06	21644
856.194	21694
856.327	21595
856.461	21625
856.595	21591
856.729	21614
856.862	21778
856.996	21705
857.13	21800
857.263	21804
857.397	21736
857.53	21591
857.664	21682
857.797	21618
857.931	21762
858.064	21625
858.197	21690
858.331	21709
858.464	21599
858.597	21549
858.731	21622
858.864	21679
858.997	21614
859.13	21614
859.263	21682
859.396	21713
859.529	21739
859.662	21660
859.795	21633
859.928	21610
860.061	21644
860.194	21979
860.327	21686
860.46	21660
860.592	21736
860.725	21915
860.858	21827
860.99	21724
861.123	21580
861.256	21564
861.388	21580
861.521	22246
861.653	21538
861.786	21439
861.918	21382
862.05	21435
862.183	21595
862.315	21591
862.447	21648
862.58	21553
862.712	21374
862.844	21340
862.976	21492
863.108	21485
863.24	21770
863.372	21260
863.504	21370
863.636	21412
863.768	21294
863.9	21435
864.032	21336
864.164	21260
864.296	21370
864.428	21401
864.559	21370
864.691	21401
864.823	21462
864.954	21298
865.086	21431
865.217	21199
865.349	21203
865.48	21184
865.612	21192
865.743	21287
865.875	21264
866.006	21218
866.137	21218
866.269	21150
866.4	21268
866.531	21245
866.662	21028
866.793	21203
866.924	21104
867.055	21123
867.186	21131
867.317	21058
867.448	21051
867.579	21192
867.71	20982
867.841	21161
867.972	21260
868.103	21036
868.233	21085
868.364	21116
868.495	21260
868.625	21378
868.756	21485
868.886	21336
869.017	21351
869.147	21564
869.278	21412
869.408	21340
869.539	21329
869.669	21462
869.799	21462
869.929	21462
870.06	21511
870.19	21686
870.32	21717
870.45	21587
870.58	21785
870.71	21846
870.84	21873
870.97	21789
871.1	21759
871.23	21983
871.36	21960
871.489	21865
871.619	21975
871.749	21975
871.879	22025
872.008	22082
872.138	21922
872.267	22021
872.397	21793
872.526	21816
872.656	21739
872.785	21816
872.915	22013
873.044	22036
873.173	22070
873.303	21975
873.432	22116
873.561	22287
873.69	22063
873.819	21998
873.948	22097
874.077	22063
874.206	21956
874.335	21956
874.464	22131
874.593	22280
874.722	22265
874.851	22291
874.979	22265
875.108	22135
875.237	22166
875.365	22188
875.494	22166
875.623	22329
875.751	22086
875.88	22200
876.008	22382
876.136	22413
876.265	22580
876.393	22668
876.521	22759
876.65	22679
876.778	22497
876.906	22596
877.034	22588
877.162	22607
877.29	22462
877.418	22664
877.546	22618
877.674	22744
877.802	22584
877.93	22557
878.058	22550
878.185	22512
878.313	22554
878.441	22542
878.568	22504
878.696	22603
878.824	22573
878.951	22607
879.079	22660
879.206	22858
879.333	22729
879.461	22523
879.588	22729
879.715	22664
879.842	22828
879.97	22584
880.097	22447
880.224	22310
880.351	22451
880.478	22428
880.605	22333
880.732	22276
880.859	22702
880.986	22447
881.112	22367
881.239	22226
881.366	22211
881.493	22021
881.619	22025
881.746	21911
881.872	21987
881.999	21903
882.125	21705
882.252	22032
882.378	21926
882.505	22139
882.631	21800
882.757	21667
882.883	21717
883.01	21583
883.136	21629
883.262	21614
883.388	21523
883.514	21667
883.64	21724
883.766	21500
883.892	21287
884.018	21507
884.143	21496
884.269	21660
884.395	21466
884.52	21321
884.646	21287
884.772	21249
884.897	21203
885.023	21302
885.148	21351
885.274	21344
885.399	21447
885.524	21272
885.65	21283
885.775	21237
885.9	21230
886.025	21340
886.15	21443
886.275	21291
886.4	21180
886.525	21340
886.65	21150
886.775	21287
886.9	21351
887.025	21542
887.149	21306
887.274	21074
887.399	21001
887.523	21047
887.648	21058
887.773	20944
887.897	21043
888.021	21233
888.146	21005
888.27	21123
888.395	21138
888.519	21055
888.643	21005
888.767	21157
888.891	20941
889.015	20769
889.139	20864
889.263	20902
889.387	20986
889.511	21104
889.635	20902
889.759	20887
889.883	20944
890.006	20788
890.13	20982
890.254	20750
890.377	20773
890.501	20613
890.624	20431
890.748	20655
890.871	20621
890.995	20347
891.118	20355
891.241	20374
891.364	20400
891.488	20450
891.611	20488
891.734	20370
891.857	20682
891.98	20438
892.103	20385
892.226	20355
892.349	20366
892.471	20244
892.594	20339
892.717	20237
892.839	20320
892.962	20362
893.085	20317
893.207	20320
893.33	20214
893.452	20240
893.575	20336
893.697	20355
893.819	20480
893.941	20484
894.064	20488
894.186	20221
894.308	20157
894.43	20389
894.552	20514
894.674	20343
894.796	20168
894.918	20358
895.04	20393
895.161	20343
895.283	20240
895.405	20225
895.526	20305
895.648	20183
895.769	20339
895.891	20488
896.012	20332
896.134	20385
896.255	20362
896.376	20290
896.498	20328
896.619	20343
896.74	20317
896.861	20488
896.982	20640
897.103	20811
897.224	20537
897.345	20579
897.466	20423
897.587	20590
897.708	20617
897.828	20438
897.949	20419
898.07	20328
898.19	20499
898.311	20518
898.431	20450
898.552	20492
898.672	20560
898.792	20499
898.913	20560
899.033	20427
899.153	20454
899.273	20195
899.393	20278
899.513	20290
899.633	20278
899.753	20195
899.873	20263
899.993	20282
900.113	20145
900.232	20271
900.352	20168
900.472	20172
900.591	20039
900.711	19997
900.83	19932
900.95	20195
901.069	20084
901.189	19845
901.308	19639
901.427	19601
901.546	19693
901.665	19670
901.784	19632
901.904	19514
902.023	19396
902.141	19266
902.26	19141
902.379	19187
902.498	19202
902.617	19076
902.735	19228
902.854	19069
902.973	19126
903.091	18856
903.21	18890
903.328	18837
903.446	18738
903.565	18688
903.683	18635
903.801	18502
903.919	18582
904.038	18585
904.156	18334
904.274	18418
904.392	18433
904.51	18350
904.627	18361
904.745	18433
904.863	18513
904.981	18220
905.098	18019
905.216	18045
905.334	18121
905.451	17980
905.569	18064
905.686	18087
905.803	17942
905.921	17802
906.038	17954
906.155	17805
906.272	17836
906.389	17691
906.506	17665
906.623	17619
906.74	17611
906.857	17383
906.974	17554
907.091	17562
907.208	17710
907.324	17570
907.441	17402
907.557	17258
907.674	17353
907.79	17334
907.907	17277
908.023	17258
908.139	17269
908.256	17250
908.372	17216
908.488	17223
908.604	16995
908.72	16957
908.836	17079
908.952	16946
909.068	17045
909.184	17029
909.3	16957
909.415	16991
909.531	17067
909.647	16828
909.762	16694
909.878	16607
909.993	16763
910.108	16736
910.224	16740
910.339	16748
910.454	16634
910.57	16542
910.685	16314
910.8	16733
910.915	16653
911.03	16508
911.145	16341
911.259	16268
911.374	16379
911.489	16295
911.604	16196
911.718	15983
911.833	16071
911.947	16071
912.062	15911
912.176	16013
912.291	15998
912.405	15987
912.519	16223
912.633	16207
912.748	16021
912.862	15983
912.976	15816
913.09	15766
913.204	15736
913.318	15854
913.431	15945
913.545	15922
913.659	15960
913.772	15766
913.886	15671
914	15652
914.113	15690
914.226	15770
914.34	15797
914.453	15496
914.566	15641
914.68	15519
914.793	15477
914.906	15435
915.019	15237
915.132	15199
915.245	15268
915.358	15291
915.47	15279
915.583	15340
915.696	15344
915.809	15420
915.921	15435
916.034	15233
916.146	15165
916.259	15127
916.371	15230
916.483	15135
916.595	15055
916.708	15138
916.82	15138
916.932	15085
917.044	15055
917.156	15066
917.268	14838
917.38	14883
917.491	14864
917.603	15001
917.715	15009
917.826	14982
917.938	14861
918.049	14701
918.161	14925
918.272	14994
918.384	14937
918.495	14853
918.606	14686
918.717	14651
918.828	14613
918.939	14724
919.05	14590
919.161	14556
919.272	14423
919.383	14450
919.494	14727
919.604	14853
919.715	14575
919.826	14518
919.936	14602
920.047	14682
920.157	14613
920.267	14804
920.378	14602
920.488	14522
920.598	14842
920.708	14941
920.818	14727
920.928	14758
921.038	14838
921.148	14777
921.258	14583
921.368	14495
921.477	14267
921.587	14313
921.697	14183
921.806	14404
921.916	14248
922.025	13993
922.134	13997
922.244	14035
922.353	14008
922.462	13887
922.571	13761
922.68	13613
922.789	13681
922.898	13548
923.007	13632
923.116	13647
923.224	13548
923.333	13575
923.442	13537
923.55	13426
923.659	13502
923.767	13533
923.876	13430
923.984	13495
924.092	13362
924.201	13343
924.309	13422
924.417	13438
924.525	13369
924.633	13274
924.741	14024
924.849	13053
924.956	13179
925.064	13145
925.172	12954
925.279	13110
925.387	13088
925.494	13034
925.602	13183
925.709	13156
925.816	13004
925.924	13069
926.031	13057
926.138	12943
926.245	12981
926.352	12798
926.459	13095
926.566	13053
926.673	12954
926.779	12817
926.886	12833
926.993	12604
927.099	12608
927.206	12563
927.312	12551
927.419	12669
927.525	12597
927.631	12650
927.737	12494
927.843	12479
927.95	12319
928.056	12350
928.162	12509
928.267	12479
928.373	12993
928.479	12456
928.585	12311
928.69	12296
928.796	12338
928.901	12300
929.007	12186
929.112	12353
929.218	12273
929.323	12243
929.428	12087
929.533	12224
929.638	12064
929.743	12129
929.848	12175
929.953	12106
930.058	12019
930.163	11802
930.267	11870
930.372	11984
930.477	11790
930.581	11977
930.685	11859
930.79	11718
930.894	11840
930.998	11745
931.103	11908
931.207	11467
931.311	11429
931.415	11220
931.519	11109
931.623	11117
