Data from test_V78500241_2699.txt Node
Date: Fri Mar 25 15:28:39 CST 2022
User: usil
Spectrometer: V785-0024
Trigger mode: 0
Integration Time (sec): 4.000000E-1
Scans to average: 1
Nonlinearity correction enabled: false
Boxcar width: 0
Storing dark spectrum: false
XAxis mode: Wavelengths
Number of Pixels in Spectrum: 1024
>>>>>Begin Spectral Data<<<<<
801.071	27112
801.214	27036
801.356	26720
801.499	26777
801.641	26686
801.783	26697
801.926	26651
802.068	26629
802.211	26377
802.353	26560
802.496	26317
802.638	26237
802.78	26259
802.923	26161
803.065	26027
803.208	26130
803.35	26286
803.492	26324
803.635	26461
803.777	26278
803.919	26366
804.061	26670
804.204	26381
804.346	26385
804.488	26290
804.63	26313
804.773	26389
804.915	26366
805.057	26495
805.199	26271
805.341	26393
805.483	26507
805.626	26434
805.768	26404
805.91	26492
806.052	26503
806.194	26457
806.336	26636
806.478	26469
806.62	26450
806.762	26644
806.904	26777
807.046	26940
807.188	26952
807.33	26807
807.472	26925
807.614	26804
807.756	26883
807.898	26632
808.04	26686
808.182	26621
808.324	26575
808.465	26640
808.607	26967
808.749	26979
808.891	27233
809.033	27184
809.174	27195
809.316	27169
809.458	26895
809.6	27119
809.741	27188
809.883	27195
810.025	27355
810.166	27416
810.308	27367
810.45	27161
810.591	27241
810.733	26979
810.875	26960
811.016	26967
811.158	27081
811.299	27188
811.441	27260
811.582	27226
811.724	27001
811.865	27089
812.007	27036
812.148	27066
812.29	27108
812.431	27256
812.573	27431
812.714	27294
812.855	27481
812.997	27603
813.138	27728
813.279	27732
813.421	27599
813.562	27549
813.703	27336
813.845	27230
813.986	26861
814.127	26838
814.268	26887
814.41	26701
814.551	26716
814.692	26720
814.833	26735
814.974	26549
815.115	26648
815.256	26640
815.397	26579
815.539	26590
815.68	26564
815.821	26412
815.962	26495
816.103	26404
816.244	26305
816.385	26298
816.526	26259
816.666	26058
816.807	25894
816.948	26035
817.089	26054
817.23	26054
817.371	25993
817.512	25986
817.653	25928
817.793	25917
817.934	25951
818.075	26016
818.216	25959
818.356	25830
818.497	25970
818.638	25769
818.778	25864
818.919	25712
819.06	25715
819.2	25765
819.341	25875
819.481	25909
819.622	26164
819.762	26237
819.903	26233
820.043	26168
820.184	26130
820.324	26084
820.465	26126
820.605	26187
820.746	26088
820.886	25955
821.026	26046
821.167	26024
821.307	26058
821.447	25906
821.588	25750
821.728	25727
821.868	25647
822.008	25358
822.149	25464
822.289	25426
822.429	25190
822.569	25107
822.709	25027
822.849	25069
822.99	24970
823.13	24901
823.27	24901
823.41	24829
823.55	24631
823.69	24711
823.83	24817
823.97	24886
824.11	24513
824.25	24574
824.389	24498
824.529	24730
824.669	24551
824.809	24608
824.949	24563
825.089	24616
825.228	24616
825.368	24323
825.508	24452
825.648	24433
825.787	24486
825.927	24566
826.067	24426
826.206	24330
826.346	24418
826.485	24509
826.625	24311
826.765	24464
826.904	24505
827.044	24262
827.183	24254
827.323	24121
827.462	24152
827.601	24140
827.741	24155
827.88	24091
828.02	23958
828.159	24125
828.298	24148
828.437	24216
828.577	24110
828.716	24258
828.855	24110
828.994	23745
829.134	23790
829.273	23885
829.412	23737
829.551	23916
829.69	23855
829.829	23748
829.968	23904
830.107	23977
830.246	23916
830.385	23786
830.524	23718
830.663	23684
830.802	23554
830.941	23440
831.08	23467
831.219	23551
831.357	23608
831.496	23661
831.635	23459
831.774	23349
831.913	23379
832.051	23299
832.19	23239
832.329	23379
832.467	23140
832.606	22957
832.744	23033
832.883	23060
833.022	23098
833.16	23071
833.299	23147
833.437	23060
833.576	23254
833.714	23151
833.852	23223
833.991	23303
834.129	23269
834.267	23121
834.406	23223
834.544	23284
834.682	23269
834.821	23250
834.959	23265
835.097	23056
835.235	23121
835.373	23235
835.511	23235
835.65	23029
835.788	23109
835.926	22908
836.064	22847
836.202	22828
836.34	22991
836.478	23090
836.615	23048
836.753	22980
836.891	23121
837.029	23094
837.167	23018
837.305	22934
837.443	22942
837.58	22965
837.718	22946
837.856	22877
837.993	22809
838.131	22900
838.269	22729
838.406	22923
838.544	22694
838.681	22569
838.819	22550
838.956	22348
839.094	22375
839.231	22440
839.369	22500
839.506	22831
839.643	22691
839.781	22386
839.918	22299
840.055	22440
840.193	22215
840.33	22287
840.467	22421
840.604	22257
840.742	22717
840.879	22147
841.016	22219
841.153	22249
841.29	22379
841.427	22322
841.564	22367
841.701	22348
841.838	22276
841.975	22192
842.112	22295
842.249	22185
842.385	22135
842.522	22386
842.659	22086
842.796	21998
842.933	22109
843.069	22112
843.206	22010
843.343	22105
843.479	22105
843.616	22055
843.752	21835
843.889	21888
844.025	21972
844.162	21850
844.298	21991
844.435	21869
844.571	21854
844.708	21865
844.844	21979
844.98	21956
845.117	21922
845.253	21903
845.389	21679
845.525	21713
845.661	21705
845.798	21686
845.934	21698
846.07	21538
846.206	21701
846.342	21816
846.478	21580
846.614	21408
846.75	21275
846.886	21302
847.022	21359
847.158	21275
847.294	21336
847.429	21344
847.565	21306
847.701	21660
847.837	21146
847.972	21051
848.108	21279
848.244	21184
848.379	20948
848.515	20971
848.65	20971
848.786	20929
848.921	20880
849.057	21104
849.192	21062
849.328	21051
849.463	20967
849.598	20826
849.734	20864
849.869	20842
850.004	20693
850.14	20773
850.275	20686
850.41	20655
850.545	20625
850.68	20781
850.815	20739
850.95	20701
851.085	20868
851.22	20849
851.355	20807
851.49	20750
851.625	20746
851.76	20629
851.895	20670
852.03	20716
852.165	20765
852.299	20731
852.434	20708
852.569	20693
852.703	20735
852.838	20876
852.973	20914
853.107	20754
853.242	20667
853.376	20549
853.511	20602
853.645	20377
853.78	20609
853.914	20583
854.048	20412
854.183	20499
854.317	20632
854.451	20720
854.585	20503
854.72	20632
854.854	20735
854.988	20396
855.122	20480
855.256	20381
855.39	20488
855.524	20613
855.658	20556
855.792	20465
855.926	20533
856.06	20461
856.194	20545
856.327	20602
856.461	20366
856.595	20518
856.729	20427
856.862	20670
856.996	20476
857.13	20705
857.263	20625
857.397	20526
857.53	20503
857.664	20495
857.797	20594
857.931	20537
858.064	20545
858.197	20590
858.331	20457
858.464	20450
858.597	20317
858.731	20469
858.864	20461
858.997	20503
859.13	20507
859.263	20408
859.396	20621
859.529	20556
859.662	20434
859.795	20469
859.928	20503
860.061	20773
860.194	20720
860.327	20590
860.46	20594
860.592	20739
860.725	20579
860.858	20811
860.99	20511
861.123	20336
861.256	20499
861.388	20461
861.521	21100
861.653	20381
861.786	20343
861.918	20465
862.05	20332
862.183	20480
862.315	20469
862.447	20587
862.58	20385
862.712	20294
862.844	20149
862.976	20320
863.108	20393
863.24	20682
863.372	20145
863.504	20225
863.636	20252
863.768	20309
863.9	20183
864.032	20298
864.164	20199
864.296	20237
864.428	20396
864.559	20271
864.691	20332
864.823	20370
864.954	20240
865.086	20282
865.217	20122
865.349	20073
865.48	20039
865.612	20176
865.743	20244
865.875	20161
866.006	20180
866.137	20081
866.269	20138
866.4	20103
866.531	20088
866.662	19997
866.793	20115
866.924	20088
867.055	20202
867.186	20069
867.317	20058
867.448	20122
867.579	20058
867.71	20016
867.841	20043
867.972	20157
868.103	20142
868.233	20008
868.364	20149
868.495	20054
868.625	20244
868.756	20347
868.886	20278
869.017	20343
869.147	20423
869.278	20431
869.408	20233
869.539	20317
869.669	20324
869.799	20381
869.929	20446
870.06	20423
870.19	20686
870.32	20541
870.45	20674
870.58	20746
870.71	20838
870.84	20845
870.97	20716
871.1	20750
871.23	20937
871.36	20933
871.489	20887
871.619	20899
871.749	21020
871.879	20948
872.008	21070
872.138	20918
872.267	20891
872.397	20804
872.526	20735
872.656	20765
872.785	20826
872.915	20925
873.044	21165
873.173	20956
873.303	21062
873.432	20979
873.561	21116
873.69	20899
873.819	20899
873.948	21112
874.077	20838
874.206	20933
874.335	20986
874.464	21074
874.593	21127
874.722	21226
874.851	21283
874.979	21279
875.108	21226
875.237	21123
875.365	21074
875.494	21169
875.623	21218
875.751	21214
875.88	21180
876.008	21291
876.136	21321
876.265	21625
876.393	21667
876.521	21751
876.65	21720
876.778	21553
876.906	21519
877.034	21466
877.162	21599
877.29	21553
877.418	21488
877.546	21568
877.674	21500
877.802	21481
877.93	21553
878.058	21447
878.185	21572
878.313	21435
878.441	21545
878.568	21424
878.696	21561
878.824	21572
878.951	21648
879.079	21755
879.206	21835
879.333	21534
879.461	21580
879.588	21629
879.715	21667
879.842	21876
879.97	21679
880.097	21363
880.224	21367
880.351	21386
880.478	21435
880.605	21313
880.732	21382
880.859	21717
880.986	21386
881.112	21344
881.239	21268
881.366	21104
881.493	21020
881.619	21001
881.746	21020
881.872	20929
881.999	20925
882.125	20773
882.252	21062
882.378	20883
882.505	21093
882.631	20785
882.757	20598
882.883	20811
883.01	20632
883.136	20777
883.262	20511
883.388	20488
883.514	20724
883.64	20674
883.766	20651
883.892	20507
884.018	20347
884.143	20541
884.269	20705
884.395	20434
884.52	20317
884.646	20412
884.772	20191
884.897	20305
885.023	20366
885.148	20454
885.274	20560
885.399	20332
885.524	20240
885.65	20229
885.775	20263
885.9	20282
886.025	20374
886.15	20412
886.275	20332
886.4	20244
886.525	20309
886.65	20290
886.775	20176
886.9	20328
887.025	20385
887.149	20370
887.274	20126
887.399	20183
887.523	20092
887.648	20073
887.773	19986
887.897	20240
888.021	20244
888.146	19947
888.27	20134
888.395	20191
888.519	20062
888.643	20096
888.767	20176
888.891	19970
889.015	19947
889.139	19898
889.263	19909
889.387	20005
889.511	20027
889.635	20092
889.759	19822
889.883	19814
890.006	19936
890.13	19974
890.254	19837
890.377	19780
890.501	19601
890.624	19597
890.748	19772
890.871	19578
890.995	19586
891.118	19438
891.241	19411
891.364	19525
891.488	19594
891.611	19441
891.734	19510
891.857	19635
891.98	19514
892.103	19533
892.226	19506
892.349	19449
892.471	19426
892.594	19426
892.717	19453
892.839	19415
892.962	19411
893.085	19419
893.207	19396
893.33	19270
893.452	19327
893.575	19480
893.697	19377
893.819	19632
893.941	19502
894.064	19487
894.186	19362
894.308	19354
894.43	19544
894.552	19658
894.674	19491
894.796	19282
894.918	19327
895.04	19396
895.161	19476
895.283	19476
895.405	19388
895.526	19419
895.648	19346
895.769	19400
895.891	19373
896.012	19548
896.134	19400
896.255	19430
896.376	19422
896.498	19457
896.619	19460
896.74	19415
896.861	19441
896.982	19662
897.103	19849
897.224	19715
897.345	19643
897.466	19533
897.587	19670
897.708	19814
897.828	19578
897.949	19674
898.07	19548
898.19	19548
898.311	19765
898.431	19597
898.552	19571
898.672	19769
898.792	19700
898.913	19674
899.033	19559
899.153	19422
899.273	19346
899.393	19483
899.513	19468
899.633	19445
899.753	19430
899.873	19373
899.993	19411
900.113	19415
900.232	19331
900.352	19324
900.472	19266
900.591	19247
900.711	19270
900.83	19221
900.95	19145
901.069	19171
901.189	19179
901.308	18825
901.427	18814
901.546	18859
901.665	18905
901.784	18856
901.904	18658
902.023	18563
902.141	18388
902.26	18433
902.379	18403
902.498	18327
902.617	18216
902.735	18407
902.854	18194
902.973	18327
903.091	17984
903.21	18034
903.328	18060
903.446	17958
903.565	17802
903.683	17802
903.801	17630
903.919	17798
904.038	17748
904.156	17615
904.274	17684
904.392	17615
904.51	17452
904.627	17539
904.745	17623
904.863	17668
904.981	17444
905.098	17227
905.216	17185
905.334	17372
905.451	17250
905.569	17220
905.686	17212
905.803	17235
905.921	17132
906.038	17227
906.155	17056
906.272	16889
906.389	16915
906.506	16889
906.623	16759
906.74	16790
906.857	16778
906.974	16767
907.091	16927
907.208	16949
907.324	16771
907.441	16687
907.557	16679
907.674	16485
907.79	16432
907.907	16428
908.023	16542
908.139	16459
908.256	16451
908.372	16402
908.488	16466
908.604	16303
908.72	16306
908.836	16253
908.952	16238
909.068	16242
909.184	16375
909.3	16128
909.415	16261
909.531	16253
909.647	16032
909.762	15964
909.878	15861
909.993	15975
910.108	15819
910.224	15838
910.339	15846
910.454	15751
910.57	15686
910.685	15675
910.8	15979
910.915	15907
911.03	15675
911.145	15644
911.259	15553
911.374	15618
911.489	15431
911.604	15473
911.718	15268
911.833	15367
911.947	15310
912.062	15104
912.176	15329
912.291	15351
912.405	15310
912.519	15538
912.633	15511
912.748	15359
912.862	15226
912.976	15237
913.09	14918
913.204	15043
913.318	15066
913.431	15195
913.545	15237
913.659	15112
913.772	15100
913.886	14910
914	14941
914.113	15036
914.226	15066
914.34	15005
914.453	14864
914.566	14944
914.68	14788
914.793	14788
914.906	14621
915.019	14549
915.132	14537
915.245	14552
915.358	14533
915.47	14552
915.583	14469
915.696	14564
915.809	14617
915.921	14644
916.034	14511
916.146	14488
916.259	14415
916.371	14602
916.483	14488
916.595	14431
916.708	14313
916.82	14473
916.932	14385
917.044	14351
917.156	14400
917.268	14278
917.38	14248
917.491	14218
917.603	14328
917.715	14332
917.826	14332
917.938	14130
918.049	14058
918.161	14320
918.272	14324
918.384	14240
918.495	14282
918.606	14046
918.717	14054
918.828	14164
918.939	14096
919.05	13974
919.161	13997
919.272	13822
919.383	13879
919.494	14031
919.604	14256
919.715	14012
919.826	13978
919.936	13970
920.047	14054
920.157	14103
920.267	14100
920.378	14077
920.488	13951
920.598	14119
920.708	14313
920.818	14111
920.928	14161
921.038	14202
921.148	14339
921.258	14027
921.368	13818
921.477	13841
921.587	13742
921.697	13674
921.806	13864
921.916	13624
922.025	13483
922.134	13457
922.244	13358
922.353	13491
922.462	13240
922.571	13228
922.68	13072
922.789	13046
922.898	13103
923.007	13015
923.116	13027
923.224	13050
923.333	12935
923.442	12939
923.55	12928
923.659	12901
923.767	12916
923.876	12878
923.984	12951
924.092	12802
924.201	12840
924.309	12738
924.417	12844
924.525	12768
924.633	12821
924.741	13712
924.849	12494
924.956	12631
925.064	12483
925.172	12399
925.279	12395
925.387	12422
925.494	12479
925.602	12517
925.709	12662
925.816	12388
925.924	12513
926.031	12521
926.138	12460
926.245	12486
926.352	12334
926.459	12475
926.566	12502
926.673	12338
926.779	12342
926.886	12254
926.993	12076
927.099	12144
927.206	11958
927.312	12053
927.419	12060
927.525	12064
927.631	12102
927.737	11969
927.843	11935
927.95	11809
928.056	11961
928.162	11912
928.267	11961
928.373	12403
928.479	11961
928.585	11786
928.69	11832
928.796	11939
928.901	11920
929.007	11665
929.112	11847
929.218	11764
929.323	11745
929.428	11592
929.533	11752
929.638	11589
929.743	11547
929.848	11600
929.953	11532
930.058	11455
930.163	11315
930.267	11391
930.372	11539
930.477	11337
930.581	11528
930.685	11326
930.79	11345
930.894	11288
930.998	11185
931.103	11356
931.207	10961
931.311	10934
931.415	10858
931.519	10717
931.623	10626
