Data from test_V78500241_1482.txt Node
Date: Fri Mar 25 15:20:10 CST 2022
User: usil
Spectrometer: V785-0024
Trigger mode: 0
Integration Time (sec): 4.000000E-1
Scans to average: 1
Nonlinearity correction enabled: false
Boxcar width: 0
Storing dark spectrum: false
XAxis mode: Wavelengths
Number of Pixels in Spectrum: 1024
>>>>>Begin Spectral Data<<<<<
801.071	27979
801.214	27968
801.356	27793
801.499	27682
801.641	27542
801.783	27564
801.926	27553
802.068	27599
802.211	27576
802.353	27344
802.496	27233
802.638	27226
802.78	27123
802.923	27089
803.065	27058
803.208	27192
803.35	27302
803.492	27370
803.635	27374
803.777	27233
803.919	27458
804.061	27774
804.204	27622
804.346	27397
804.488	27260
804.63	27401
804.773	27272
804.915	27496
805.057	27564
805.199	27401
805.341	27496
805.483	27644
805.626	27496
805.768	27416
805.91	27488
806.052	27618
806.194	27355
806.336	27762
806.478	27568
806.62	27614
806.762	27686
806.904	27846
807.046	28002
807.188	28105
807.33	28029
807.472	27991
807.614	27873
807.756	27861
807.898	27793
808.04	27732
808.182	27831
808.324	27956
808.465	27888
808.607	28166
808.749	28074
808.891	28295
809.033	28424
809.174	28287
809.316	28169
809.458	28284
809.6	28105
809.741	28409
809.883	28417
810.025	28436
810.166	28527
810.308	28523
810.45	28314
810.591	28344
810.733	28284
810.875	28086
811.016	28135
811.158	28093
811.299	28131
811.441	28192
811.582	28360
811.724	28162
811.865	28192
812.007	28204
812.148	28280
812.29	28432
812.431	28421
812.573	28421
812.714	28733
812.855	28755
812.997	28793
813.138	28995
813.279	28888
813.421	28740
813.562	28752
813.703	28516
813.845	28462
813.986	28215
814.127	28070
814.268	27979
814.41	27903
814.551	27869
814.692	27953
814.833	27888
814.974	27827
815.115	27949
815.256	27682
815.397	27797
815.539	27808
815.68	27762
815.821	27553
815.962	27739
816.103	27694
816.244	27667
816.385	27443
816.526	27389
816.666	27325
816.807	27108
816.948	27359
817.089	27359
817.23	27287
817.371	27199
817.512	27344
817.653	27089
817.793	27089
817.934	27138
818.075	27291
818.216	27237
818.356	27127
818.497	27222
818.638	26979
818.778	26880
818.919	26952
819.06	26948
819.2	27108
819.341	27184
819.481	27135
819.622	27268
819.762	27682
819.903	27351
820.043	27420
820.184	27317
820.324	27488
820.465	27336
820.605	27260
820.746	27302
820.886	27169
821.026	27237
821.167	27173
821.307	27256
821.447	27199
821.588	27085
821.728	26952
821.868	26838
822.008	26697
822.149	26682
822.289	26663
822.429	26423
822.569	26267
822.709	26221
822.849	26149
822.99	26191
823.13	26092
823.27	26001
823.41	25906
823.55	25864
823.69	26043
823.83	26058
823.97	25887
824.11	25833
824.25	25830
824.389	25837
824.529	25917
824.669	25856
824.809	25936
824.949	25909
825.089	25856
825.228	25868
825.368	25750
825.508	25620
825.648	25662
825.787	25704
825.927	25635
826.067	25620
826.206	25586
826.346	25734
826.485	25746
826.625	25674
826.765	25784
826.904	25727
827.044	25472
827.183	25297
827.323	25308
827.462	25438
827.601	25479
827.741	25335
827.88	25464
828.02	25270
828.159	25324
828.298	25365
828.437	25377
828.577	25270
828.716	25499
828.855	25308
828.994	25015
829.134	25084
829.273	24970
829.412	25012
829.551	24985
829.69	25050
829.829	25034
829.968	25270
830.107	25008
830.246	24973
830.385	25019
830.524	24985
830.663	24817
830.802	24753
830.941	24688
831.08	24734
831.219	24726
831.357	24783
831.496	24871
831.635	24654
831.774	24612
831.913	24627
832.051	24509
832.19	24570
832.329	24525
832.467	24475
832.606	24281
832.744	24224
832.883	24262
833.022	24315
833.16	24258
833.299	24342
833.437	24311
833.576	24395
833.714	24418
833.852	24505
833.991	24414
834.129	24475
834.267	24509
834.406	24365
834.544	24460
834.682	24403
834.821	24384
834.959	24467
835.097	24251
835.235	24445
835.373	24388
835.511	24300
835.65	24232
835.788	24171
835.926	24091
836.064	23885
836.202	24007
836.34	24315
836.478	24327
836.615	24102
836.753	24171
836.891	24300
837.029	24106
837.167	24091
837.305	24076
837.443	24140
837.58	24018
837.718	24182
837.856	24045
837.993	24083
838.131	24053
838.269	23813
838.406	24015
838.544	24011
838.681	23805
838.819	23657
838.956	23680
839.094	23551
839.231	23547
839.369	23623
839.506	23832
839.643	23748
839.781	23505
839.918	23535
840.055	23558
840.193	23425
840.33	23478
840.467	23444
840.604	23429
840.742	23661
840.879	23216
841.016	23254
841.153	23235
841.29	23478
841.427	23478
841.564	23429
841.701	23436
841.838	23299
841.975	23288
842.112	23136
842.249	23200
842.385	23250
842.522	23341
842.659	23220
842.796	23246
842.933	23147
843.069	23105
843.206	23098
843.343	23174
843.479	23299
843.616	23227
843.752	22976
843.889	22896
844.025	23064
844.162	22991
844.298	22885
844.435	22854
844.571	23041
844.708	23025
844.844	23079
844.98	22999
845.117	22995
845.253	22839
845.389	22850
845.525	22919
845.661	22744
845.798	22786
845.934	22713
846.07	22721
846.206	22668
846.342	22793
846.478	22660
846.614	22584
846.75	22348
846.886	22489
847.022	22470
847.158	22436
847.294	22542
847.429	22356
847.565	22478
847.701	22554
847.837	22242
847.972	22192
848.108	22261
848.244	22173
848.379	22036
848.515	21987
848.65	21922
848.786	22059
848.921	22112
849.057	22059
849.192	21994
849.328	22093
849.463	21941
849.598	22078
849.734	21911
849.869	21842
850.004	21812
850.14	21888
850.275	21827
850.41	21770
850.545	21671
850.68	21759
850.815	21713
850.95	21800
851.085	21945
851.22	21876
851.355	21713
851.49	21736
851.625	21800
851.76	21819
851.895	21762
852.03	21660
852.165	21656
852.299	21804
852.434	21816
852.569	21827
852.703	21755
852.838	21759
852.973	21903
853.107	21911
853.242	21831
853.376	21652
853.511	21393
853.645	21576
853.78	21728
853.914	21599
854.048	21644
854.183	21595
854.317	21610
854.451	21751
854.585	21618
854.72	21572
854.854	21583
854.988	21515
855.122	21618
855.256	21401
855.39	21564
855.524	21736
855.658	21675
855.792	21545
855.926	21713
856.06	21656
856.194	21656
856.327	21591
856.461	21549
856.595	21557
856.729	21656
856.862	21713
856.996	21606
857.13	21648
857.263	21679
857.397	21713
857.53	21549
857.664	21717
857.797	21618
857.931	21538
858.064	21618
858.197	21561
858.331	21557
858.464	21545
858.597	21500
858.731	21614
858.864	21545
858.997	21572
859.13	21603
859.263	21641
859.396	21614
859.529	21637
859.662	21534
859.795	21492
859.928	21667
860.061	21625
860.194	21793
860.327	21618
860.46	21576
860.592	21808
860.725	21739
860.858	21785
860.99	21561
861.123	21576
861.256	21603
861.388	21583
861.521	22169
861.653	21515
861.786	21519
861.918	21466
862.05	21504
862.183	21416
862.315	21568
862.447	21572
862.58	21386
862.712	21207
862.844	21214
862.976	21439
863.108	21374
863.24	21759
863.372	21355
863.504	21329
863.636	21207
863.768	21306
863.9	21340
864.032	21237
864.164	21211
864.296	21298
864.428	21382
864.559	21359
864.691	21363
864.823	21287
864.954	21241
865.086	21405
865.217	21184
865.349	21146
865.48	21237
865.612	21154
865.743	21283
865.875	21226
866.006	21161
866.137	21138
866.269	21260
866.4	21260
866.531	21146
866.662	21074
866.793	21058
866.924	21169
867.055	21195
867.186	21165
867.317	21100
867.448	20994
867.579	21081
867.71	20853
867.841	21062
867.972	21233
868.103	21032
868.233	21154
868.364	21165
868.495	21237
868.625	21249
868.756	21462
868.886	21348
869.017	21252
869.147	21439
869.278	21504
869.408	21397
869.539	21344
869.669	21534
869.799	21485
869.929	21469
870.06	21340
870.19	21606
870.32	21629
870.45	21610
870.58	21705
870.71	21831
870.84	21979
870.97	21698
871.1	21686
871.23	21907
871.36	21941
871.489	21888
871.619	21770
871.749	21937
871.879	21945
872.008	22109
872.138	21953
872.267	21880
872.397	21778
872.526	21838
872.656	21675
872.785	21713
872.915	21994
873.044	22112
873.173	21888
873.303	22097
873.432	22063
873.561	22109
873.69	22025
873.819	21975
873.948	22013
874.077	21964
874.206	21888
874.335	21956
874.464	22036
874.593	22188
874.722	22128
874.851	22257
874.979	22215
875.108	22246
875.237	22059
875.365	22013
875.494	22082
875.623	22204
875.751	22101
875.88	22158
876.008	22367
876.136	22341
876.265	22588
876.393	22569
876.521	22603
876.65	22546
876.778	22611
876.906	22584
877.034	22474
877.162	22611
877.29	22478
877.418	22516
877.546	22493
877.674	22531
877.802	22618
877.93	22538
878.058	22424
878.185	22394
878.313	22504
878.441	22451
878.568	22329
878.696	22531
878.824	22615
878.951	22428
879.079	22607
879.206	22793
879.333	22656
879.461	22527
879.588	22660
879.715	22733
879.842	22729
879.97	22577
880.097	22386
880.224	22405
880.351	22428
880.478	22474
880.605	22428
880.732	22360
880.859	22550
880.986	22333
881.112	22253
881.239	22268
881.366	22105
881.493	21972
881.619	21941
881.746	21907
881.872	22040
881.999	21865
882.125	21812
882.252	22040
882.378	21918
882.505	21953
882.631	21892
882.757	21671
882.883	21633
883.01	21656
883.136	21526
883.262	21485
883.388	21542
883.514	21564
883.64	21717
883.766	21519
883.892	21416
884.018	21431
884.143	21538
884.269	21603
884.395	21359
884.52	21298
884.646	21146
884.772	21055
884.897	21119
885.023	21260
885.148	21332
885.274	21538
885.399	21370
885.524	21241
885.65	21169
885.775	21348
885.9	21218
886.025	21435
886.15	21416
886.275	21203
886.4	21165
886.525	21195
886.65	21142
886.775	21116
886.9	21268
887.025	21412
887.149	21233
887.274	21131
887.399	21047
887.523	20944
887.648	20876
887.773	20883
887.897	21142
888.021	21203
888.146	20902
888.27	21123
888.395	21005
888.519	21013
888.643	20998
888.767	21142
888.891	20906
889.015	20781
889.139	20887
889.263	20773
889.387	20975
889.511	20967
889.635	20895
889.759	20880
889.883	20796
890.006	20769
890.13	20857
890.254	20743
890.377	20697
890.501	20556
890.624	20621
890.748	20644
890.871	20526
890.995	20419
891.118	20377
891.241	20339
891.364	20461
891.488	20465
891.611	20366
891.734	20442
891.857	20385
891.98	20366
892.103	20351
892.226	20351
892.349	20385
892.471	20206
892.594	20301
892.717	20313
892.839	20259
892.962	20271
893.085	20336
893.207	20370
893.33	20176
893.452	20115
893.575	20275
893.697	20180
893.819	20442
893.941	20446
894.064	20358
894.186	20218
894.308	20256
894.43	20370
894.552	20412
894.674	20355
894.796	20225
894.918	20278
895.04	20381
895.161	20313
895.283	20317
895.405	20320
895.526	20370
895.648	20286
895.769	20263
895.891	20290
896.012	20362
896.134	20271
896.255	20431
896.376	20252
896.498	20248
896.619	20221
896.74	20225
896.861	20347
896.982	20518
897.103	20636
897.224	20537
897.345	20454
897.466	20511
897.587	20495
897.708	20590
897.828	20465
897.949	20427
898.07	20362
898.19	20358
898.311	20556
898.431	20438
898.552	20503
898.672	20606
898.792	20533
898.913	20526
899.033	20499
899.153	20362
899.273	20195
899.393	20233
899.513	20328
899.633	20256
899.753	20278
899.873	20130
899.993	20301
900.113	20065
900.232	20225
900.352	20035
900.472	20096
900.591	20100
900.711	20069
900.83	19978
900.95	20096
901.069	20077
901.189	19963
901.308	19674
901.427	19567
901.546	19689
901.665	19567
901.784	19658
901.904	19525
902.023	19373
902.141	19171
902.26	19206
902.379	19217
902.498	19236
902.617	19114
902.735	19213
902.854	19088
902.973	19004
903.091	18791
903.21	18772
903.328	18791
903.446	18696
903.565	18566
903.683	18627
903.801	18422
903.919	18574
904.038	18521
904.156	18277
904.274	18365
904.392	18327
904.51	18380
904.627	18342
904.745	18403
904.863	18391
904.981	18068
905.098	18045
905.216	17988
905.334	18072
905.451	18030
905.569	17920
905.686	18060
905.803	18034
905.921	17821
906.038	17870
906.155	17889
906.272	17707
906.389	17657
906.506	17570
906.623	17543
906.74	17535
906.857	17417
906.974	17448
907.091	17615
907.208	17642
907.324	17524
907.441	17440
907.557	17258
907.674	17311
907.79	17239
907.907	17212
908.023	17254
908.139	17216
908.256	17223
908.372	17105
908.488	17216
908.604	16991
908.72	16984
908.836	16942
908.952	16930
909.068	17006
909.184	17079
909.3	16980
909.415	16999
909.531	16869
909.647	16679
909.762	16786
909.878	16618
909.993	16706
910.108	16679
910.224	16618
910.339	16634
910.454	16626
910.57	16455
910.685	16329
910.8	16660
910.915	16596
911.03	16428
911.145	16348
911.259	16276
911.374	16280
911.489	16185
911.604	16181
911.718	15975
911.833	16029
911.947	15876
912.062	15819
912.176	15987
912.291	16017
912.405	15983
912.519	16204
912.633	16230
912.748	16097
912.862	16021
912.976	15835
913.09	15812
913.204	15675
913.318	15888
913.431	15937
913.545	15979
913.659	16025
913.772	15770
913.886	15633
914	15656
914.113	15736
914.226	15717
914.34	15637
914.453	15507
914.566	15724
914.68	15576
914.793	15450
914.906	15283
915.019	15252
915.132	15176
915.245	15260
915.358	15195
915.47	15260
915.583	15283
915.696	15298
915.809	15389
915.921	15310
916.034	15104
916.146	15169
916.259	15180
916.371	15100
916.483	15146
916.595	15047
916.708	15020
916.82	15036
916.932	15055
917.044	15127
917.156	15077
917.268	14937
917.38	14960
917.491	14777
917.603	14902
917.715	14952
917.826	14971
917.938	14921
918.049	14785
918.161	14785
918.272	14948
918.384	14960
918.495	14823
918.606	14583
918.717	14625
918.828	14693
918.939	14602
919.05	14533
919.161	14674
919.272	14454
919.383	14526
919.494	14636
919.604	14861
919.715	14602
919.826	14469
919.936	14594
920.047	14708
920.157	14602
920.267	14804
920.378	14602
920.488	14473
920.598	14686
920.708	14842
920.818	14781
920.928	14678
921.038	14910
921.148	14819
921.258	14545
921.368	14362
921.477	14377
921.587	14294
921.697	14119
921.806	14434
921.916	14187
922.025	13974
922.134	13932
922.244	13928
922.353	13902
922.462	13906
922.571	13822
922.68	13681
922.789	13594
922.898	13620
923.007	13563
923.116	13662
923.224	13605
923.333	13601
923.442	13578
923.55	13457
923.659	13457
923.767	13533
923.876	13403
923.984	13476
924.092	13354
924.201	13316
924.309	13369
924.417	13388
924.525	13369
924.633	13316
924.741	14069
924.849	13099
924.956	13202
925.064	12977
925.172	12993
925.279	13031
925.387	13088
925.494	12977
925.602	13133
925.709	13019
925.816	12924
925.924	12920
926.031	13099
926.138	12993
926.245	12985
926.352	12970
926.459	12973
926.566	13008
926.673	12962
926.779	12772
926.886	12840
926.993	12627
927.099	12566
927.206	12521
927.312	12608
927.419	12623
927.525	12635
927.631	12696
927.737	12547
927.843	12372
927.95	12311
928.056	12486
928.162	12437
928.267	12479
928.373	12909
928.479	12422
928.585	12216
928.69	12289
928.796	12403
928.901	12277
929.007	12095
929.112	12281
929.218	12235
929.323	12243
929.428	12140
929.533	12243
929.638	12045
929.743	12106
929.848	12117
929.953	12072
930.058	12026
930.163	11832
930.267	11904
930.372	11965
930.477	11737
930.581	12019
930.685	11889
930.79	11745
930.894	11783
930.998	11707
931.103	11809
931.207	11395
931.311	11387
931.415	11315
931.519	11071
931.623	11083
