Data from test_V78500241_3090.txt Node
Date: Fri Mar 25 15:31:22 CST 2022
User: usil
Spectrometer: V785-0024
Trigger mode: 0
Integration Time (sec): 4.000000E-1
Scans to average: 1
Nonlinearity correction enabled: false
Boxcar width: 0
Storing dark spectrum: false
XAxis mode: Wavelengths
Number of Pixels in Spectrum: 1024
>>>>>Begin Spectral Data<<<<<
801.071	27294
801.214	27340
801.356	27051
801.499	27039
801.641	26826
801.783	26868
801.926	26887
802.068	26826
802.211	26773
802.353	26708
802.496	26640
802.638	26655
802.78	26427
802.923	26339
803.065	26347
803.208	26370
803.35	26514
803.492	26674
803.635	26731
803.777	26625
803.919	26689
804.061	26948
804.204	26625
804.346	26571
804.488	26613
804.63	26598
804.773	26659
804.915	26644
805.057	26674
805.199	26655
805.341	26575
805.483	26792
805.626	26750
805.768	26648
805.91	26788
806.052	26651
806.194	26533
806.336	26994
806.478	26925
806.62	26743
806.762	26792
806.904	27047
807.046	27123
807.188	27176
807.33	27119
807.472	27127
807.614	27214
807.756	27256
807.898	27039
808.04	27051
808.182	26979
808.324	27112
808.465	27032
808.607	27237
808.749	27473
808.891	27412
809.033	27606
809.174	27492
809.316	27431
809.458	27405
809.6	27214
809.741	27416
809.883	27477
810.025	27766
810.166	27599
810.308	27641
810.45	27652
810.591	27462
810.733	27386
810.875	27348
811.016	27192
811.158	27260
811.299	27538
811.441	27542
811.582	27485
811.724	27545
811.865	27481
812.007	27336
812.148	27317
812.29	27435
812.431	27511
812.573	27583
812.714	27812
812.855	27766
812.997	27831
813.138	28090
813.279	27903
813.421	27880
813.562	27812
813.703	27587
813.845	27530
813.986	27241
814.127	27180
814.268	26948
814.41	26982
814.551	26952
814.692	27055
814.833	26948
814.974	26918
815.115	27043
815.256	26872
815.397	26880
815.539	26937
815.68	26765
815.821	26758
815.962	26663
816.103	26823
816.244	26655
816.385	26556
816.526	26511
816.666	26453
816.807	26271
816.948	26389
817.089	26412
817.23	26339
817.371	26244
817.512	26191
817.653	26377
817.793	26305
817.934	26161
818.075	26332
818.216	26298
818.356	26252
818.497	26122
818.638	25928
818.778	26012
818.919	26050
819.06	26039
819.2	26221
819.341	26164
819.481	26122
819.622	26427
819.762	26613
819.903	26625
820.043	26347
820.184	26298
820.324	26301
820.465	26400
820.605	26298
820.746	26358
820.886	26282
821.026	26362
821.167	26252
821.307	26328
821.447	26309
821.588	26122
821.728	26054
821.868	25966
822.008	25811
822.149	25757
822.289	25772
822.429	25449
822.569	25316
822.709	25407
822.849	25251
822.99	25278
823.13	25297
823.27	25232
823.41	25053
823.55	25012
823.69	25072
823.83	25023
823.97	25141
824.11	24916
824.25	24810
824.389	24848
824.529	24878
824.669	24798
824.809	24951
824.949	24947
825.089	24977
825.228	24901
825.368	24753
825.508	24715
825.648	24825
825.787	24734
825.927	24722
826.067	24810
826.206	24681
826.346	24821
826.485	24859
826.625	24817
826.765	24810
826.904	24700
827.044	24650
827.183	24547
827.323	24433
827.462	24593
827.601	24456
827.741	24502
827.88	24452
828.02	24429
828.159	24353
828.298	24422
828.437	24376
828.577	24365
828.716	24612
828.855	24418
828.994	24041
829.134	24304
829.273	24216
829.412	24072
829.551	24117
829.69	24159
829.829	24152
829.968	24243
830.107	24133
830.246	24129
830.385	24022
830.524	23939
830.663	24015
830.802	23923
830.941	23870
831.08	23665
831.219	23882
831.357	23847
831.496	23908
831.635	23752
831.774	23623
831.913	23699
832.051	23577
832.19	23452
832.329	23573
832.467	23528
832.606	23326
832.744	23459
832.883	23463
833.022	23288
833.16	23376
833.299	23623
833.437	23421
833.576	23440
833.714	23455
833.852	23589
833.991	23566
834.129	23535
834.267	23604
834.406	23505
834.544	23452
834.682	23440
834.821	23406
834.959	23539
835.097	23478
835.235	23528
835.373	23474
835.511	23395
835.65	23288
835.788	23258
835.926	23265
836.064	22987
836.202	23189
836.34	23318
836.478	23356
836.615	23315
836.753	23246
836.891	23356
837.029	23376
837.167	23406
837.305	23197
837.443	23261
837.58	23128
837.718	23231
837.856	23166
837.993	23109
838.131	23273
838.269	23044
838.406	23105
838.544	22972
838.681	22847
838.819	22744
838.956	22485
839.094	22736
839.231	22713
839.369	22790
839.506	23094
839.643	22957
839.781	22637
839.918	22675
840.055	22588
840.193	22615
840.33	22584
840.467	22641
840.604	22721
840.742	22896
840.879	22550
841.016	22455
841.153	22535
841.29	22744
841.427	22584
841.564	22470
841.701	22519
841.838	22554
841.975	22527
842.112	22538
842.249	22402
842.385	22295
842.522	22592
842.659	22470
842.796	22310
842.933	22287
843.069	22246
843.206	22169
843.343	22432
843.479	22394
843.616	22356
843.752	22120
843.889	22036
844.025	22314
844.162	22223
844.298	22253
844.435	22036
844.571	22032
844.708	22200
844.844	22147
844.98	22200
845.117	22223
845.253	22051
845.389	21968
845.525	22131
845.661	21869
845.798	21857
845.934	21949
846.07	21785
846.206	21884
846.342	22063
846.478	21766
846.614	21717
846.75	21652
846.886	21496
847.022	21698
847.158	21705
847.294	21545
847.429	21511
847.565	21504
847.701	21846
847.837	21382
847.972	21424
848.108	21408
848.244	21431
848.379	21378
848.515	21127
848.65	21135
848.786	21207
848.921	21146
849.057	21336
849.192	21275
849.328	21321
849.463	21127
849.598	21096
849.734	21135
849.869	20990
850.004	20956
850.14	20899
850.275	20921
850.41	20807
850.545	20861
850.68	20948
850.815	21055
850.95	20960
851.085	21093
851.22	21089
851.355	21005
851.49	20838
851.625	20925
851.76	20906
851.895	20956
852.03	20902
852.165	20986
852.299	20994
852.434	21036
852.569	20990
852.703	20861
852.838	20937
852.973	21142
853.107	21051
853.242	20864
853.376	20750
853.511	20697
853.645	20739
853.78	20838
853.914	20804
854.048	20712
854.183	20686
854.317	20762
854.451	20849
854.585	20918
854.72	20716
854.854	20868
854.988	20682
855.122	20712
855.256	20632
855.39	20636
855.524	20727
855.658	20739
855.792	20735
855.926	20750
856.06	20769
856.194	20937
856.327	20712
856.461	20594
856.595	20750
856.729	20636
856.862	20864
856.996	20807
857.13	20956
857.263	20956
857.397	20826
857.53	20659
857.664	20826
857.797	20883
857.931	20948
858.064	20800
858.197	20826
858.331	20705
858.464	20716
858.597	20746
858.731	20815
858.864	20712
858.997	20883
859.13	20914
859.263	20830
859.396	20819
859.529	20746
859.662	20686
859.795	20864
859.928	20731
860.061	20975
860.194	21093
860.327	20781
860.46	20670
860.592	20883
860.725	20899
860.858	20830
860.99	20902
861.123	20655
861.256	20594
861.388	20773
861.521	21367
861.653	20670
861.786	20583
861.918	20507
862.05	20594
862.183	20651
862.315	20648
862.447	20724
862.58	20697
862.712	20499
862.844	20457
862.976	20571
863.108	20541
863.24	20948
863.372	20461
863.504	20454
863.636	20476
863.768	20625
863.9	20488
864.032	20465
864.164	20389
864.296	20598
864.428	20659
864.559	20377
864.691	20530
864.823	20484
864.954	20579
865.086	20514
865.217	20366
865.349	20317
865.48	20533
865.612	20385
865.743	20442
865.875	20465
866.006	20351
866.137	20355
866.269	20381
866.4	20320
866.531	20381
866.662	20317
866.793	20336
866.924	20343
867.055	20450
867.186	20328
867.317	20305
867.448	20290
867.579	20221
867.71	20202
867.841	20336
867.972	20362
868.103	20362
868.233	20248
868.364	20343
868.495	20503
868.625	20492
868.756	20670
868.886	20492
869.017	20396
869.147	20682
869.278	20701
869.408	20583
869.539	20575
869.669	20602
869.799	20537
869.929	20606
870.06	20686
870.19	20785
870.32	20773
870.45	20929
870.58	20956
870.71	21150
870.84	21024
870.97	20929
871.1	20990
871.23	21066
871.36	21074
871.489	21157
871.619	21123
871.749	21180
871.879	21138
872.008	21237
872.138	21176
872.267	21218
872.397	20990
872.526	21074
872.656	21074
872.785	20963
872.915	21207
873.044	21264
873.173	21233
873.303	21252
873.432	21173
873.561	21329
873.69	21275
873.819	21359
873.948	21260
874.077	21116
874.206	21100
874.335	21233
874.464	21389
874.593	21439
874.722	21397
874.851	21374
874.979	21416
875.108	21485
875.237	21447
875.365	21386
875.494	21359
875.623	21454
875.751	21458
875.88	21351
876.008	21447
876.136	21599
876.265	21842
876.393	21953
876.521	21983
876.65	21869
876.778	21709
876.906	21785
877.034	21755
877.162	21797
877.29	21778
877.418	21747
877.546	21797
877.674	21728
877.802	21717
877.93	21819
878.058	21660
878.185	21637
878.313	21709
878.441	21694
878.568	21724
878.696	21648
878.824	21724
878.951	21789
879.079	22044
879.206	22040
879.333	22025
879.461	21755
879.588	21857
879.715	22017
879.842	21895
879.97	21899
880.097	21663
880.224	21629
880.351	21663
880.478	21583
880.605	21587
880.732	21618
880.859	21831
880.986	21553
881.112	21625
881.239	21447
881.366	21511
881.493	21287
881.619	21233
881.746	21176
881.872	21214
881.999	21184
882.125	21161
882.252	21203
882.378	21241
882.505	21283
882.631	20967
882.757	21028
882.883	20883
883.01	20929
883.136	20800
883.262	20746
883.388	20857
883.514	20948
883.64	20902
883.766	20899
883.892	20640
884.018	20773
884.143	20819
884.269	20921
884.395	20609
884.52	20594
884.646	20617
884.772	20404
884.897	20457
885.023	20560
885.148	20636
885.274	20655
885.399	20693
885.524	20446
885.65	20568
885.775	20560
885.9	20522
886.025	20701
886.15	20549
886.275	20484
886.4	20408
886.525	20492
886.65	20495
886.775	20385
886.9	20583
887.025	20708
887.149	20518
887.274	20370
887.399	20362
887.523	20355
887.648	20336
887.773	20191
887.897	20351
888.021	20313
888.146	20180
888.27	20431
888.395	20419
888.519	20301
888.643	20343
888.767	20431
888.891	20225
889.015	20054
889.139	20153
889.263	20157
889.387	20252
889.511	20275
889.635	20202
889.759	20202
889.883	20043
890.006	20122
890.13	20096
890.254	19970
890.377	20088
890.501	19963
890.624	19799
890.748	19967
890.871	19765
890.995	19750
891.118	19563
891.241	19674
891.364	19712
891.488	19845
891.611	19632
891.734	19651
891.857	19765
891.98	19666
892.103	19708
892.226	19723
892.349	19765
892.471	19495
892.594	19575
892.717	19605
892.839	19590
892.962	19670
893.085	19696
893.207	19556
893.33	19491
893.452	19548
893.575	19594
893.697	19601
893.819	19788
893.941	19864
894.064	19784
894.186	19559
894.308	19521
894.43	19567
894.552	19826
894.674	19696
894.796	19571
894.918	19521
895.04	19662
895.161	19639
895.283	19708
895.405	19419
895.526	19590
895.648	19620
895.769	19609
895.891	19605
896.012	19731
896.134	19693
896.255	19639
896.376	19643
896.498	19700
896.619	19613
896.74	19674
896.861	19594
896.982	19982
897.103	20001
897.224	19833
897.345	19833
897.466	19761
897.587	19849
897.708	20005
897.828	19879
897.949	19795
898.07	19734
898.19	19856
898.311	19921
898.431	19681
898.552	19734
898.672	19906
898.792	19974
898.913	19822
899.033	19784
899.153	19655
899.273	19499
899.393	19480
899.513	19578
899.633	19651
899.753	19628
899.873	19594
899.993	19677
900.113	19556
900.232	19601
900.352	19540
900.472	19373
900.591	19274
900.711	19354
900.83	19362
900.95	19487
901.069	19438
901.189	19358
901.308	19057
901.427	19110
901.546	19034
901.665	18947
901.784	18916
901.904	18909
902.023	18749
902.141	18536
902.26	18502
902.379	18658
902.498	18601
902.617	18570
902.735	18490
902.854	18388
902.973	18414
903.091	18186
903.21	18178
903.328	18152
903.446	18026
903.565	18019
903.683	17988
903.801	17958
903.919	18022
904.038	18053
904.156	17805
904.274	17885
904.392	17798
904.51	17646
904.627	17714
904.745	17805
904.863	17821
904.981	17539
905.098	17516
905.216	17425
905.334	17509
905.451	17436
905.569	17463
905.686	17471
905.803	17509
905.921	17235
906.038	17315
906.155	17246
906.272	17071
906.389	17090
906.506	16953
906.623	16953
906.74	16991
906.857	16911
906.974	16896
907.091	17083
907.208	17060
907.324	16923
907.441	16843
907.557	16748
907.674	16729
907.79	16592
907.907	16634
908.023	16630
908.139	16691
908.256	16577
908.372	16615
908.488	16596
908.604	16371
908.72	16299
908.836	16428
908.952	16417
909.068	16409
909.184	16565
909.3	16390
909.415	16462
909.531	16405
909.647	16166
909.762	16124
909.878	16128
909.993	16105
910.108	15991
910.224	16093
910.339	16059
910.454	15998
910.57	15956
910.685	15888
910.8	16059
910.915	16063
911.03	15934
911.145	15797
911.259	15755
911.374	15603
911.489	15701
911.604	15694
911.718	15523
911.833	15469
911.947	15504
912.062	15355
912.176	15454
912.291	15485
912.405	15488
912.519	15614
912.633	15606
912.748	15519
912.862	15519
912.976	15367
913.09	15233
913.204	15302
913.318	15340
913.431	15412
913.545	15416
913.659	15439
913.772	15207
913.886	15066
914	15108
914.113	15203
914.226	15222
914.34	15245
914.453	14998
914.566	15169
914.68	15047
914.793	14990
914.906	14743
915.019	14720
915.132	14621
915.245	14754
915.358	14727
915.47	14724
915.583	14651
915.696	14716
915.809	14849
915.921	14815
916.034	14598
916.146	14655
916.259	14632
916.371	14712
916.483	14701
916.595	14549
916.708	14678
916.82	14583
916.932	14579
917.044	14438
917.156	14438
917.268	14358
917.38	14438
917.491	14408
917.603	14438
917.715	14606
917.826	14393
917.938	14419
918.049	14183
918.161	14355
918.272	14476
918.384	14526
918.495	14324
918.606	14172
918.717	14115
918.828	14218
918.939	14195
919.05	14020
919.161	14157
919.272	13974
919.383	14016
919.494	14218
919.604	14294
919.715	14195
919.826	14065
919.936	14138
920.047	14187
920.157	14153
920.267	14263
920.378	14138
920.488	14100
920.598	14385
920.708	14328
920.818	14229
920.928	14214
921.038	14393
921.148	14336
921.258	14157
921.368	13970
921.477	13799
921.587	13879
921.697	13712
921.806	13936
921.916	13704
922.025	13582
922.134	13495
922.244	13453
922.353	13518
922.462	13354
922.571	13293
922.68	13209
922.789	13137
922.898	13202
923.007	13133
923.116	13270
923.224	13152
923.333	13091
923.442	13110
923.55	12962
923.659	13008
923.767	13042
923.876	12939
923.984	12890
924.092	12947
924.201	12916
924.309	12890
924.417	12954
924.525	12875
924.633	12844
924.741	13757
924.849	12730
924.956	12779
925.064	12673
925.172	12544
925.279	12566
925.387	12681
925.494	12635
925.602	12677
925.709	12612
925.816	12498
925.924	12578
926.031	12612
926.138	12585
926.245	12639
926.352	12540
926.459	12555
926.566	12563
926.673	12494
926.779	12327
926.886	12296
926.993	12144
927.099	12194
927.206	12136
927.312	12205
927.419	12201
927.525	12182
927.631	12247
927.737	12098
927.843	12041
927.95	11931
928.056	12068
928.162	11961
928.267	12038
928.373	12635
928.479	12049
928.585	11904
928.69	11973
928.796	12019
928.901	11878
929.007	11775
929.112	11912
929.218	11859
929.323	11691
929.428	11699
929.533	11916
929.638	11714
929.743	11764
929.848	11729
929.953	11676
930.058	11600
930.163	11402
930.267	11512
930.372	11566
930.477	11455
930.581	11589
930.685	11463
930.79	11299
930.894	11322
930.998	11292
931.103	11452
931.207	11105
931.311	11071
931.415	10927
931.519	10771
931.623	10691
