Data from test_V78500241_1805.txt Node
Date: Fri Mar 25 15:22:25 CST 2022
User: usil
Spectrometer: V785-0024
Trigger mode: 0
Integration Time (sec): 4.000000E-1
Scans to average: 1
Nonlinearity correction enabled: false
Boxcar width: 0
Storing dark spectrum: false
XAxis mode: Wavelengths
Number of Pixels in Spectrum: 1024
>>>>>Begin Spectral Data<<<<<
801.071	27945
801.214	27797
801.356	27572
801.499	27538
801.641	27530
801.783	27310
801.926	27382
802.068	27454
802.211	27226
802.353	27211
802.496	27066
802.638	26960
802.78	27020
802.923	26960
803.065	26944
803.208	26975
803.35	27055
803.492	27150
803.635	27093
803.777	26990
803.919	27405
804.061	27526
804.204	27272
804.346	27195
804.488	27214
804.63	27287
804.773	27214
804.915	27131
805.057	27348
805.199	27180
805.341	27340
805.483	27435
805.626	27382
805.768	27123
805.91	27325
806.052	27454
806.194	27256
806.336	27568
806.478	27496
806.62	27382
806.762	27325
806.904	27686
807.046	27679
807.188	27743
807.33	27899
807.472	27880
807.614	27804
807.756	27690
807.898	27591
808.04	27743
808.182	27701
808.324	27652
808.465	27724
808.607	27838
808.749	28109
808.891	28109
809.033	28097
809.174	27998
809.316	27937
809.458	27918
809.6	27899
809.741	28154
809.883	28135
810.025	28280
810.166	28242
810.308	28215
810.45	28185
810.591	28192
810.733	27956
810.875	27873
811.016	27838
811.158	27911
811.299	28112
811.441	28135
811.582	28128
811.724	28063
811.865	27899
812.007	28025
812.148	27979
812.29	28032
812.431	28105
812.573	28310
812.714	28390
812.855	28428
812.997	28599
813.138	28706
813.279	28672
813.421	28470
813.562	28417
813.703	28325
813.845	28226
813.986	27926
814.127	27835
814.268	27770
814.41	27717
814.551	27595
814.692	27751
814.833	27618
814.974	27660
815.115	27682
815.256	27485
815.397	27633
815.539	27485
815.68	27469
815.821	27439
815.962	27481
816.103	27622
816.244	27306
816.385	27241
816.526	27176
816.666	26948
816.807	26800
816.948	27165
817.089	27070
817.23	27108
817.371	26975
817.512	26834
817.653	26933
817.793	26872
817.934	26944
818.075	26876
818.216	26948
818.356	26940
818.497	26762
818.638	26792
818.778	26762
818.919	26788
819.06	26613
819.2	26971
819.341	26933
819.481	27039
819.622	27131
819.762	27264
819.903	27287
820.043	27062
820.184	27195
820.324	27108
820.465	27127
820.605	27017
820.746	27039
820.886	27009
821.026	27176
821.167	27001
821.307	27066
821.447	26994
821.588	27024
821.728	26750
821.868	26629
822.008	26522
822.149	26366
822.289	26480
822.429	26298
822.569	26065
822.709	26191
822.849	25974
822.99	25852
823.13	25989
823.27	25940
823.41	25898
823.55	25632
823.69	25845
823.83	25788
823.97	25742
824.11	25544
824.25	25552
824.389	25479
824.529	25632
824.669	25628
824.809	25521
824.949	25712
825.089	25685
825.228	25685
825.368	25472
825.508	25529
825.648	25457
825.787	25502
825.927	25491
826.067	25400
826.206	25476
826.346	25415
826.485	25552
826.625	25514
826.765	25601
826.904	25510
827.044	25285
827.183	25202
827.323	25156
827.462	25171
827.601	25190
827.741	25251
827.88	25221
828.02	25046
828.159	25129
828.298	25244
828.437	25293
828.577	25057
828.716	25225
828.855	25194
828.994	24878
829.134	24913
829.273	24897
829.412	24951
829.551	24833
829.69	24829
829.829	24905
829.968	24985
830.107	24920
830.246	24852
830.385	24894
830.524	24844
830.663	24753
830.802	24574
830.941	24498
831.08	24544
831.219	24528
831.357	24578
831.496	24829
831.635	24505
831.774	24513
831.913	24361
832.051	24346
832.19	24342
832.329	24346
832.467	24262
832.606	24144
832.744	24125
832.883	24163
833.022	24243
833.16	24262
833.299	24171
833.437	24304
833.576	24410
833.714	24327
833.852	24228
833.991	24235
834.129	24414
834.267	24277
834.406	24300
834.544	24330
834.682	24327
834.821	24281
834.959	24448
835.097	24251
835.235	24327
835.373	24315
835.511	24235
835.65	24091
835.788	23958
835.926	23992
836.064	23889
836.202	23980
836.34	24117
836.478	24251
836.615	24079
836.753	24152
836.891	24186
837.029	24171
837.167	24018
837.305	24022
837.443	23901
837.58	23836
837.718	23843
837.856	24102
837.993	23950
838.131	23939
838.269	23794
838.406	23828
838.544	23832
838.681	23668
838.819	23558
838.956	23467
839.094	23455
839.231	23376
839.369	23596
839.506	23920
839.643	23573
839.781	23318
839.918	23402
840.055	23353
840.193	23490
840.33	23299
840.467	23376
840.604	23364
840.742	23771
840.879	23220
841.016	23204
841.153	23258
841.29	23372
841.427	23284
841.564	23383
841.701	23356
841.838	23204
841.975	23162
842.112	23322
842.249	23151
842.385	23140
842.522	23277
842.659	23140
842.796	23117
842.933	23098
843.069	23132
843.206	23052
843.343	23265
843.479	23022
843.616	23151
843.752	22824
843.889	22839
844.025	23025
844.162	22953
844.298	23064
844.435	22957
844.571	22866
844.708	22854
844.844	23029
844.98	22991
845.117	23041
845.253	22763
845.389	22588
845.525	22824
845.661	22771
845.798	22607
845.934	22683
846.07	22493
846.206	22668
846.342	22660
846.478	22698
846.614	22356
846.75	22322
846.886	22440
847.022	22379
847.158	22352
847.294	22424
847.429	22451
847.565	22295
847.701	22459
847.837	22044
847.972	22078
848.108	22162
848.244	22261
848.379	22021
848.515	21956
848.65	21899
848.786	22025
848.921	21869
849.057	22051
849.192	21987
849.328	21953
849.463	21903
849.598	21884
849.734	21926
849.869	21717
850.004	21808
850.14	21778
850.275	21759
850.41	21732
850.545	21492
850.68	21660
850.815	21622
850.95	21694
851.085	21934
851.22	21816
851.355	21743
851.49	21713
851.625	21587
851.76	21568
851.895	21622
852.03	21603
852.165	21583
852.299	21599
852.434	21751
852.569	21728
852.703	21679
852.838	21781
852.973	21819
853.107	21892
853.242	21679
853.376	21557
853.511	21370
853.645	21599
853.78	21591
853.914	21473
854.048	21443
854.183	21496
854.317	21610
854.451	21789
854.585	21488
854.72	21492
854.854	21511
854.988	21386
855.122	21534
855.256	21424
855.39	21473
855.524	21549
855.658	21523
855.792	21443
855.926	21675
856.06	21545
856.194	21675
856.327	21488
856.461	21492
856.595	21587
856.729	21625
856.862	21644
856.996	21599
857.13	21625
857.263	21580
857.397	21447
857.53	21610
857.664	21580
857.797	21633
857.931	21572
858.064	21549
858.197	21622
858.331	21500
858.464	21519
858.597	21355
858.731	21545
858.864	21488
858.997	21526
859.13	21511
859.263	21610
859.396	21599
859.529	21488
859.662	21576
859.795	21622
859.928	21534
860.061	21671
860.194	21675
860.327	21614
860.46	21606
860.592	21652
860.725	21717
860.858	21736
860.99	21557
861.123	21561
861.256	21473
861.388	21496
861.521	22166
861.653	21485
861.786	21348
861.918	21370
862.05	21473
862.183	21538
862.315	21363
862.447	21603
862.58	21355
862.712	21359
862.844	21207
862.976	21428
863.108	21443
863.24	21656
863.372	21203
863.504	21336
863.636	21325
863.768	21321
863.9	21199
864.032	21127
864.164	21264
864.296	21313
864.428	21340
864.559	21367
864.691	21382
864.823	21249
864.954	21291
865.086	21298
865.217	21218
865.349	21108
865.48	21203
865.612	21214
865.743	21363
865.875	21138
866.006	21180
866.137	21214
866.269	21176
866.4	21135
866.531	21074
866.662	21058
866.793	21074
866.924	21169
867.055	21096
867.186	21176
867.317	21127
867.448	20914
867.579	21001
867.71	21039
867.841	21039
867.972	21112
868.103	21211
868.233	21047
868.364	20906
868.495	21283
868.625	21378
868.756	21412
868.886	21222
869.017	21321
869.147	21310
869.278	21542
869.408	21302
869.539	21439
869.669	21481
869.799	21252
869.929	21359
870.06	21454
870.19	21500
870.32	21477
870.45	21682
870.58	21812
870.71	21743
870.84	21766
870.97	21728
871.1	21751
871.23	21994
871.36	21846
871.489	21934
871.619	21789
871.749	21918
871.879	21930
872.008	22093
872.138	21827
872.267	21895
872.397	21751
872.526	21751
872.656	21732
872.785	21850
872.915	21949
873.044	22032
873.173	21869
873.303	21983
873.432	22055
873.561	21918
873.69	22013
873.819	21956
873.948	22109
874.077	21941
874.206	21861
874.335	21842
874.464	22044
874.593	22253
874.722	22139
874.851	22253
874.979	22196
875.108	22211
875.237	22112
875.365	22131
875.494	22177
875.623	22257
875.751	22185
875.88	22101
876.008	22306
876.136	22329
876.265	22637
876.393	22588
876.521	22645
876.65	22569
876.778	22653
876.906	22516
877.034	22451
877.162	22561
877.29	22554
877.418	22527
877.546	22580
877.674	22538
877.802	22497
877.93	22500
878.058	22424
878.185	22557
878.313	22500
878.441	22527
878.568	22402
878.696	22413
878.824	22656
878.951	22596
879.079	22649
879.206	22752
879.333	22660
879.461	22565
879.588	22596
879.715	22542
879.842	22687
879.97	22596
880.097	22363
880.224	22367
880.351	22462
880.478	22432
880.605	22272
880.732	22360
880.859	22588
880.986	22459
881.112	22211
881.239	22265
881.366	22086
881.493	22044
881.619	21854
881.746	22112
881.872	21884
881.999	21857
882.125	21827
882.252	21835
882.378	21911
882.505	21949
882.631	21812
882.757	21618
882.883	21679
883.01	21553
883.136	21595
883.262	21564
883.388	21466
883.514	21622
883.64	21633
883.766	21667
883.892	21466
884.018	21420
884.143	21656
884.269	21606
884.395	21416
884.52	21199
884.646	21199
884.772	21237
884.897	21123
885.023	21336
885.148	21408
885.274	21287
885.399	21370
885.524	21374
885.65	21275
885.775	21313
885.9	21089
886.025	21306
886.15	21287
886.275	21218
886.4	21161
886.525	21279
886.65	21161
886.775	21100
886.9	21424
887.025	21496
887.149	21268
887.274	20986
887.399	20914
887.523	20994
887.648	20933
887.773	20933
887.897	21013
888.021	21173
888.146	21032
888.27	21135
888.395	21062
888.519	21024
888.643	21077
888.767	20979
888.891	20918
889.015	20796
889.139	20864
889.263	20826
889.387	20925
889.511	20883
889.635	20956
889.759	20758
889.883	20663
890.006	20857
890.13	20845
890.254	20587
890.377	20769
890.501	20347
890.624	20625
890.748	20473
890.871	20419
890.995	20309
891.118	20393
891.241	20518
891.364	20465
891.488	20473
891.611	20336
891.734	20240
891.857	20419
891.98	20457
892.103	20385
892.226	20374
892.349	20355
892.471	20271
892.594	20259
892.717	20408
892.839	20252
892.962	20309
893.085	20339
893.207	20252
893.33	20138
893.452	20206
893.575	20237
893.697	20218
893.819	20457
893.941	20396
894.064	20374
894.186	20195
894.308	20305
894.43	20256
894.552	20488
894.674	20180
894.796	20172
894.918	20248
895.04	20176
895.161	20332
895.283	20351
895.405	20134
895.526	20199
895.648	20278
895.769	20267
895.891	20332
896.012	20267
896.134	20419
896.255	20298
896.376	20214
896.498	20233
896.619	20290
896.74	20218
896.861	20355
896.982	20583
897.103	20788
897.224	20469
897.345	20499
897.466	20450
897.587	20514
897.708	20594
897.828	20480
897.949	20594
898.07	20275
898.19	20343
898.311	20511
898.431	20377
898.552	20511
898.672	20571
898.792	20594
898.913	20575
899.033	20252
899.153	20298
899.273	20244
899.393	20301
899.513	20206
899.633	20298
899.753	20278
899.873	20199
899.993	20202
900.113	20142
900.232	20130
900.352	20122
900.472	20012
900.591	19993
900.711	20043
900.83	20096
900.95	20100
901.069	20020
901.189	19856
901.308	19666
901.427	19674
901.546	19677
901.665	19647
901.784	19582
901.904	19438
902.023	19331
902.141	19160
902.26	19084
902.379	19145
902.498	19110
902.617	19019
902.735	19137
902.854	19118
902.973	18897
903.091	18779
903.21	18642
903.328	18692
903.446	18639
903.565	18551
903.683	18551
903.801	18433
903.919	18475
904.038	18513
904.156	18407
904.274	18327
904.392	18346
904.51	18342
904.627	18311
904.745	18235
904.863	18281
904.981	18140
905.098	18007
905.216	17973
905.334	17961
905.451	18034
905.569	17958
905.686	18015
905.803	17973
905.921	17821
906.038	17863
906.155	17840
906.272	17649
906.389	17775
906.506	17524
906.623	17554
906.74	17452
906.857	17448
906.974	17452
907.091	17577
907.208	17570
907.324	17482
907.441	17383
907.557	17280
907.674	17299
907.79	17269
907.907	17170
908.023	17181
908.139	17220
908.256	17189
908.372	17151
908.488	17189
908.604	17029
908.72	16972
908.836	16987
908.952	16927
909.068	16999
909.184	16999
909.3	16991
909.415	16892
909.531	17006
909.647	16793
909.762	16683
909.878	16630
909.993	16664
910.108	16694
910.224	16558
910.339	16584
910.454	16584
910.57	16470
910.685	16459
910.8	16679
910.915	16573
911.03	16447
911.145	16306
911.259	16280
911.374	16246
911.489	16238
911.604	16101
911.718	15960
911.833	15964
911.947	15922
912.062	15854
912.176	15945
912.291	16006
912.405	16021
912.519	16204
912.633	16173
912.748	16090
912.862	15975
912.976	15884
913.09	15690
913.204	15800
913.318	15930
913.431	15911
913.545	15816
913.659	15755
913.772	15774
913.886	15652
914	15637
914.113	15793
914.226	15831
914.34	15568
914.453	15496
914.566	15671
914.68	15511
914.793	15477
914.906	15302
915.019	15275
915.132	15157
915.245	15119
915.358	15218
915.47	15291
915.583	15237
915.696	15291
915.809	15275
915.921	15332
916.034	15131
916.146	15123
916.259	15108
916.371	15146
916.483	15112
916.595	15100
916.708	15074
916.82	14971
916.932	15074
917.044	14963
917.156	14952
917.268	14807
917.38	14948
917.491	14758
917.603	14933
917.715	15043
917.826	14861
917.938	14845
918.049	14823
918.161	14864
918.272	14956
918.384	14937
918.495	14724
918.606	14644
918.717	14541
918.828	14526
918.939	14659
919.05	14518
919.161	14644
919.272	14396
919.383	14530
919.494	14682
919.604	14842
919.715	14575
919.826	14476
919.936	14613
920.047	14697
920.157	14610
920.267	14693
920.378	14659
920.488	14575
920.598	14743
920.708	14842
920.818	14697
920.928	14754
921.038	14796
921.148	14739
921.258	14442
921.368	14473
921.477	14358
921.587	14419
921.697	14123
921.806	14336
921.916	14145
922.025	13967
922.134	13970
922.244	13772
922.353	13959
922.462	13890
922.571	13788
922.68	13647
922.789	13651
922.898	13666
923.007	13670
923.116	13651
923.224	13616
923.333	13624
923.442	13422
923.55	13411
923.659	13483
923.767	13525
923.876	13384
923.984	13506
924.092	13346
924.201	13392
924.309	13388
924.417	13403
924.525	13270
924.633	13213
924.741	14218
924.849	13171
924.956	13236
925.064	13042
925.172	13000
925.279	13038
925.387	13099
925.494	12996
925.602	13194
925.709	13084
925.816	12954
925.924	12981
926.031	13027
926.138	12913
926.245	13065
926.352	12897
926.459	12989
926.566	13061
926.673	12913
926.779	12764
926.886	12817
926.993	12707
927.099	12658
927.206	12540
927.312	12604
927.419	12688
927.525	12684
927.631	12639
927.737	12452
927.843	12418
927.95	12399
928.056	12479
928.162	12471
928.267	12570
928.373	13053
928.479	12547
928.585	12407
928.69	12361
928.796	12395
928.901	12388
929.007	12117
929.112	12254
929.218	12266
929.323	12239
929.428	12171
929.533	12395
929.638	12159
929.743	12098
929.848	12167
929.953	12155
930.058	12041
930.163	11870
930.267	11942
930.372	12007
930.477	11813
930.581	12095
930.685	11809
930.79	11703
930.894	11733
930.998	11680
931.103	11878
931.207	11497
931.311	11334
931.415	11368
931.519	11136
931.623	11064
