Data from test_V78500241_439.txt Node
Date: Fri Mar 25 15:12:55 CST 2022
User: usil
Spectrometer: V785-0024
Trigger mode: 0
Integration Time (sec): 4.000000E-1
Scans to average: 1
Nonlinearity correction enabled: false
Boxcar width: 0
Storing dark spectrum: false
XAxis mode: Wavelengths
Number of Pixels in Spectrum: 1024
>>>>>Begin Spectral Data<<<<<
801.071	26994
801.214	26864
801.356	26731
801.499	26575
801.641	26541
801.783	26552
801.926	26686
802.068	26526
802.211	26381
802.353	26366
802.496	26176
802.638	26149
802.78	26130
802.923	26157
803.065	26237
803.208	26103
803.35	26138
803.492	26286
803.635	26320
803.777	26187
803.919	26393
804.061	26693
804.204	26381
804.346	26142
804.488	26286
804.63	26256
804.773	26271
804.915	26275
805.057	26495
805.199	26423
805.341	26336
805.483	26400
805.626	26275
805.768	26282
805.91	26511
806.052	26366
806.194	26358
806.336	26434
806.478	26400
806.62	26355
806.762	26431
806.904	26739
807.046	26914
807.188	26834
807.33	26678
807.472	26861
807.614	26796
807.756	26792
807.898	26560
808.04	26571
808.182	26682
808.324	26613
808.465	26598
808.607	26754
808.749	26929
808.891	27112
809.033	27074
809.174	26937
809.316	26883
809.458	27032
809.6	26994
809.741	26956
809.883	27085
810.025	27264
810.166	27279
810.308	27207
810.45	27176
810.591	27325
810.733	26967
810.875	27062
811.016	26785
811.158	26842
811.299	27020
811.441	27096
811.582	26986
811.724	26998
811.865	26861
812.007	26937
812.148	26868
812.29	26914
812.431	27104
812.573	27268
812.714	27386
812.855	27454
812.997	27488
813.138	27827
813.279	27526
813.421	27583
813.562	27439
813.703	27294
813.845	27256
813.986	26956
814.127	26693
814.268	26663
814.41	26648
814.551	26590
814.692	26727
814.833	26499
814.974	26461
815.115	26674
815.256	26465
815.397	26461
815.539	26453
815.68	26324
815.821	26370
815.962	26564
816.103	26389
816.244	26233
816.385	26180
816.526	26107
816.666	26016
816.807	25890
816.948	26050
817.089	26054
817.23	25982
817.371	26046
817.512	25784
817.653	25837
817.793	25780
817.934	25833
818.075	25875
818.216	25845
818.356	25791
818.497	25830
818.638	25635
818.778	25597
818.919	25685
819.06	25670
819.2	25811
819.341	25811
819.481	25715
819.622	26115
819.762	26157
819.903	26043
820.043	26050
820.184	25890
820.324	26008
820.465	26145
820.605	26012
820.746	26077
820.886	25856
821.026	25997
821.167	25921
821.307	26043
821.447	25966
821.588	25772
821.728	25666
821.868	25419
822.008	25388
822.149	25377
822.289	25316
822.429	25141
822.569	24992
822.709	24996
822.849	24776
822.99	24943
823.13	24795
823.27	24871
823.41	24540
823.55	24616
823.69	24707
823.83	24711
823.97	24570
824.11	24410
824.25	24467
824.389	24361
824.529	24582
824.669	24505
824.809	24707
824.949	24703
825.089	24563
825.228	24593
825.368	24296
825.508	24395
825.648	24502
825.787	24365
825.927	24456
826.067	24388
826.206	24330
826.346	24441
826.485	24372
826.625	24338
826.765	24441
826.904	24372
827.044	24140
827.183	24011
827.323	24057
827.462	24159
827.601	24083
827.741	24018
827.88	24178
828.02	24068
828.159	24068
828.298	24152
828.437	24205
828.577	24064
828.716	24209
828.855	23977
828.994	23748
829.134	23817
829.273	23779
829.412	23863
829.551	23786
829.69	23703
829.829	23866
829.968	23931
830.107	23935
830.246	23752
830.385	23710
830.524	23775
830.663	23672
830.802	23512
830.941	23372
831.08	23273
831.219	23414
831.357	23554
831.496	23680
831.635	23425
831.774	23288
831.913	23273
832.051	23246
832.19	23193
832.329	23269
832.467	23155
832.606	23067
832.744	23155
832.883	23208
833.022	23079
833.16	23155
833.299	23208
833.437	23029
833.576	23200
833.714	23254
833.852	23140
833.991	23159
834.129	23185
834.267	23318
834.406	23140
834.544	23322
834.682	23128
834.821	23094
834.959	23315
835.097	23064
835.235	23212
835.373	23079
835.511	23208
835.65	23140
835.788	23090
835.926	22790
836.064	22767
836.202	22843
836.34	23117
836.478	23128
836.615	23041
836.753	23052
836.891	23067
837.029	23143
837.167	22987
837.305	22900
837.443	22881
837.58	22930
837.718	22976
837.856	22812
837.993	22793
838.131	22892
838.269	22790
838.406	22759
838.544	22759
838.681	22512
838.819	22618
838.956	22367
839.094	22242
839.231	22424
839.369	22588
839.506	22649
839.643	22546
839.781	22318
839.918	22265
840.055	22303
840.193	22303
840.33	22333
840.467	22284
840.604	22580
840.742	22519
840.879	22139
841.016	22067
841.153	22131
841.29	22265
841.427	22169
841.564	22443
841.701	22215
841.838	22177
841.975	22112
842.112	22173
842.249	22093
842.385	22116
842.522	22158
842.659	21994
842.796	21956
842.933	22002
843.069	22032
843.206	22006
843.343	22036
843.479	21991
843.616	22139
843.752	21861
843.889	21789
844.025	21979
844.162	21755
844.298	21972
844.435	21899
844.571	21732
844.708	21956
844.844	21945
844.98	21994
845.117	21892
845.253	21895
845.389	21679
845.525	21633
845.661	21778
845.798	21511
845.934	21606
846.07	21515
846.206	21625
846.342	21736
846.478	21523
846.614	21329
846.75	21302
846.886	21291
847.022	21275
847.158	21374
847.294	21348
847.429	21317
847.565	21355
847.701	21481
847.837	21066
847.972	20864
848.108	21237
848.244	21112
848.379	20994
848.515	20906
848.65	20941
848.786	20929
848.921	21005
849.057	21066
849.192	21024
849.328	20914
849.463	20815
849.598	20845
849.734	20842
849.869	20796
850.004	20644
850.14	20636
850.275	20602
850.41	20552
850.545	20621
850.68	20678
850.815	20701
850.95	20579
851.085	20785
851.22	20754
851.355	20708
851.49	20682
851.625	20556
851.76	20549
851.895	20552
852.03	20541
852.165	20659
852.299	20537
852.434	20716
852.569	20720
852.703	20727
852.838	20663
852.973	20819
853.107	20925
853.242	20499
853.376	20454
853.511	20446
853.645	20450
853.78	20545
853.914	20507
854.048	20385
854.183	20442
854.317	20465
854.451	20701
854.585	20419
854.72	20351
854.854	20579
854.988	20492
855.122	20454
855.256	20431
855.39	20541
855.524	20499
855.658	20613
855.792	20583
855.926	20488
856.06	20598
856.194	20511
856.327	20438
856.461	20423
856.595	20393
856.729	20511
856.862	20560
856.996	20492
857.13	20579
857.263	20613
857.397	20598
857.53	20377
857.664	20541
857.797	20552
857.931	20594
858.064	20438
858.197	20579
858.331	20480
858.464	20358
858.597	20362
858.731	20526
858.864	20457
858.997	20400
859.13	20446
859.263	20469
859.396	20560
859.529	20298
859.662	20404
859.795	20575
859.928	20556
860.061	20663
860.194	20731
860.327	20511
860.46	20495
860.592	20560
860.725	20632
860.858	20640
860.99	20549
861.123	20438
861.256	20427
861.388	20499
861.521	21264
861.653	20271
861.786	20351
861.918	20393
862.05	20358
862.183	20412
862.315	20423
862.447	20549
862.58	20412
862.712	20164
862.844	20263
862.976	20259
863.108	20248
863.24	20743
863.372	20164
863.504	20206
863.636	20077
863.768	20210
863.9	20263
864.032	20145
864.164	20081
864.296	20180
864.428	20221
864.559	20298
864.691	20267
864.823	20210
864.954	20157
865.086	20191
865.217	20210
865.349	20031
865.48	20195
865.612	20115
865.743	20221
865.875	20145
866.006	20161
866.137	20096
866.269	20069
866.4	20050
866.531	20100
866.662	19944
866.793	20084
866.924	19997
867.055	20046
867.186	20035
867.317	20058
867.448	19978
867.579	19978
867.71	20035
867.841	20073
867.972	20069
868.103	20054
868.233	20103
868.364	20100
868.495	20202
868.625	20240
868.756	20408
868.886	20320
869.017	20187
869.147	20438
869.278	20385
869.408	20206
869.539	20271
869.669	20324
869.799	20328
869.929	20336
870.06	20374
870.19	20621
870.32	20571
870.45	20640
870.58	20655
870.71	20777
870.84	20800
870.97	20689
871.1	20613
871.23	20845
871.36	20819
871.489	20861
871.619	20914
871.749	20834
871.879	20887
872.008	21043
872.138	20807
872.267	20849
872.397	20648
872.526	20743
872.656	20697
872.785	20701
872.915	20864
873.044	20998
873.173	20986
873.303	20979
873.432	20918
873.561	21062
873.69	20895
873.819	20830
873.948	20948
874.077	20830
874.206	20804
874.335	21017
874.464	21036
874.593	21127
874.722	21043
874.851	21203
874.979	21173
875.108	21203
875.237	21142
875.365	21062
875.494	21142
875.623	21207
875.751	21138
875.88	21089
876.008	21329
876.136	21264
876.265	21580
876.393	21625
876.521	21610
876.65	21644
876.778	21447
876.906	21481
877.034	21401
877.162	21534
877.29	21538
877.418	21534
877.546	21618
877.674	21599
877.802	21447
877.93	21447
878.058	21591
878.185	21351
878.313	21420
878.441	21576
878.568	21287
878.696	21393
878.824	21469
878.951	21545
879.079	21675
879.206	21835
879.333	21728
879.461	21519
879.588	21553
879.715	21663
879.842	21789
879.97	21717
880.097	21321
880.224	21389
880.351	21401
880.478	21344
880.605	21264
880.732	21283
880.859	21405
880.986	21336
881.112	21325
881.239	21127
881.366	20925
881.493	20906
881.619	20933
881.746	20921
881.872	20975
881.999	20895
882.125	20815
882.252	20864
882.378	20883
882.505	20963
882.631	20845
882.757	20739
882.883	20788
883.01	20617
883.136	20609
883.262	20526
883.388	20408
883.514	20708
883.64	20636
883.766	20590
883.892	20442
884.018	20499
884.143	20613
884.269	20571
884.395	20454
884.52	20278
884.646	20240
884.772	20214
884.897	20164
885.023	20210
885.148	20248
885.274	20530
885.399	20389
885.524	20240
885.65	20267
885.775	20183
885.9	20225
886.025	20438
886.15	20389
886.275	20233
886.4	20248
886.525	20199
886.65	20180
886.775	20145
886.9	20377
887.025	20457
887.149	20107
887.274	20062
887.399	19989
887.523	20115
887.648	19986
887.773	19898
887.897	20027
888.021	20012
888.146	19997
888.27	20092
888.395	20084
888.519	20153
888.643	20119
888.767	20065
888.891	19936
889.015	19826
889.139	19875
889.263	19856
889.387	19986
889.511	20054
889.635	20020
889.759	19799
889.883	19830
890.006	19963
890.13	19856
890.254	19795
890.377	19818
890.501	19590
890.624	19590
890.748	19624
890.871	19651
890.995	19472
891.118	19472
891.241	19388
891.364	19362
891.488	19472
891.611	19502
891.734	19415
891.857	19533
891.98	19441
892.103	19533
892.226	19426
892.349	19388
892.471	19270
892.594	19373
892.717	19449
892.839	19244
892.962	19350
893.085	19445
893.207	19335
893.33	19297
893.452	19316
893.575	19426
893.697	19190
893.819	19495
893.941	19613
894.064	19407
894.186	19236
894.308	19278
894.43	19453
894.552	19483
894.674	19411
894.796	19194
894.918	19285
895.04	19289
895.161	19518
895.283	19335
895.405	19354
895.526	19312
895.648	19362
895.769	19464
895.891	19289
896.012	19415
896.134	19358
896.255	19487
896.376	19255
896.498	19365
896.619	19354
896.74	19293
896.861	19559
896.982	19628
897.103	19871
897.224	19601
897.345	19571
897.466	19544
897.587	19609
897.708	19700
897.828	19651
897.949	19537
898.07	19510
898.19	19575
898.311	19590
898.431	19430
898.552	19616
898.672	19567
898.792	19693
898.913	19544
899.033	19441
899.153	19464
899.273	19362
899.393	19266
899.513	19403
899.633	19308
899.753	19350
899.873	19381
899.993	19403
900.113	19293
900.232	19346
900.352	19232
900.472	19187
900.591	19190
900.711	19270
900.83	19046
900.95	19202
901.069	19187
901.189	19137
901.308	18829
901.427	18772
901.546	18760
901.665	18715
901.784	18817
901.904	18544
902.023	18494
902.141	18323
902.26	18384
902.379	18323
902.498	18197
902.617	18159
902.735	18300
902.854	18224
902.973	18095
903.091	17931
903.21	17923
903.328	17946
903.446	17813
903.565	17699
903.683	17870
903.801	17680
903.919	17657
904.038	17672
904.156	17539
904.274	17623
904.392	17421
904.51	17414
904.627	17501
904.745	17547
904.863	17478
904.981	17296
905.098	17231
905.216	17102
905.334	17265
905.451	17212
905.569	17170
905.686	17246
905.803	17170
905.921	17010
906.038	17086
906.155	16919
906.272	16934
906.389	16976
906.506	16710
906.623	16694
906.74	16782
906.857	16706
906.974	16615
907.091	16763
907.208	16927
907.324	16869
907.441	16611
907.557	16550
907.674	16519
907.79	16523
907.907	16542
908.023	16493
908.139	16459
908.256	16352
908.372	16348
908.488	16322
908.604	16306
908.72	16177
908.836	16086
908.952	16120
909.068	16188
909.184	16379
909.3	16177
909.415	16280
909.531	16109
909.647	15915
909.762	15922
909.878	15895
909.993	15911
910.108	15816
910.224	15876
910.339	15903
910.454	15743
910.57	15736
910.685	15603
910.8	15930
910.915	15949
911.03	15728
911.145	15568
911.259	15576
911.374	15587
911.489	15439
911.604	15310
911.718	15249
911.833	15222
911.947	15135
912.062	15089
912.176	15207
912.291	15351
912.405	15256
912.519	15439
912.633	15386
912.748	15348
912.862	15237
912.976	15085
913.09	15062
913.204	14967
913.318	15097
913.431	15199
913.545	15089
913.659	15195
913.772	15047
913.886	14906
914	14861
914.113	14914
914.226	15001
914.34	14864
914.453	14754
914.566	14937
914.68	14807
914.793	14781
914.906	14602
915.019	14564
915.132	14556
915.245	14492
915.358	14568
915.47	14442
915.583	14503
915.696	14537
915.809	14583
915.921	14636
916.034	14442
916.146	14438
916.259	14385
916.371	14457
916.483	14415
916.595	14339
916.708	14404
916.82	14374
916.932	14343
917.044	14324
917.156	14244
917.268	14123
917.38	14252
917.491	14191
917.603	14145
917.715	14313
917.826	14199
917.938	14172
918.049	14005
918.161	14252
918.272	14210
918.384	14320
918.495	14149
918.606	14096
918.717	13947
918.828	14005
918.939	14058
919.05	14001
919.161	14005
919.272	13693
919.383	13772
919.494	13898
919.604	14172
919.715	13993
919.826	13807
919.936	13898
920.047	13887
920.157	14065
920.267	14225
920.378	13970
920.488	13921
920.598	14100
920.708	14218
920.818	14069
920.928	14043
921.038	14298
921.148	14111
921.258	13837
921.368	13727
921.477	13704
921.587	13681
921.697	13533
921.806	13708
921.916	13548
922.025	13354
922.134	13312
922.244	13228
922.353	13270
922.462	13206
922.571	13141
922.68	13065
922.789	13050
922.898	13042
923.007	12939
923.116	13129
923.224	13034
923.333	12935
923.442	12890
923.55	12817
923.659	12890
923.767	12871
923.876	12802
923.984	12871
924.092	12677
924.201	12760
924.309	12757
924.417	12734
924.525	12646
924.633	12779
924.741	13666
924.849	12410
924.956	12623
925.064	12426
925.172	12376
925.279	12422
925.387	12414
925.494	12410
925.602	12536
925.709	12426
925.816	12380
925.924	12384
926.031	12464
926.138	12467
926.245	12498
926.352	12251
926.459	12448
926.566	12445
926.673	12353
926.779	12186
926.886	12266
926.993	12106
927.099	12003
927.206	12030
927.312	12045
927.419	12072
927.525	12003
927.631	12102
927.737	11882
927.843	11836
927.95	11691
928.056	11870
928.162	11847
928.267	11874
928.373	12506
928.479	11870
928.585	11695
928.69	11897
928.796	11790
928.901	11718
929.007	11615
929.112	11707
929.218	11756
929.323	11592
929.428	11585
929.533	11707
929.638	11448
929.743	11505
929.848	11566
929.953	11467
930.058	11436
930.163	11258
930.267	11265
930.372	11364
930.477	11246
930.581	11535
930.685	11334
930.79	11227
930.894	11250
930.998	11204
931.103	11216
931.207	11025
931.311	10873
931.415	10782
931.519	10622
931.623	10558
