Data from test_V78500241_2423.txt Node
Date: Fri Mar 25 15:26:43 CST 2022
User: usil
Spectrometer: V785-0024
Trigger mode: 0
Integration Time (sec): 4.000000E-1
Scans to average: 1
Nonlinearity correction enabled: false
Boxcar width: 0
Storing dark spectrum: false
XAxis mode: Wavelengths
Number of Pixels in Spectrum: 1024
>>>>>Begin Spectral Data<<<<<
801.071	27142
801.214	27184
801.356	26845
801.499	26944
801.641	26686
801.783	26743
801.926	26872
802.068	26830
802.211	26678
802.353	26541
802.496	26511
802.638	26298
802.78	26267
802.923	26183
803.065	26218
803.208	26187
803.35	26275
803.492	26568
803.635	26659
803.777	26377
803.919	26461
804.061	26872
804.204	26640
804.346	26362
804.488	26514
804.63	26495
804.773	26507
804.915	26613
805.057	26533
805.199	26530
805.341	26594
805.483	26701
805.626	26716
805.768	26499
805.91	26651
806.052	26594
806.194	26621
806.336	26731
806.478	26644
806.62	26568
806.762	26800
806.904	26963
807.046	27146
807.188	27039
807.33	27074
807.472	27055
807.614	27093
807.756	26975
807.898	26933
808.04	27013
808.182	26845
808.324	26792
808.465	26937
808.607	27203
808.749	27275
808.891	27291
809.033	27374
809.174	27439
809.316	27252
809.458	27279
809.6	27188
809.741	27481
809.883	27294
810.025	27386
810.166	27408
810.308	27492
810.45	27393
810.591	27275
810.733	27211
810.875	27146
811.016	27226
811.158	27043
811.299	27222
811.441	27332
811.582	27325
811.724	27237
811.865	27146
812.007	27180
812.148	27173
812.29	27302
812.431	27504
812.573	27504
812.714	27519
812.855	27774
812.997	27698
813.138	27914
813.279	27876
813.421	27690
813.562	27561
813.703	27393
813.845	27420
813.986	27142
814.127	27005
814.268	26857
814.41	26857
814.551	26823
814.692	26876
814.833	26811
814.974	26857
815.115	26899
815.256	26861
815.397	26910
815.539	26777
815.68	26682
815.821	26602
815.962	26613
816.103	26587
816.244	26503
816.385	26419
816.526	26526
816.666	26248
816.807	26100
816.948	26145
817.089	26252
817.23	26111
817.371	26122
817.512	26046
817.653	26214
817.793	26176
817.934	26096
818.075	26199
818.216	26172
818.356	26103
818.497	26005
818.638	25966
818.778	25883
818.919	25909
819.06	25955
819.2	25966
819.341	26111
819.481	26157
819.622	26248
819.762	26431
819.903	26275
820.043	26252
820.184	26218
820.324	26309
820.465	26267
820.605	26244
820.746	26172
820.886	26100
821.026	26138
821.167	26202
821.307	26332
821.447	26187
821.588	26001
821.728	25818
821.868	25799
822.008	25670
822.149	25567
822.289	25544
822.429	25278
822.569	25392
822.709	25236
822.849	25160
822.99	25122
823.13	25133
823.27	25069
823.41	25038
823.55	24802
823.69	24958
823.83	24977
823.97	24783
824.11	24715
824.25	24829
824.389	24715
824.529	24844
824.669	24878
824.809	24795
824.949	24700
825.089	24734
825.228	24909
825.368	24726
825.508	24540
825.648	24589
825.787	24623
825.927	24738
826.067	24536
826.206	24623
826.346	24661
826.485	24650
826.625	24445
826.765	24726
826.904	24677
827.044	24361
827.183	24452
827.323	24338
827.462	24372
827.601	24338
827.741	24285
827.88	24391
828.02	24034
828.159	24121
828.298	24228
828.437	24285
828.577	24224
828.716	24505
828.855	24209
828.994	24095
829.134	24159
829.273	23946
829.412	24045
829.551	24026
829.69	23984
829.829	24030
829.968	24136
830.107	24095
830.246	23980
830.385	23988
830.524	24045
830.663	23927
830.802	23733
830.941	23604
831.08	23646
831.219	23828
831.357	23718
831.496	23794
831.635	23642
831.774	23623
831.913	23490
832.051	23452
832.19	23501
832.329	23490
832.467	23376
832.606	23303
832.744	23277
832.883	23296
833.022	23269
833.16	23280
833.299	23330
833.437	23360
833.576	23482
833.714	23391
833.852	23444
833.991	23379
834.129	23566
834.267	23531
834.406	23395
834.544	23433
834.682	23395
834.821	23235
834.959	23687
835.097	23341
835.235	23482
835.373	23280
835.511	23379
835.65	23235
835.788	23356
835.926	23079
836.064	23086
836.202	23044
836.34	23288
836.478	23303
836.615	23208
836.753	23360
836.891	23318
837.029	23299
837.167	23132
837.305	23235
837.443	23109
837.58	23102
837.718	23079
837.856	23075
837.993	23041
838.131	23174
838.269	22934
838.406	22980
838.544	22946
838.681	22809
838.819	22744
838.956	22519
839.094	22710
839.231	22573
839.369	22755
839.506	22919
839.643	22915
839.781	22607
839.918	22508
840.055	22569
840.193	22421
840.33	22440
840.467	22466
840.604	22478
840.742	22713
840.879	22322
841.016	22459
841.153	22394
841.29	22447
841.427	22459
841.564	22516
841.701	22367
841.838	22394
841.975	22287
842.112	22409
842.249	22352
842.385	22363
842.522	22466
842.659	22257
842.796	22234
842.933	22200
843.069	22261
843.206	22196
843.343	22295
843.479	22192
843.616	22215
843.752	22013
843.889	22044
844.025	22181
844.162	21922
844.298	22177
844.435	22044
844.571	21975
844.708	22063
844.844	22226
844.98	22188
845.117	22135
845.253	21945
845.389	21907
845.525	21949
845.661	21903
845.798	21713
845.934	21861
846.07	21736
846.206	21903
846.342	21850
846.478	21667
846.614	21473
846.75	21500
846.886	21389
847.022	21625
847.158	21564
847.294	21496
847.429	21534
847.565	21511
847.701	21599
847.837	21294
847.972	21108
848.108	21222
848.244	21310
848.379	21260
848.515	21180
848.65	21138
848.786	21222
848.921	21173
849.057	21287
849.192	21146
849.328	21123
849.463	21089
849.598	21009
849.734	20990
849.869	20960
850.004	20743
850.14	20868
850.275	20895
850.41	20849
850.545	20705
850.68	20804
850.815	20785
850.95	20891
851.085	21077
851.22	20944
851.355	20902
851.49	20910
851.625	20910
851.76	20845
851.895	20758
852.03	20777
852.165	20724
852.299	20887
852.434	20887
852.569	20826
852.703	20891
852.838	21055
852.973	20986
853.107	20994
853.242	20762
853.376	20773
853.511	20568
853.645	20594
853.78	20754
853.914	20655
854.048	20735
854.183	20693
854.317	20765
854.451	20967
854.585	20678
854.72	20716
854.854	20804
854.988	20613
855.122	20621
855.256	20667
855.39	20754
855.524	20762
855.658	20785
855.792	20811
855.926	20758
856.06	20796
856.194	20800
856.327	20632
856.461	20560
856.595	20667
856.729	20701
856.862	20777
856.996	20731
857.13	20731
857.263	20845
857.397	20697
857.53	20689
857.664	20716
857.797	20743
857.931	20739
858.064	20606
858.197	20853
858.331	20724
858.464	20693
858.597	20533
858.731	20667
858.864	20705
858.997	20701
859.13	20621
859.263	20659
859.396	20712
859.529	20716
859.662	20564
859.795	20613
859.928	20739
860.061	20773
860.194	20845
860.327	20739
860.46	20712
860.592	20750
860.725	20887
860.858	20796
860.99	20788
861.123	20617
861.256	20735
861.388	20674
861.521	21256
861.653	20537
861.786	20442
861.918	20556
862.05	20674
862.183	20625
862.315	20648
862.447	20625
862.58	20579
862.712	20415
862.844	20336
862.976	20514
863.108	20438
863.24	20864
863.372	20366
863.504	20461
863.636	20457
863.768	20499
863.9	20343
864.032	20313
864.164	20507
864.296	20377
864.428	20469
864.559	20560
864.691	20480
864.823	20419
864.954	20381
865.086	20404
865.217	20153
865.349	20210
865.48	20298
865.612	20336
865.743	20476
865.875	20454
866.006	20233
866.137	20199
866.269	20309
866.4	20271
866.531	20263
866.662	20256
866.793	20176
866.924	20176
867.055	20324
867.186	20343
867.317	20157
867.448	20111
867.579	20161
867.71	20183
867.841	20084
867.972	20259
868.103	20202
868.233	20328
868.364	20282
868.495	20431
868.625	20427
868.756	20537
868.886	20412
869.017	20552
869.147	20606
869.278	20522
869.408	20503
869.539	20568
869.669	20651
869.799	20526
869.929	20632
870.06	20655
870.19	20914
870.32	20724
870.45	20785
870.58	20975
870.71	20998
870.84	20910
870.97	20872
871.1	20842
871.23	21047
871.36	21112
871.489	20902
871.619	21085
871.749	21039
871.879	21154
872.008	21313
872.138	21051
872.267	21081
872.397	20861
872.526	20933
872.656	20887
872.785	20918
872.915	21211
873.044	21283
873.173	21135
873.303	21211
873.432	21055
873.561	21138
873.69	21256
873.819	21226
873.948	21085
874.077	21089
874.206	21146
874.335	21017
874.464	21192
874.593	21481
874.722	21321
874.851	21412
874.979	21332
875.108	21367
875.237	21348
875.365	21287
875.494	21302
875.623	21329
875.751	21329
875.88	21443
876.008	21481
876.136	21595
876.265	21694
876.393	21850
876.521	21800
876.65	21888
876.778	21755
876.906	21694
877.034	21675
877.162	21614
877.29	21679
877.418	21720
877.546	21728
877.674	21671
877.802	21705
877.93	21583
878.058	21644
878.185	21603
878.313	21789
878.441	21743
878.568	21553
878.696	21698
878.824	21713
878.951	21793
879.079	21899
879.206	22029
879.333	21964
879.461	21724
879.588	21892
879.715	21869
879.842	22078
879.97	21656
880.097	21644
880.224	21496
880.351	21496
880.478	21549
880.605	21466
880.732	21660
880.859	21816
880.986	21561
881.112	21587
881.239	21325
881.366	21264
881.493	21256
881.619	21256
881.746	21096
881.872	21230
881.999	21058
882.125	21085
882.252	21047
882.378	21180
882.505	21195
882.631	20895
882.757	20785
882.883	20960
883.01	20887
883.136	20659
883.262	20640
883.388	20606
883.514	20811
883.64	20880
883.766	20804
883.892	20552
884.018	20621
884.143	20819
884.269	20845
884.395	20583
884.52	20457
884.646	20511
884.772	20488
884.897	20332
885.023	20594
885.148	20602
885.274	20701
885.399	20575
885.524	20530
885.65	20530
885.775	20484
885.9	20355
886.025	20644
886.15	20469
886.275	20442
886.4	20381
886.525	20427
886.65	20400
886.775	20385
886.9	20583
887.025	20758
887.149	20423
887.274	20282
887.399	20176
887.523	20294
887.648	20100
887.773	20081
887.897	20320
888.021	20290
888.146	20229
888.27	20233
888.395	20259
888.519	20202
888.643	20187
888.767	20309
888.891	20134
889.015	20062
889.139	20149
889.263	19974
889.387	20214
889.511	20252
889.635	20134
889.759	20016
889.883	20100
890.006	20100
890.13	20077
890.254	19970
890.377	20024
890.501	19849
890.624	19837
890.748	19765
890.871	19761
890.995	19571
891.118	19487
891.241	19643
891.364	19556
891.488	19635
891.611	19613
891.734	19635
891.857	19704
891.98	19719
892.103	19765
892.226	19571
892.349	19552
892.471	19441
892.594	19632
892.717	19563
892.839	19506
892.962	19605
893.085	19670
893.207	19571
893.33	19373
893.452	19483
893.575	19605
893.697	19597
893.819	19685
893.941	19780
894.064	19723
894.186	19514
894.308	19613
894.43	19563
894.552	19693
894.674	19628
894.796	19434
894.918	19472
895.04	19422
895.161	19578
895.283	19548
895.405	19449
895.526	19582
895.648	19571
895.769	19575
895.891	19529
896.012	19582
896.134	19438
896.255	19571
896.376	19537
896.498	19567
896.619	19563
896.74	19445
896.861	19525
896.982	19841
897.103	19982
897.224	19925
897.345	19761
897.466	19818
897.587	19681
897.708	19833
897.828	19856
897.949	19670
898.07	19578
898.19	19750
898.311	19826
898.431	19769
898.552	19772
898.672	19799
898.792	19879
898.913	19811
899.033	19605
899.153	19651
899.273	19365
899.393	19559
899.513	19609
899.633	19556
899.753	19518
899.873	19571
899.993	19499
900.113	19540
900.232	19426
900.352	19510
900.472	19350
900.591	19350
900.711	19209
900.83	19373
900.95	19381
901.069	19415
901.189	19206
901.308	19000
901.427	18787
901.546	18894
901.665	18856
901.784	18882
901.904	18840
902.023	18764
902.141	18566
902.26	18528
902.379	18475
902.498	18376
902.617	18384
902.735	18498
902.854	18437
902.973	18338
903.091	18060
903.21	18072
903.328	18106
903.446	17954
903.565	17954
903.683	18030
903.801	17790
903.919	17798
904.038	17821
904.156	17741
904.274	17714
904.392	17691
904.51	17665
904.627	17638
904.745	17790
904.863	17760
904.981	17509
905.098	17398
905.216	17368
905.334	17417
905.451	17356
905.569	17311
905.686	17459
905.803	17402
905.921	17250
906.038	17151
906.155	17216
906.272	17071
906.389	17113
906.506	16976
906.623	16946
906.74	16809
906.857	16850
906.974	16839
907.091	16900
907.208	17045
907.324	16953
907.441	16831
907.557	16713
907.674	16656
907.79	16493
907.907	16599
908.023	16698
908.139	16679
908.256	16516
908.372	16489
908.488	16462
908.604	16500
908.72	16367
908.836	16402
908.952	16333
909.068	16447
909.184	16523
909.3	16398
909.415	16428
909.531	16386
909.647	16097
909.762	16051
909.878	16112
909.993	15949
910.108	16158
910.224	15979
910.339	16029
910.454	16002
910.57	15911
910.685	15827
910.8	16139
910.915	16055
911.03	15804
911.145	15694
911.259	15633
911.374	15713
911.489	15599
911.604	15428
911.718	15378
911.833	15420
911.947	15443
912.062	15260
912.176	15378
912.291	15367
912.405	15382
912.519	15507
912.633	15561
912.748	15450
912.862	15386
912.976	15302
913.09	15097
913.204	15154
913.318	15264
913.431	15207
913.545	15382
913.659	15367
913.772	15184
913.886	15036
914	15009
914.113	15173
914.226	15233
914.34	15173
914.453	14883
914.566	15001
914.68	14963
914.793	14902
914.906	14701
915.019	14739
915.132	14708
915.245	14632
915.358	14800
915.47	14667
915.583	14610
915.696	14750
915.809	14689
915.921	14845
916.034	14602
916.146	14518
916.259	14511
916.371	14636
916.483	14617
916.595	14560
916.708	14522
916.82	14537
916.932	14571
917.044	14507
917.156	14446
917.268	14355
917.38	14408
917.491	14347
917.603	14286
917.715	14454
917.826	14385
917.938	14389
918.049	14084
918.161	14252
918.272	14461
918.384	14465
918.495	14214
918.606	14142
918.717	14024
918.828	14176
918.939	14107
919.05	14088
919.161	14065
919.272	13925
919.383	13955
919.494	14275
919.604	14313
919.715	14119
919.826	13997
919.936	13997
920.047	14149
920.157	14081
920.267	14240
920.378	14157
920.488	14005
920.598	14309
920.708	14343
920.818	14199
920.928	14187
921.038	14294
921.148	14301
921.258	14050
921.368	13917
921.477	13902
921.587	13795
921.697	13757
921.806	13788
921.916	13681
922.025	13544
922.134	13582
922.244	13445
922.353	13430
922.462	13343
922.571	13331
922.68	13160
922.789	13084
922.898	13088
923.007	13187
923.116	13171
923.224	13137
923.333	13012
923.442	13015
923.55	12875
923.659	12981
923.767	13034
923.876	12882
923.984	12996
924.092	12814
924.201	12901
924.309	12909
924.417	12935
924.525	12764
924.633	12821
924.741	13719
924.849	12623
924.956	12802
925.064	12604
925.172	12620
925.279	12570
925.387	12574
925.494	12506
925.602	12688
925.709	12521
925.816	12498
925.924	12460
926.031	12506
926.138	12525
926.245	12589
926.352	12395
926.459	12566
926.566	12536
926.673	12528
926.779	12273
926.886	12270
926.993	12220
927.099	12049
927.206	12121
927.312	12068
927.419	12178
927.525	12049
927.631	12121
927.737	11980
927.843	11996
927.95	11851
928.056	11980
928.162	11942
928.267	12095
928.373	12593
928.479	12087
928.585	11786
928.69	11904
928.796	11988
928.901	11805
929.007	11714
929.112	11828
929.218	11859
929.323	11733
929.428	11680
929.533	11794
929.638	11672
929.743	11649
929.848	11653
929.953	11623
930.058	11611
930.163	11417
930.267	11353
930.372	11528
930.477	11337
930.581	11509
930.685	11463
930.79	11242
930.894	11383
930.998	11265
931.103	11433
931.207	10980
931.311	10946
931.415	10889
931.519	10691
931.623	10615
