Data from test_V78500241_1094.txt Node
Date: Fri Mar 25 15:17:28 CST 2022
User: usil
Spectrometer: V785-0024
Trigger mode: 0
Integration Time (sec): 4.000000E-1
Scans to average: 1
Nonlinearity correction enabled: false
Boxcar width: 0
Storing dark spectrum: false
XAxis mode: Wavelengths
Number of Pixels in Spectrum: 1024
>>>>>Begin Spectral Data<<<<<
801.071	28428
801.214	28481
801.356	28093
801.499	28002
801.641	27831
801.783	27983
801.926	28029
802.068	27956
802.211	27869
802.353	27789
802.496	27652
802.638	27656
802.78	27603
802.923	27641
803.065	27739
803.208	27583
803.35	27656
803.492	27679
803.635	27869
803.777	27705
803.919	27876
804.061	28215
804.204	27876
804.346	27724
804.488	27800
804.63	27816
804.773	27827
804.915	28048
805.057	28048
805.199	27835
805.341	27972
805.483	28090
805.626	28154
805.768	27914
805.91	28017
806.052	27922
806.194	27793
806.336	28173
806.478	27975
806.62	27968
806.762	28166
806.904	28261
807.046	28493
807.188	28485
807.33	28341
807.472	28508
807.614	28455
807.756	28405
807.898	28382
808.04	28185
808.182	28284
808.324	28246
808.465	28386
808.607	28447
808.749	28592
808.891	28759
809.033	28755
809.174	28656
809.316	28748
809.458	28698
809.6	28592
809.741	28816
809.883	28866
810.025	28782
810.166	29151
810.308	29124
810.45	28923
810.591	28908
810.733	28824
810.875	28805
811.016	28554
811.158	28622
811.299	28748
811.441	28698
811.582	28771
811.724	28573
811.865	28698
812.007	28645
812.148	28596
812.29	28691
812.431	28850
812.573	28972
812.714	29079
812.855	29174
812.997	29341
813.138	29296
813.279	29395
813.421	29162
813.562	29178
813.703	29067
813.845	28923
813.986	28630
814.127	28592
814.268	28432
814.41	28394
814.551	28379
814.692	28546
814.833	28436
814.974	28421
815.115	28455
815.256	28219
815.397	28322
815.539	28303
815.68	28101
815.821	28124
815.962	28207
816.103	28196
816.244	28051
816.385	28116
816.526	28048
816.666	27816
816.807	27778
816.948	27827
817.089	27850
817.23	27808
817.371	27698
817.512	27770
817.653	27785
817.793	27831
817.934	27762
818.075	27755
818.216	27709
818.356	27580
818.497	27507
818.638	27507
818.778	27424
818.919	27412
819.06	27450
819.2	27614
819.341	27671
819.481	27641
819.622	27869
819.762	28173
819.903	27994
820.043	27941
820.184	27739
820.324	27831
820.465	27975
820.605	27846
820.746	27800
820.886	27720
821.026	27850
821.167	27724
821.307	27888
821.447	27755
821.588	27644
821.728	27530
821.868	27325
822.008	27279
822.149	27211
822.289	27214
822.429	26864
822.569	26750
822.709	26914
822.849	26682
822.99	26716
823.13	26724
823.27	26693
823.41	26579
823.55	26396
823.69	26556
823.83	26377
823.97	26434
824.11	26172
824.25	26343
824.389	26278
824.529	26450
824.669	26518
824.809	26423
824.949	26385
825.089	26412
825.228	26465
825.368	26267
825.508	26237
825.648	26404
825.787	26290
825.927	26320
826.067	26301
826.206	26256
826.346	26244
826.485	26168
826.625	26225
826.765	26320
826.904	26393
827.044	26081
827.183	26054
827.323	25936
827.462	26065
827.601	25940
827.741	26016
827.88	25932
828.02	25811
828.159	26012
828.298	25978
828.437	25993
828.577	25978
828.716	26062
828.855	25887
828.994	25624
829.134	25670
829.273	25738
829.412	25586
829.551	25510
829.69	25392
829.829	25693
829.968	25594
830.107	25700
830.246	25731
830.385	25681
830.524	25605
830.663	25544
830.802	25453
830.941	25228
831.08	25312
831.219	25453
831.357	25331
831.496	25343
831.635	25236
831.774	25259
831.913	25240
832.051	25282
832.19	25198
832.329	25065
832.467	25057
832.606	24924
832.744	25099
832.883	24939
833.022	24977
833.16	24989
833.299	25027
833.437	25114
833.576	25148
833.714	25053
833.852	25148
833.991	25110
834.129	25069
834.267	25221
834.406	24977
834.544	25129
834.682	25198
834.821	25076
834.959	25228
835.097	24951
835.235	25118
835.373	25069
835.511	25103
835.65	24840
835.788	24954
835.926	24772
836.064	24749
836.202	24703
836.34	24947
836.478	25046
836.615	24924
836.753	24867
836.891	24951
837.029	24901
837.167	24810
837.305	24760
837.443	24741
837.58	24726
837.718	24852
837.856	24635
837.993	24722
838.131	24738
838.269	24623
838.406	24631
838.544	24509
838.681	24483
838.819	24300
838.956	24213
839.094	24186
839.231	24167
839.369	24296
839.506	24669
839.643	24323
839.781	24182
839.918	24133
840.055	24190
840.193	24133
840.33	24007
840.467	24133
840.604	24076
840.742	24266
840.879	23935
841.016	24057
841.153	23908
841.29	24171
841.427	24060
841.564	24228
841.701	24148
841.838	24079
841.975	23984
842.112	24003
842.249	23980
842.385	23847
842.522	24053
842.659	23920
842.796	23882
842.933	23863
843.069	23851
843.206	23794
843.343	23870
843.479	23863
843.616	23885
843.752	23699
843.889	23714
844.025	23805
844.162	23737
844.298	23821
844.435	23581
844.571	23562
844.708	23653
844.844	23859
844.98	23786
845.117	23691
845.253	23551
845.389	23467
845.525	23452
845.661	23383
845.798	23429
845.934	23349
846.07	23364
846.206	23360
846.342	23414
846.478	23448
846.614	23239
846.75	23014
846.886	23044
847.022	23200
847.158	23083
847.294	23060
847.429	23124
847.565	23037
847.701	23356
847.837	22805
847.972	22862
848.108	22904
848.244	22965
848.379	22740
848.515	22645
848.65	22641
848.786	22725
848.921	22733
849.057	22774
849.192	22763
849.328	22733
849.463	22698
849.598	22603
849.734	22687
849.869	22542
850.004	22485
850.14	22512
850.275	22485
850.41	22436
850.545	22348
850.68	22500
850.815	22466
850.95	22489
851.085	22554
851.22	22485
851.355	22455
851.49	22512
851.625	22481
851.76	22398
851.895	22360
852.03	22417
852.165	22417
852.299	22447
852.434	22653
852.569	22523
852.703	22508
852.838	22485
852.973	22523
853.107	22516
853.242	22371
853.376	22295
853.511	22188
853.645	22173
853.78	22409
853.914	22246
854.048	22242
854.183	22299
854.317	22268
854.451	22348
854.585	22268
854.72	22329
854.854	22367
854.988	22230
855.122	22223
855.256	22029
855.39	22303
855.524	22398
855.658	22371
855.792	22207
855.926	22287
856.06	22280
856.194	22504
856.327	22234
856.461	22067
856.595	22154
856.729	22234
856.862	22424
856.996	22337
857.13	22284
857.263	22402
857.397	22295
857.53	22268
857.664	22402
857.797	22291
857.931	22402
858.064	22299
858.197	22405
858.331	22310
858.464	22265
858.597	22086
858.731	22242
858.864	22147
858.997	22280
859.13	22246
859.263	22238
859.396	22284
859.529	22105
859.662	22249
859.795	22215
859.928	22249
860.061	22382
860.194	22485
860.327	22428
860.46	22325
860.592	22337
860.725	22322
860.858	22569
860.99	22246
861.123	22082
861.256	22116
861.388	22230
861.521	22915
861.653	22150
861.786	22101
861.918	22048
862.05	22166
862.183	22150
862.315	21998
862.447	22284
862.58	22086
862.712	21915
862.844	21934
862.976	22032
863.108	21998
863.24	22440
863.372	21926
863.504	22051
863.636	21941
863.768	21869
863.9	21994
864.032	21861
864.164	21975
864.296	21934
864.428	22105
864.559	21972
864.691	22002
864.823	21945
864.954	21998
865.086	21922
865.217	21960
865.349	21785
865.48	21884
865.612	21922
865.743	21991
865.875	21945
866.006	21827
866.137	21953
866.269	21922
866.4	21804
866.531	21778
866.662	21743
866.793	21835
866.924	21682
867.055	21804
867.186	21759
867.317	21800
867.448	21819
867.579	21747
867.71	21690
867.841	21675
867.972	21778
868.103	21800
868.233	21755
868.364	21774
868.495	21903
868.625	22006
868.756	22135
868.886	21991
869.017	21956
869.147	22120
869.278	22051
869.408	21949
869.539	21987
869.669	22116
869.799	22025
869.929	22135
870.06	22147
870.19	22409
870.32	22314
870.45	22344
870.58	22272
870.71	22440
870.84	22470
870.97	22447
871.1	22333
871.23	22622
871.36	22546
871.489	22481
871.619	22527
871.749	22615
871.879	22725
872.008	22767
872.138	22626
872.267	22622
872.397	22508
872.526	22489
872.656	22451
872.785	22405
872.915	22550
873.044	22622
873.173	22641
873.303	22641
873.432	22717
873.561	22694
873.69	22706
873.819	22592
873.948	22694
874.077	22733
874.206	22538
874.335	22584
874.464	22778
874.593	22820
874.722	22828
874.851	22820
874.979	22908
875.108	22980
875.237	22763
875.365	22755
875.494	22786
875.623	22797
875.751	22904
875.88	22885
876.008	22934
876.136	22968
876.265	23277
876.393	23315
876.521	23235
876.65	23231
876.778	23315
876.906	23170
877.034	23117
877.162	23204
877.29	23258
877.418	23132
877.546	23143
877.674	23128
877.802	23143
877.93	23071
878.058	23147
878.185	23064
878.313	23174
878.441	23261
878.568	22968
878.696	23094
878.824	23242
878.951	23284
879.079	23417
879.206	23490
879.333	23471
879.461	23162
879.588	23356
879.715	23421
879.842	23471
879.97	23208
880.097	22984
880.224	22892
880.351	23048
880.478	22953
880.605	22972
880.732	22987
880.859	23121
880.986	23056
881.112	23083
881.239	22892
881.366	22710
881.493	22634
881.619	22706
881.746	22584
881.872	22660
881.999	22546
882.125	22497
882.252	22440
882.378	22565
882.505	22588
882.631	22382
882.757	22272
882.883	22386
883.01	22318
883.136	22181
883.262	22105
883.388	22078
883.514	22139
883.64	22280
883.766	22207
883.892	21979
884.018	21972
884.143	22112
884.269	22166
884.395	21918
884.52	21812
884.646	21865
884.772	21808
884.897	21789
885.023	21816
885.148	21998
885.274	22044
885.399	21956
885.524	21907
885.65	21903
885.775	22002
885.9	21972
886.025	21907
886.15	21949
886.275	21842
886.4	21648
886.525	21823
886.65	21743
886.775	21644
886.9	21960
887.025	22124
887.149	21739
887.274	21637
887.399	21641
887.523	21766
887.648	21587
887.773	21603
887.897	21690
888.021	21686
888.146	21667
888.27	21759
888.395	21838
888.519	21660
888.643	21637
888.767	21656
888.891	21431
889.015	21393
889.139	21545
889.263	21428
889.387	21519
889.511	21637
889.635	21587
889.759	21317
889.883	21454
890.006	21370
890.13	21599
890.254	21245
890.377	21241
890.501	21260
890.624	21195
890.748	21131
890.871	21055
890.995	20971
891.118	20861
891.241	21062
891.364	21047
891.488	21051
891.611	20902
891.734	21032
891.857	20963
891.98	21150
892.103	20971
892.226	20883
892.349	20921
892.471	20883
892.594	20899
892.717	20941
892.839	20773
892.962	20975
893.085	20872
893.207	20864
893.33	20785
893.452	20861
893.575	20899
893.697	20788
893.819	21043
893.941	21032
894.064	20998
894.186	20743
894.308	20819
894.43	20845
894.552	20925
894.674	20891
894.796	20849
894.918	20899
895.04	20872
895.161	20910
895.283	20861
895.405	20845
895.526	20948
895.648	20762
895.769	20868
895.891	20891
896.012	20902
896.134	20834
896.255	20883
896.376	20777
896.498	20819
896.619	21028
896.74	20853
896.861	20872
896.982	21077
897.103	21237
897.224	21032
897.345	20963
897.466	20963
897.587	21116
897.708	21077
897.828	21100
897.949	21001
898.07	20933
898.19	21013
898.311	21176
898.431	21108
898.552	21043
898.672	21036
898.792	21146
898.913	21165
899.033	20921
899.153	20792
899.273	20682
899.393	20842
899.513	20815
899.633	20845
899.753	20826
899.873	20804
899.993	20861
900.113	20773
900.232	20891
900.352	20697
900.472	20549
900.591	20560
900.711	20514
900.83	20530
900.95	20686
901.069	20632
901.189	20473
901.308	20218
901.427	20176
901.546	20180
901.665	20191
901.784	20153
901.904	20100
902.023	19989
902.141	19750
902.26	19731
902.379	19700
902.498	19582
902.617	19662
902.735	19700
902.854	19674
902.973	19647
903.091	19324
903.21	19247
903.328	19198
903.446	19171
903.565	19190
903.683	19076
903.801	19019
903.919	19110
904.038	18951
904.156	18886
904.274	18924
904.392	18817
904.51	18939
904.627	18958
904.745	18878
904.863	18871
904.981	18646
905.098	18585
905.216	18494
905.334	18555
905.451	18479
905.569	18525
905.686	18631
905.803	18559
905.921	18372
906.038	18414
906.155	18342
906.272	18262
906.389	18251
906.506	18015
906.623	18095
906.74	18087
906.857	17965
906.974	18068
907.091	18125
907.208	18254
907.324	18121
907.441	18057
907.557	17771
907.674	17779
907.79	17695
907.907	17756
908.023	17817
908.139	17802
908.256	17729
908.372	17657
908.488	17786
908.604	17528
908.72	17425
908.836	17490
908.952	17463
909.068	17577
909.184	17661
909.3	17509
909.415	17615
909.531	17478
909.647	17261
909.762	17227
909.878	17227
909.993	17189
910.108	17041
910.224	17178
910.339	17261
910.454	17060
910.57	17033
910.685	16938
910.8	17261
910.915	17242
911.03	16949
911.145	16835
911.259	16858
911.374	16786
911.489	16687
911.604	16626
911.718	16580
911.833	16531
911.947	16386
912.062	16417
912.176	16489
912.291	16493
912.405	16417
912.519	16637
912.633	16653
912.748	16607
912.862	16558
912.976	16443
913.09	16310
913.204	16325
913.318	16379
913.431	16485
913.545	16405
913.659	16519
913.772	16219
913.886	16234
914	16249
914.113	16181
914.226	16344
914.34	16097
914.453	15994
914.566	16120
914.68	16055
914.793	16032
914.906	15755
915.019	15675
915.132	15633
915.245	15682
915.358	15713
915.47	15717
915.583	15690
915.696	15789
915.809	15766
915.921	15838
916.034	15641
916.146	15644
916.259	15564
916.371	15587
916.483	15781
916.595	15576
916.708	15492
916.82	15576
916.932	15584
917.044	15534
917.156	15462
917.268	15363
917.38	15397
917.491	15329
917.603	15291
917.715	15450
917.826	15393
917.938	15310
918.049	15146
918.161	15260
918.272	15405
918.384	15389
918.495	15294
918.606	15222
918.717	15058
918.828	15146
918.939	15112
919.05	14986
919.161	15142
919.272	14937
919.383	14925
919.494	15108
919.604	15310
919.715	15032
919.826	14963
919.936	15047
920.047	15150
920.157	15020
920.267	15283
920.378	14982
920.488	14963
920.598	15176
920.708	15306
920.818	15188
920.928	15074
921.038	15287
921.148	15313
921.258	15047
921.368	14906
921.477	14834
921.587	14762
921.697	14610
921.806	14853
921.916	14693
922.025	14495
922.134	14412
922.244	14362
922.353	14404
922.462	14324
922.571	14187
922.68	14077
922.789	13959
922.898	14081
923.007	14039
923.116	13974
923.224	13932
923.333	14008
923.442	13898
923.55	13883
923.659	13841
923.767	13959
923.876	13909
923.984	13955
924.092	13753
924.201	13715
924.309	13761
924.417	13788
924.525	13651
924.633	13696
924.741	14632
924.849	13502
924.956	13540
925.064	13464
925.172	13434
925.279	13521
925.387	13460
925.494	13339
925.602	13601
925.709	13426
925.816	13282
925.924	13270
926.031	13438
926.138	13415
926.245	13419
926.352	13190
926.459	13377
926.566	13369
926.673	13274
926.779	13164
926.886	13217
926.993	13019
927.099	12973
927.206	12939
927.312	12905
927.419	12977
927.525	12962
927.631	13004
927.737	12871
927.843	12840
927.95	12662
928.056	12669
928.162	12802
928.267	12840
928.373	13438
928.479	12795
928.585	12623
928.69	12760
928.796	12764
928.901	12673
929.007	12574
929.112	12608
929.218	12601
929.323	12498
929.428	12563
929.533	12585
929.638	12452
929.743	12403
929.848	12441
929.953	12521
930.058	12254
930.163	12152
930.267	12171
930.372	12270
930.477	12136
930.581	12289
930.685	12209
930.79	12011
930.894	12110
930.998	12095
931.103	12213
931.207	11847
931.311	11767
931.415	11638
931.519	11459
931.623	11425
