Data from test_V78500241_3442.txt Node
Date: Fri Mar 25 15:33:49 CST 2022
User: usil
Spectrometer: V785-0024
Trigger mode: 0
Integration Time (sec): 4.000000E-1
Scans to average: 1
Nonlinearity correction enabled: false
Boxcar width: 0
Storing dark spectrum: false
XAxis mode: Wavelengths
Number of Pixels in Spectrum: 1024
>>>>>Begin Spectral Data<<<<<
801.071	27340
801.214	27173
801.356	27108
801.499	26910
801.641	26990
801.783	26864
801.926	26937
802.068	26982
802.211	26632
802.353	26796
802.496	26442
802.638	26667
802.78	26473
802.923	26473
803.065	26366
803.208	26427
803.35	26442
803.492	26670
803.635	26644
803.777	26636
803.919	26590
804.061	26971
804.204	26674
804.346	26560
804.488	26488
804.63	26621
804.773	26446
804.915	26701
805.057	26739
805.199	26579
805.341	26629
805.483	26754
805.626	26689
805.768	26579
805.91	26640
806.052	26819
806.194	26682
806.336	26963
806.478	26621
806.62	26644
806.762	26781
806.904	26971
807.046	27165
807.188	27119
807.33	27195
807.472	27150
807.614	27032
807.756	27032
807.898	26998
808.04	26872
808.182	26998
808.324	26963
808.465	27085
808.607	27249
808.749	27310
808.891	27405
809.033	27405
809.174	27325
809.316	27367
809.458	27283
809.6	27252
809.741	27367
809.883	27485
810.025	27652
810.166	27637
810.308	27568
810.45	27435
810.591	27534
810.733	27393
810.875	27321
811.016	27336
811.158	27237
811.299	27294
811.441	27477
811.582	27313
811.724	27283
811.865	27321
812.007	27184
812.148	27485
812.29	27336
812.431	27466
812.573	27580
812.714	27739
812.855	27778
812.997	27861
813.138	27991
813.279	27808
813.421	27884
813.562	27873
813.703	27599
813.845	27477
813.986	27195
814.127	27001
814.268	27028
814.41	27024
814.551	27024
814.692	26967
814.833	26899
814.974	26952
815.115	26967
815.256	26883
815.397	26849
815.539	26804
815.68	26765
815.821	26727
815.962	26777
816.103	26724
816.244	26678
816.385	26541
816.526	26609
816.666	26336
816.807	26294
816.948	26233
817.089	26343
817.23	26267
817.371	26157
817.512	26240
817.653	26161
817.793	26202
817.934	26233
818.075	26271
818.216	26309
818.356	26130
818.497	26145
818.638	25921
818.778	25925
818.919	26031
819.06	26096
819.2	26176
819.341	26218
819.481	26157
819.622	26332
819.762	26530
819.903	26453
820.043	26400
820.184	26423
820.324	26400
820.465	26473
820.605	26313
820.746	26355
820.886	26157
821.026	26267
821.167	26275
821.307	26419
821.447	26336
821.588	26035
821.728	26043
821.868	25875
822.008	25586
822.149	25712
822.289	25616
822.429	25483
822.569	25396
822.709	25282
822.849	25308
822.99	25274
823.13	25095
823.27	25236
823.41	25031
823.55	24935
823.69	25065
823.83	25065
823.97	24875
824.11	24810
824.25	24821
824.389	24943
824.529	24920
824.669	24939
824.809	24932
824.949	24951
825.089	24992
825.228	24977
825.368	24726
825.508	24669
825.648	24738
825.787	24791
825.927	24703
826.067	24741
826.206	24696
826.346	24768
826.485	24810
826.625	24806
826.765	24825
826.904	24859
827.044	24604
827.183	24513
827.323	24334
827.462	24582
827.601	24380
827.741	24525
827.88	24494
828.02	24334
828.159	24391
828.298	24528
828.437	24445
828.577	24338
828.716	24498
828.855	24315
828.994	24178
829.134	24159
829.273	24220
829.412	24258
829.551	24140
829.69	24110
829.829	24155
829.968	24281
830.107	24186
830.246	24125
830.385	24064
830.524	24060
830.663	24057
830.802	23817
830.941	23775
831.08	23832
831.219	23859
831.357	23824
831.496	23973
831.635	23840
831.774	23771
831.913	23718
832.051	23570
832.19	23512
832.329	23535
832.467	23471
832.606	23478
832.744	23395
832.883	23387
833.022	23391
833.16	23330
833.299	23509
833.437	23364
833.576	23497
833.714	23623
833.852	23592
833.991	23516
834.129	23589
834.267	23600
834.406	23516
834.544	23581
834.682	23512
834.821	23600
834.959	23600
835.097	23414
835.235	23642
835.373	23501
835.511	23608
835.65	23364
835.788	23318
835.926	23258
836.064	23174
836.202	23117
836.34	23318
836.478	23395
836.615	23356
836.753	23383
836.891	23398
837.029	23421
837.167	23299
837.305	23181
837.443	23341
837.58	23246
837.718	23318
837.856	23200
837.993	23307
838.131	23307
838.269	23041
838.406	23044
838.544	23029
838.681	22866
838.819	22797
838.956	22797
839.094	22767
839.231	22767
839.369	22919
839.506	23166
839.643	22938
839.781	22763
839.918	22573
840.055	22645
840.193	22664
840.33	22683
840.467	22516
840.604	22645
840.742	22923
840.879	22386
841.016	22462
841.153	22538
841.29	22702
841.427	22615
841.564	22660
841.701	22740
841.838	22550
841.975	22615
842.112	22596
842.249	22478
842.385	22443
842.522	22615
842.659	22466
842.796	22344
842.933	22382
843.069	22382
843.206	22360
843.343	22493
843.479	22325
843.616	22363
843.752	22226
843.889	22192
844.025	22379
844.162	22200
844.298	22284
844.435	22200
844.571	22112
844.708	22166
844.844	22341
844.98	22257
845.117	22188
845.253	22093
845.389	22059
845.525	22013
845.661	22002
845.798	21941
845.934	21983
846.07	21930
846.206	21861
846.342	21953
846.478	21899
846.614	21720
846.75	21618
846.886	21622
847.022	21804
847.158	21717
847.294	21660
847.429	21743
847.565	21690
847.701	21918
847.837	21469
847.972	21336
848.108	21462
848.244	21424
848.379	21230
848.515	21211
848.65	21188
848.786	21241
848.921	21146
849.057	21329
849.192	21233
849.328	21222
849.463	21169
849.598	21184
849.734	20979
849.869	21108
850.004	21017
850.14	21020
850.275	20944
850.41	20876
850.545	20998
850.68	20910
850.815	20998
850.95	21032
851.085	21222
851.22	21131
851.355	21055
851.49	20887
851.625	21009
851.76	21032
851.895	20868
852.03	20925
852.165	20906
852.299	20887
852.434	21051
852.569	21001
852.703	20895
852.838	20994
852.973	21169
853.107	21157
853.242	20944
853.376	20788
853.511	20758
853.645	20781
853.78	20864
853.914	20819
854.048	20762
854.183	20804
854.317	20891
854.451	21058
854.585	20906
854.72	20838
854.854	20994
854.988	20914
855.122	20800
855.256	20659
855.39	20796
855.524	20910
855.658	20895
855.792	20849
855.926	20895
856.06	20864
856.194	20861
856.327	20804
856.461	20746
856.595	20682
856.729	20868
856.862	20800
856.996	20845
857.13	20895
857.263	20781
857.397	20815
857.53	20792
857.664	20876
857.797	20906
857.931	20792
858.064	20845
858.197	20941
858.331	20727
858.464	20842
858.597	20762
858.731	20773
858.864	20689
858.997	20724
859.13	20765
859.263	20880
859.396	20765
859.529	20659
859.662	20777
859.795	20891
859.928	20853
860.061	20937
860.194	21096
860.327	20781
860.46	20864
860.592	20948
860.725	20914
860.858	20842
860.99	20967
861.123	20716
861.256	20705
861.388	20746
861.521	21454
861.653	20632
861.786	20537
861.918	20686
862.05	20613
862.183	20727
862.315	20769
862.447	20842
862.58	20724
862.712	20465
862.844	20606
862.976	20541
863.108	20632
863.24	21020
863.372	20347
863.504	20575
863.636	20503
863.768	20609
863.9	20594
864.032	20552
864.164	20461
864.296	20613
864.428	20514
864.559	20617
864.691	20560
864.823	20541
864.954	20450
865.086	20556
865.217	20457
865.349	20355
865.48	20454
865.612	20480
865.743	20564
865.875	20511
866.006	20366
866.137	20450
866.269	20358
866.4	20377
866.531	20427
866.662	20366
866.793	20347
866.924	20366
867.055	20332
867.186	20454
867.317	20374
867.448	20237
867.579	20355
867.71	20206
867.841	20282
867.972	20362
868.103	20275
868.233	20434
868.364	20332
868.495	20442
868.625	20556
868.756	20712
868.886	20541
869.017	20648
869.147	20655
869.278	20727
869.408	20526
869.539	20609
869.669	20739
869.799	20686
869.929	20773
870.06	20655
870.19	20998
870.32	20830
870.45	20971
870.58	21058
870.71	21230
870.84	21161
870.97	21211
871.1	21058
871.23	21180
871.36	21272
871.489	21169
871.619	21093
871.749	21252
871.879	21241
872.008	21256
872.138	21382
872.267	21230
872.397	21192
872.526	21066
872.656	21017
872.785	21005
872.915	21249
873.044	21211
873.173	21325
873.303	21325
873.432	21302
873.561	21382
873.69	21272
873.819	21264
873.948	21291
874.077	21256
874.206	21199
874.335	21389
874.464	21386
874.593	21515
874.722	21526
874.851	21542
874.979	21450
875.108	21652
875.237	21401
875.365	21401
875.494	21431
875.623	21557
875.751	21644
875.88	21420
876.008	21625
876.136	21800
876.265	21918
876.393	22013
876.521	21987
876.65	21907
876.778	21949
876.906	21945
877.034	21800
877.162	21797
877.29	21816
877.418	21903
877.546	21895
877.674	21899
877.802	21850
877.93	21766
878.058	21850
878.185	21755
878.313	21728
878.441	21812
878.568	21568
878.696	21709
878.824	21816
878.951	21991
879.079	22013
879.206	22074
879.333	22090
879.461	21892
879.588	21911
879.715	22101
879.842	22306
879.97	21884
880.097	21679
880.224	21793
880.351	21701
880.478	21804
880.605	21637
880.732	21618
880.859	21755
880.986	21705
881.112	21762
881.239	21488
881.366	21420
881.493	21382
881.619	21241
881.746	21279
881.872	21275
881.999	21199
882.125	21135
882.252	21272
882.378	21100
882.505	21310
882.631	21218
882.757	20967
882.883	21047
883.01	20967
883.136	20963
883.262	20899
883.388	20819
883.514	20990
883.64	20902
883.766	20941
883.892	20670
884.018	20758
884.143	20929
884.269	21001
884.395	20720
884.52	20545
884.646	20568
884.772	20541
884.897	20476
885.023	20549
885.148	20754
885.274	20674
885.399	20781
885.524	20545
885.65	20648
885.775	20575
885.9	20541
886.025	20708
886.15	20765
886.275	20492
886.4	20404
886.525	20663
886.65	20602
886.775	20568
886.9	20640
887.025	20667
887.149	20556
887.274	20446
887.399	20400
887.523	20461
887.648	20294
887.773	20248
887.897	20275
888.021	20514
888.146	20301
888.27	20484
888.395	20381
888.519	20431
888.643	20370
888.767	20434
888.891	20259
889.015	20172
889.139	20221
889.263	20100
889.387	20252
889.511	20412
889.635	20400
889.759	20145
889.883	20168
890.006	20271
890.13	20164
890.254	20130
890.377	20210
890.501	19871
890.624	19864
890.748	19967
890.871	19849
890.995	19643
891.118	19693
891.241	19780
891.364	19757
891.488	19845
891.611	19738
891.734	19689
891.857	19814
891.98	19856
892.103	19780
892.226	19841
892.349	19639
892.471	19510
892.594	19666
892.717	19681
892.839	19658
892.962	19712
893.085	19734
893.207	19708
893.33	19514
893.452	19590
893.575	19666
893.697	19681
893.819	19841
893.941	19993
894.064	19651
894.186	19670
894.308	19559
894.43	19814
894.552	19742
894.674	19715
894.796	19620
894.918	19540
895.04	19537
895.161	19723
895.283	19567
895.405	19594
895.526	19670
895.648	19715
895.769	19685
895.891	19548
896.012	19875
896.134	19727
896.255	19662
896.376	19632
896.498	19712
896.619	19769
896.74	19727
896.861	19639
896.982	19993
897.103	20161
897.224	19890
897.345	19849
897.466	19788
897.587	19925
897.708	20016
897.828	19959
897.949	19780
898.07	19712
898.19	19875
898.311	20001
898.431	19814
898.552	19936
898.672	19967
898.792	19978
898.913	19917
899.033	19845
899.153	19753
899.273	19632
899.393	19662
899.513	19643
899.633	19628
899.753	19715
899.873	19556
899.993	19559
900.113	19670
900.232	19632
900.352	19632
900.472	19499
900.591	19369
900.711	19487
900.83	19301
900.95	19419
901.069	19552
901.189	19445
901.308	19129
901.427	18996
901.546	19019
901.665	18970
901.784	19069
901.904	18920
902.023	18749
902.141	18612
902.26	18566
902.379	18673
902.498	18563
902.617	18513
902.735	18719
902.854	18391
902.973	18441
903.091	18110
903.21	18136
903.328	18281
903.446	18133
903.565	18057
903.683	17992
903.801	17908
903.919	17958
904.038	18003
904.156	17786
904.274	17893
904.392	17824
904.51	17798
904.627	17737
904.745	17885
904.863	17760
904.981	17558
905.098	17554
905.216	17425
905.334	17551
905.451	17471
905.569	17376
905.686	17471
905.803	17433
905.921	17296
906.038	17402
906.155	17277
906.272	17064
906.389	17185
906.506	16976
906.623	16991
906.74	17003
906.857	16869
906.974	17018
907.091	17067
907.208	17083
907.324	17090
907.441	16839
907.557	16656
907.674	16691
907.79	16790
907.907	16713
908.023	16588
908.139	16702
908.256	16702
908.372	16641
908.488	16664
908.604	16527
908.72	16329
908.836	16504
908.952	16428
909.068	16337
909.184	16561
909.3	16470
909.415	16535
909.531	16421
909.647	16226
909.762	16109
909.878	16181
909.993	16211
910.108	16147
910.224	16002
910.339	16128
910.454	15994
910.57	16006
910.685	15930
910.8	16280
910.915	16074
911.03	16006
911.145	15850
911.259	15789
911.374	15812
911.489	15705
911.604	15690
911.718	15496
911.833	15599
911.947	15386
912.062	15416
912.176	15545
912.291	15538
912.405	15507
912.519	15629
912.633	15633
912.748	15523
912.862	15420
912.976	15378
913.09	15260
913.204	15272
913.318	15275
913.431	15348
913.545	15393
913.659	15412
913.772	15291
913.886	15184
914	15112
914.113	15192
914.226	15226
914.34	15142
914.453	15058
914.566	15207
914.68	14975
914.793	15005
914.906	14804
915.019	14750
915.132	14678
915.245	14743
915.358	14861
915.47	14811
915.583	14842
915.696	14788
915.809	14750
915.921	14906
916.034	14712
916.146	14625
916.259	14648
916.371	14754
916.483	14613
916.595	14602
916.708	14617
916.82	14670
916.932	14499
917.044	14651
917.156	14438
917.268	14454
917.38	14499
917.491	14347
917.603	14385
917.715	14488
917.826	14507
917.938	14324
918.049	14271
918.161	14343
918.272	14484
918.384	14415
918.495	14442
918.606	14145
918.717	14199
918.828	14123
918.939	14248
919.05	14058
919.161	14153
919.272	14081
919.383	13909
919.494	14187
919.604	14336
919.715	14252
919.826	14065
919.936	14130
920.047	14157
920.157	14119
920.267	14355
920.378	14195
920.488	14115
920.598	14328
920.708	14427
920.818	14343
920.928	14320
921.038	14507
921.148	14400
921.258	14206
921.368	13913
921.477	13944
921.587	13940
921.697	13746
921.806	13856
921.916	13681
922.025	13548
922.134	13495
922.244	13533
922.353	13605
922.462	13445
922.571	13346
922.68	13228
922.789	13244
922.898	13255
923.007	13168
923.116	13202
923.224	13164
923.333	13133
923.442	13110
923.55	12973
923.659	13053
923.767	13072
923.876	12943
923.984	13072
924.092	12909
924.201	12951
924.309	12962
924.417	12958
924.525	12890
924.633	12848
924.741	13849
924.849	12726
924.956	12871
925.064	12623
925.172	12673
925.279	12620
925.387	12593
925.494	12570
925.602	12722
925.709	12696
925.816	12559
925.924	12582
926.031	12631
926.138	12547
926.245	12585
926.352	12494
926.459	12555
926.566	12700
926.673	12513
926.779	12346
926.886	12304
926.993	12258
927.099	12254
927.206	12235
927.312	12068
927.419	12262
927.525	12175
927.631	12125
927.737	12095
927.843	12053
927.95	11889
928.056	12053
928.162	12057
928.267	12087
928.373	12608
928.479	12148
928.585	11889
928.69	12019
928.796	12015
928.901	11847
929.007	11676
929.112	11931
929.218	11950
929.323	11798
929.428	11786
929.533	11923
929.638	11691
929.743	11737
929.848	11733
929.953	11668
930.058	11596
930.163	11436
930.267	11463
930.372	11547
930.477	11410
930.581	11649
930.685	11535
930.79	11395
930.894	11337
930.998	11398
931.103	11520
931.207	11223
931.311	11025
931.415	10980
931.519	10850
931.623	10733
