Data from test_V78500241_3174.txt Node
Date: Fri Mar 25 15:31:57 CST 2022
User: usil
Spectrometer: V785-0024
Trigger mode: 0
Integration Time (sec): 4.000000E-1
Scans to average: 1
Nonlinearity correction enabled: false
Boxcar width: 0
Storing dark spectrum: false
XAxis mode: Wavelengths
Number of Pixels in Spectrum: 1024
>>>>>Begin Spectral Data<<<<<
801.071	27195
801.214	27066
801.356	26883
801.499	26834
801.641	26678
801.783	26739
801.926	26823
802.068	26632
802.211	26648
802.353	26625
802.496	26423
802.638	26377
802.78	26313
802.923	26256
803.065	26180
803.208	26263
803.35	26351
803.492	26495
803.635	26442
803.777	26294
803.919	26533
804.061	26800
804.204	26514
804.346	26374
804.488	26294
804.63	26408
804.773	26396
804.915	26484
805.057	26579
805.199	26206
805.341	26579
805.483	26651
805.626	26518
805.768	26377
805.91	26632
806.052	26682
806.194	26450
806.336	26678
806.478	26568
806.62	26473
806.762	26731
806.904	26762
807.046	27032
807.188	27020
807.33	27005
807.472	27028
807.614	26944
807.756	26895
807.898	26823
808.04	26705
808.182	26693
808.324	26883
808.465	26929
808.607	27032
808.749	27138
808.891	27275
809.033	27374
809.174	27180
809.316	27093
809.458	27070
809.6	27116
809.741	27154
809.883	27157
810.025	27393
810.166	27367
810.308	27291
810.45	27283
810.591	27272
810.733	27146
810.875	27180
811.016	27062
811.158	26929
811.299	27096
811.441	27291
811.582	27378
811.724	27077
811.865	26979
812.007	27017
812.148	27116
812.29	27169
812.431	27355
812.573	27477
812.714	27496
812.855	27656
812.997	27720
813.138	27831
813.279	27717
813.421	27656
813.562	27542
813.703	27382
813.845	27245
813.986	27009
814.127	26849
814.268	26823
814.41	26636
814.551	26739
814.692	26899
814.833	26686
814.974	26705
815.115	26864
815.256	26621
815.397	26625
815.539	26568
815.68	26613
815.821	26480
815.962	26530
816.103	26503
816.244	26332
816.385	26233
816.526	26381
816.666	26328
816.807	25814
816.948	26180
817.089	26115
817.23	26138
817.371	26081
817.512	26187
817.653	26027
817.793	26016
817.934	26012
818.075	26100
818.216	26088
818.356	26043
818.497	25959
818.638	25807
818.778	25837
818.919	25772
819.06	25868
819.2	25772
819.341	26058
819.481	26001
819.622	26183
819.762	26404
819.903	26259
820.043	26218
820.184	26107
820.324	26122
820.465	26244
820.605	26187
820.746	26126
820.886	26027
821.026	26058
821.167	26134
821.307	26153
821.447	26081
821.588	25963
821.728	25883
821.868	25582
822.008	25750
822.149	25460
822.289	25533
822.429	25362
822.569	25152
822.709	25145
822.849	25042
822.99	25091
823.13	24962
823.27	25031
823.41	24825
823.55	24661
823.69	24901
823.83	24810
823.97	24703
824.11	24688
824.25	24597
824.389	24768
824.529	24753
824.669	24760
824.809	24821
824.949	24673
825.089	24639
825.228	24700
825.368	24532
825.508	24620
825.648	24585
825.787	24547
825.927	24631
826.067	24563
826.206	24601
826.346	24479
826.485	24681
826.625	24566
826.765	24745
826.904	24490
827.044	24350
827.183	24369
827.323	24243
827.462	24258
827.601	24292
827.741	24174
827.88	24155
828.02	24136
828.159	24235
828.298	24224
828.437	24319
828.577	24110
828.716	24194
828.855	24129
828.994	23908
829.134	23984
829.273	23958
829.412	23809
829.551	23901
829.69	23935
829.829	23980
829.968	24057
830.107	23961
830.246	24053
830.385	23973
830.524	23847
830.663	23885
830.802	23733
830.941	23566
831.08	23581
831.219	23604
831.357	23562
831.496	23870
831.635	23630
831.774	23493
831.913	23528
832.051	23379
832.19	23520
832.329	23311
832.467	23296
832.606	23208
832.744	23326
832.883	23280
833.022	23239
833.16	23246
833.299	23284
833.437	23162
833.576	23296
833.714	23239
833.852	23250
833.991	23273
834.129	23337
834.267	23440
834.406	23334
834.544	23440
834.682	23410
834.821	23368
834.959	23414
835.097	23254
835.235	23223
835.373	23330
835.511	23220
835.65	23360
835.788	23159
835.926	23075
836.064	22980
836.202	23044
836.34	23147
836.478	23250
836.615	23105
836.753	23102
836.891	23162
837.029	23334
837.167	22976
837.305	23086
837.443	22923
837.58	23018
837.718	23048
837.856	23029
837.993	23044
838.131	23132
838.269	22862
838.406	22889
838.544	22774
838.681	22694
838.819	22569
838.956	22523
839.094	22523
839.231	22554
839.369	22637
839.506	22881
839.643	22683
839.781	22622
839.918	22470
840.055	22653
840.193	22470
840.33	22432
840.467	22398
840.604	22637
840.742	22790
840.879	22363
841.016	22329
841.153	22242
841.29	22470
841.427	22428
841.564	22443
841.701	22352
841.838	22375
841.975	22310
842.112	22402
842.249	22257
842.385	22215
842.522	22436
842.659	22291
842.796	22109
842.933	22177
843.069	22207
843.206	22070
843.343	22211
843.479	22101
843.616	22067
843.752	21972
843.889	22032
844.025	22185
844.162	21823
844.298	22070
844.435	21926
844.571	21793
844.708	21964
844.844	22051
844.98	22181
845.117	22025
845.253	22036
845.389	21793
845.525	21743
845.661	21915
845.798	21778
845.934	21808
846.07	21671
846.206	21713
846.342	21808
846.478	21599
846.614	21405
846.75	21428
846.886	21397
847.022	21454
847.158	21504
847.294	21454
847.429	21454
847.565	21374
847.701	21648
847.837	21184
847.972	21043
848.108	21283
848.244	21165
848.379	21127
848.515	20956
848.65	21039
848.786	21116
848.921	21051
849.057	21096
849.192	21100
849.328	21104
849.463	21085
849.598	20982
849.734	20994
849.869	20853
850.004	20845
850.14	20800
850.275	20819
850.41	20746
850.545	20678
850.68	20731
850.815	20815
850.95	20891
851.085	21062
851.22	20838
851.355	20826
851.49	20823
851.625	20819
851.76	20804
851.895	20746
852.03	20864
852.165	20883
852.299	20842
852.434	20910
852.569	20796
852.703	20861
852.838	20868
852.973	20967
853.107	20967
853.242	20743
853.376	20724
853.511	20450
853.645	20659
853.78	20670
853.914	20617
854.048	20549
854.183	20568
854.317	20636
854.451	20876
854.585	20773
854.72	20560
854.854	20777
854.988	20541
855.122	20674
855.256	20469
855.39	20636
855.524	20746
855.658	20579
855.792	20590
855.926	20617
856.06	20796
856.194	20708
856.327	20587
856.461	20473
856.595	20530
856.729	20598
856.862	20693
856.996	20640
857.13	20705
857.263	20708
857.397	20693
857.53	20552
857.664	20621
857.797	20655
857.931	20568
858.064	20640
858.197	20689
858.331	20632
858.464	20636
858.597	20583
858.731	20644
858.864	20480
858.997	20617
859.13	20651
859.263	20644
859.396	20705
859.529	20549
859.662	20526
859.795	20609
859.928	20549
860.061	20727
860.194	20899
860.327	20644
860.46	20609
860.592	20705
860.725	20864
860.858	20758
860.99	20571
861.123	20457
861.256	20655
861.388	20632
861.521	21081
861.653	20541
861.786	20385
861.918	20541
862.05	20518
862.183	20507
862.315	20564
862.447	20629
862.58	20415
862.712	20355
862.844	20271
862.976	20450
863.108	20454
863.24	20655
863.372	20336
863.504	20328
863.636	20275
863.768	20366
863.9	20317
864.032	20244
864.164	20233
864.296	20298
864.428	20465
864.559	20374
864.691	20351
864.823	20370
864.954	20370
865.086	20282
865.217	20301
865.349	20248
865.48	20172
865.612	20199
865.743	20412
865.875	20282
866.006	20202
866.137	20248
866.269	20210
866.4	20240
866.531	20103
866.662	20256
866.793	20164
866.924	20096
867.055	20199
867.186	20282
867.317	20176
867.448	20062
867.579	20206
867.71	20073
867.841	20214
867.972	20157
868.103	20229
868.233	20187
868.364	20176
868.495	20229
868.625	20339
868.756	20526
868.886	20317
869.017	20530
869.147	20469
869.278	20583
869.408	20427
869.539	20427
869.669	20427
869.799	20446
869.929	20609
870.06	20473
870.19	20686
870.32	20785
870.45	20625
870.58	20781
870.71	20960
870.84	20906
870.97	20937
871.1	20800
871.23	20883
871.36	21093
871.489	20902
871.619	21020
871.749	20979
871.879	21058
872.008	21150
872.138	21062
872.267	21058
872.397	20868
872.526	20857
872.656	20933
872.785	20899
872.915	21058
873.044	21150
873.173	20994
873.303	21039
873.432	21077
873.561	21100
873.69	21135
873.819	21055
873.948	21070
874.077	21028
874.206	20933
874.335	21119
874.464	21230
874.593	21291
874.722	21241
874.851	21306
874.979	21249
875.108	21275
875.237	21176
875.365	21138
875.494	21287
875.623	21367
875.751	21180
875.88	21294
876.008	21469
876.136	21412
876.265	21633
876.393	21835
876.521	21854
876.65	21884
876.778	21724
876.906	21545
877.034	21526
877.162	21648
877.29	21530
877.418	21637
877.546	21652
877.674	21690
877.802	21656
877.93	21637
878.058	21686
878.185	21595
878.313	21603
878.441	21610
878.568	21538
878.696	21641
878.824	21755
878.951	21675
879.079	21732
879.206	22048
879.333	21793
879.461	21667
879.588	21823
879.715	21797
879.842	21876
879.97	21690
880.097	21549
880.224	21363
880.351	21545
880.478	21462
880.605	21374
880.732	21561
880.859	21720
880.986	21393
881.112	21477
881.239	21351
881.366	21222
881.493	21074
881.619	20998
881.746	21081
881.872	20910
881.999	21055
882.125	21005
882.252	21093
882.378	21089
882.505	21066
882.631	20952
882.757	20708
882.883	20811
883.01	20788
883.136	20629
883.262	20655
883.388	20549
883.514	20701
883.64	20800
883.766	20674
883.892	20400
884.018	20579
884.143	20762
884.269	20731
884.395	20488
884.52	20385
884.646	20336
884.772	20309
884.897	20355
885.023	20393
885.148	20473
885.274	20575
885.399	20499
885.524	20457
885.65	20370
885.775	20385
885.9	20301
886.025	20545
886.15	20465
886.275	20362
886.4	20142
886.525	20298
886.65	20343
886.775	20263
886.9	20431
887.025	20552
887.149	20320
887.274	20202
887.399	20275
887.523	20092
887.648	20005
887.773	20065
887.897	20149
888.021	20225
888.146	20130
888.27	20210
888.395	20320
888.519	20233
888.643	20256
888.767	20233
888.891	20111
889.015	19982
889.139	20031
889.263	20039
889.387	20088
889.511	20263
889.635	20031
889.759	19982
889.883	19940
890.006	20005
890.13	20031
890.254	19944
890.377	19883
890.501	19677
890.624	19594
890.748	19852
890.871	19571
890.995	19624
891.118	19571
891.241	19662
891.364	19594
891.488	19651
891.611	19582
891.734	19628
891.857	19609
891.98	19609
892.103	19582
892.226	19506
892.349	19506
892.471	19419
892.594	19460
892.717	19365
892.839	19480
892.962	19365
893.085	19597
893.207	19476
893.33	19476
893.452	19331
893.575	19518
893.697	19487
893.819	19559
893.941	19624
894.064	19571
894.186	19331
894.308	19476
894.43	19430
894.552	19635
894.674	19518
894.796	19403
894.918	19529
895.04	19358
895.161	19487
895.283	19510
895.405	19426
895.526	19449
895.648	19434
895.769	19499
895.891	19487
896.012	19525
896.134	19624
896.255	19480
896.376	19514
896.498	19521
896.619	19559
896.74	19510
896.861	19540
896.982	19769
897.103	19947
897.224	19818
897.345	19803
897.466	19533
897.587	19681
897.708	19864
897.828	19738
897.949	19715
898.07	19483
898.19	19708
898.311	19852
898.431	19727
898.552	19712
898.672	19723
898.792	19719
898.913	19776
899.033	19594
899.153	19396
899.273	19419
899.393	19544
899.513	19548
899.633	19453
899.753	19533
899.873	19384
899.993	19552
900.113	19468
900.232	19460
900.352	19377
900.472	19312
900.591	19278
900.711	19168
900.83	19259
900.95	19362
901.069	19426
901.189	19126
901.308	18947
901.427	18852
901.546	18932
901.665	18871
901.784	18825
901.904	18612
902.023	18650
902.141	18490
902.26	18323
902.379	18494
902.498	18403
902.617	18365
902.735	18388
902.854	18334
902.973	18315
903.091	18098
903.21	18102
903.328	18083
903.446	17992
903.565	17863
903.683	17851
903.801	17714
903.919	17805
904.038	17893
904.156	17600
904.274	17726
904.392	17596
904.51	17516
904.627	17570
904.745	17592
904.863	17646
904.981	17421
905.098	17311
905.216	17353
905.334	17292
905.451	17376
905.569	17337
905.686	17402
905.803	17288
905.921	17124
906.038	17284
906.155	17045
906.272	17033
906.389	17064
906.506	16946
906.623	16889
906.74	16949
906.857	16748
906.974	16812
907.091	17048
907.208	16980
907.324	16942
907.441	16736
907.557	16630
907.674	16603
907.79	16592
907.907	16512
908.023	16675
908.139	16561
908.256	16500
908.372	16516
908.488	16519
908.604	16360
908.72	16337
908.836	16268
908.952	16303
909.068	16295
909.184	16478
909.3	16253
909.415	16322
909.531	16249
909.647	15960
909.762	16013
909.878	15972
909.993	15922
910.108	15968
910.224	15930
910.339	16082
910.454	15922
910.57	15835
910.685	15762
910.8	16036
910.915	16055
911.03	15720
911.145	15633
911.259	15637
911.374	15694
911.489	15504
911.604	15591
911.718	15306
911.833	15329
911.947	15306
912.062	15321
912.176	15424
912.291	15408
912.405	15405
912.519	15591
912.633	15618
912.748	15473
912.862	15325
912.976	15169
913.09	15039
913.204	15142
913.318	15180
913.431	15245
913.545	15245
913.659	15291
913.772	15062
913.886	14998
914	14921
914.113	15043
914.226	15173
914.34	15180
914.453	14868
914.566	14994
914.68	14861
914.793	14895
914.906	14697
915.019	14587
915.132	14533
915.245	14602
915.358	14629
915.47	14651
915.583	14575
915.696	14773
915.809	14765
915.921	14746
916.034	14564
916.146	14537
916.259	14530
916.371	14579
916.483	14545
916.595	14522
916.708	14469
916.82	14423
916.932	14412
917.044	14446
917.156	14358
917.268	14305
917.38	14320
917.491	14191
917.603	14271
917.715	14370
917.826	14419
917.938	14294
918.049	14069
918.161	14252
918.272	14377
918.384	14404
918.495	14278
918.606	14096
918.717	13970
918.828	14096
918.939	14142
919.05	14020
919.161	14103
919.272	13906
919.383	13951
919.494	14142
919.604	14244
919.715	14035
919.826	14001
919.936	14005
920.047	14092
920.157	14031
920.267	14206
920.378	13951
920.488	13925
920.598	14126
920.708	14305
920.818	14172
920.928	14145
921.038	14336
921.148	14294
921.258	14008
921.368	13997
921.477	13811
921.587	13776
921.697	13624
921.806	13715
921.916	13670
922.025	13533
922.134	13438
922.244	13422
922.353	13441
922.462	13259
922.571	13301
922.68	13156
922.789	13076
922.898	13080
923.007	13072
923.116	13175
923.224	13065
923.333	12996
923.442	12897
923.55	12905
923.659	12871
923.767	12943
923.876	12852
923.984	12871
924.092	12867
924.201	12848
924.309	12913
924.417	12852
924.525	12817
924.633	12753
924.741	13742
924.849	12608
924.956	12684
925.064	12540
925.172	12498
925.279	12456
925.387	12528
925.494	12521
925.602	12635
925.709	12574
925.816	12391
925.924	12448
926.031	12574
926.138	12445
926.245	12498
926.352	12346
926.459	12464
926.566	12433
926.673	12395
926.779	12323
926.886	12350
926.993	11992
927.099	12030
927.206	12049
927.312	12045
927.419	12209
927.525	12049
927.631	12114
927.737	12026
927.843	11916
927.95	11916
928.056	12041
928.162	11988
928.267	11969
928.373	12574
928.479	11996
928.585	11855
928.69	11859
928.796	11927
928.901	11817
929.007	11619
929.112	11748
929.218	11813
929.323	11745
929.428	11585
929.533	11790
929.638	11573
929.743	11642
929.848	11657
929.953	11649
930.058	11532
930.163	11387
930.267	11356
930.372	11512
930.477	11315
930.581	11539
930.685	11379
930.79	11303
930.894	11391
930.998	11239
931.103	11436
931.207	11018
931.311	10980
931.415	10854
931.519	10771
931.623	10691
