Data from test_V78500241_3496.txt Node
Date: Fri Mar 25 15:34:12 CST 2022
User: usil
Spectrometer: V785-0024
Trigger mode: 0
Integration Time (sec): 4.000000E-1
Scans to average: 1
Nonlinearity correction enabled: false
Boxcar width: 0
Storing dark spectrum: false
XAxis mode: Wavelengths
Number of Pixels in Spectrum: 1024
>>>>>Begin Spectral Data<<<<<
801.071	27260
801.214	27329
801.356	26940
801.499	26819
801.641	26739
801.783	26819
801.926	26967
802.068	26872
802.211	26754
802.353	26739
802.496	26518
802.638	26438
802.78	26408
802.923	26438
803.065	26259
803.208	26465
803.35	26480
803.492	26514
803.635	26587
803.777	26484
803.919	26590
804.061	26845
804.204	26727
804.346	26457
804.488	26503
804.63	26545
804.773	26457
804.915	26625
805.057	26727
805.199	26537
805.341	26689
805.483	26640
805.626	26716
805.768	26682
805.91	26743
806.052	26819
806.194	26765
806.336	26864
806.478	26788
806.62	26689
806.762	26785
806.904	26948
807.046	27230
807.188	27222
807.33	27017
807.472	27176
807.614	27051
807.756	27096
807.898	26849
808.04	27039
808.182	26975
808.324	27013
808.465	27123
808.607	27176
808.749	27363
808.891	27344
809.033	27561
809.174	27272
809.316	27245
809.458	27435
809.6	27321
809.741	27469
809.883	27458
810.025	27538
810.166	27656
810.308	27660
810.45	27606
810.591	27549
810.733	27416
810.875	27214
811.016	27074
811.158	27306
811.299	27348
811.441	27595
811.582	27481
811.724	27389
811.865	27264
812.007	27382
812.148	27161
812.29	27443
812.431	27469
812.573	27568
812.714	27842
812.855	27705
812.997	27888
813.138	27941
813.279	27956
813.421	27747
813.562	27739
813.703	27698
813.845	27447
813.986	27108
814.127	27074
814.268	26933
814.41	27036
814.551	26982
814.692	27195
814.833	26921
814.974	26956
815.115	27058
815.256	26853
815.397	26823
815.539	26872
815.68	26769
815.821	26750
815.962	26754
816.103	26678
816.244	26530
816.385	26511
816.526	26499
816.666	26294
816.807	26176
816.948	26317
817.089	26332
817.23	26229
817.371	26161
817.512	26172
817.653	26126
817.793	26240
817.934	26252
818.075	26275
818.216	26313
818.356	26214
818.497	26115
818.638	26001
818.778	25947
818.919	26195
819.06	26035
819.2	26088
819.341	26252
819.481	26195
819.622	26453
819.762	26556
819.903	26480
820.043	26488
820.184	26301
820.324	26240
820.465	26507
820.605	26419
820.746	26271
820.886	26134
821.026	26374
821.167	26351
821.307	26404
821.447	26271
821.588	26122
821.728	25921
821.868	25902
822.008	25765
822.149	25674
822.289	25571
822.429	25449
822.569	25354
822.709	25434
822.849	25247
822.99	25213
823.13	25282
823.27	25179
823.41	24970
823.55	25053
823.69	24989
823.83	25015
823.97	25004
824.11	24837
824.25	24852
824.389	24837
824.529	25000
824.669	24856
824.809	24928
824.949	24935
825.089	24840
825.228	24856
825.368	24764
825.508	24745
825.648	24654
825.787	24654
825.927	24783
826.067	24734
826.206	24715
826.346	24882
826.485	24810
826.625	24760
826.765	24795
826.904	24749
827.044	24540
827.183	24559
827.323	24311
827.462	24452
827.601	24433
827.741	24369
827.88	24441
828.02	24338
828.159	24399
828.298	24448
828.437	24391
828.577	24270
828.716	24570
828.855	24502
828.994	24102
829.134	24247
829.273	24205
829.412	24087
829.551	24098
829.69	24129
829.829	24277
829.968	24178
830.107	24270
830.246	24117
830.385	24273
830.524	23969
830.663	23912
830.802	23977
830.941	23767
831.08	23756
831.219	23752
831.357	23969
831.496	23961
831.635	23741
831.774	23767
831.913	23623
832.051	23455
832.19	23505
832.329	23528
832.467	23509
832.606	23463
832.744	23429
832.883	23535
833.022	23433
833.16	23531
833.299	23383
833.437	23520
833.576	23562
833.714	23562
833.852	23539
833.991	23634
834.129	23611
834.267	23710
834.406	23421
834.544	23566
834.682	23474
834.821	23448
834.959	23760
835.097	23425
835.235	23619
835.373	23444
835.511	23497
835.65	23406
835.788	23425
835.926	23105
836.064	23223
836.202	23277
836.34	23444
836.478	23402
836.615	23273
836.753	23372
836.891	23410
837.029	23421
837.167	23349
837.305	23254
837.443	23292
837.58	23197
837.718	23349
837.856	23254
837.993	23208
838.131	23239
838.269	23048
838.406	23048
838.544	22984
838.681	22930
838.819	22900
838.956	22713
839.094	22694
839.231	22752
839.369	22957
839.506	23162
839.643	22904
839.781	22835
839.918	22615
840.055	22675
840.193	22493
840.33	22694
840.467	22592
840.604	22641
840.742	22866
840.879	22386
841.016	22618
841.153	22478
841.29	22733
841.427	22675
841.564	22706
841.701	22759
841.838	22592
841.975	22554
842.112	22580
842.249	22577
842.385	22462
842.522	22607
842.659	22519
842.796	22379
842.933	22280
843.069	22344
843.206	22314
843.343	22409
843.479	22363
843.616	22474
843.752	22219
843.889	22192
844.025	22276
844.162	22093
844.298	22246
844.435	22059
844.571	22154
844.708	22177
844.844	22382
844.98	22318
845.117	22246
845.253	22090
845.389	21941
845.525	22124
845.661	22078
845.798	21816
845.934	21964
846.07	21861
846.206	21922
846.342	22025
846.478	21789
846.614	21717
846.75	21561
846.886	21561
847.022	21724
847.158	21648
847.294	21622
847.429	21682
847.565	21644
847.701	21911
847.837	21359
847.972	21306
848.108	21454
848.244	21431
848.379	21340
848.515	21370
848.65	21146
848.786	21279
848.921	21279
849.057	21302
849.192	21340
849.328	21180
849.463	21230
849.598	21294
849.734	21096
849.869	21058
850.004	20941
850.14	21055
850.275	21146
850.41	20990
850.545	21043
850.68	20937
850.815	21036
850.95	21039
851.085	21268
851.22	21131
851.355	20948
851.49	21032
851.625	20929
851.76	20929
851.895	21055
852.03	20986
852.165	21123
852.299	21055
852.434	21093
852.569	21013
852.703	20979
852.838	21047
852.973	21169
853.107	20982
853.242	20960
853.376	20918
853.511	20705
853.645	20727
853.78	20895
853.914	20872
854.048	20739
854.183	20830
854.317	20880
854.451	20998
854.585	20849
854.72	20838
854.854	20925
854.988	20746
855.122	20765
855.256	20697
855.39	20788
855.524	20944
855.658	20910
855.792	20807
855.926	20762
856.06	20864
856.194	20834
856.327	20746
856.461	20792
856.595	20823
856.729	20864
856.862	20880
856.996	20842
857.13	20876
857.263	20982
857.397	21028
857.53	20727
857.664	21009
857.797	20929
857.931	20815
858.064	20868
858.197	20944
858.331	20804
858.464	20807
858.597	20819
858.731	20796
858.864	20678
858.997	20811
859.13	20804
859.263	20925
859.396	20899
859.529	20807
859.662	20720
859.795	20678
859.928	20800
860.061	21032
860.194	21089
860.327	20842
860.46	20845
860.592	20918
860.725	21017
860.858	21051
860.99	20785
861.123	20853
861.256	20655
861.388	20693
861.521	21447
861.653	20651
861.786	20758
861.918	20663
862.05	20708
862.183	20746
862.315	20754
862.447	20826
862.58	20731
862.712	20670
862.844	20507
862.976	20552
863.108	20720
863.24	21218
863.372	20514
863.504	20530
863.636	20541
863.768	20651
863.9	20587
864.032	20484
864.164	20450
864.296	20514
864.428	20686
864.559	20571
864.691	20552
864.823	20461
864.954	20632
865.086	20457
865.217	20476
865.349	20446
865.48	20488
865.612	20450
865.743	20571
865.875	20370
866.006	20343
866.137	20393
866.269	20495
866.4	20396
866.531	20393
866.662	20362
866.793	20454
866.924	20385
867.055	20473
867.186	20434
867.317	20355
867.448	20202
867.579	20419
867.71	20377
867.841	20385
867.972	20415
868.103	20317
868.233	20370
868.364	20484
868.495	20617
868.625	20590
868.756	20693
868.886	20598
869.017	20648
869.147	20682
869.278	20682
869.408	20587
869.539	20587
869.669	20632
869.799	20655
869.929	20804
870.06	20739
870.19	21047
870.32	21039
870.45	20815
870.58	21039
870.71	21161
870.84	21058
870.97	20902
871.1	21077
871.23	21351
871.36	21131
871.489	21226
871.619	21272
871.749	21211
871.879	21317
872.008	21386
872.138	21321
872.267	21291
872.397	21093
872.526	21089
872.656	21047
872.785	21150
872.915	21245
873.044	21230
873.173	21188
873.303	21214
873.432	21241
873.561	21306
873.69	21344
873.819	21447
873.948	21351
874.077	21173
874.206	21154
874.335	21287
874.464	21344
874.593	21523
874.722	21462
874.851	21538
874.979	21564
875.108	21728
875.237	21561
875.365	21298
875.494	21599
875.623	21523
875.751	21504
875.88	21488
876.008	21694
876.136	21713
876.265	21915
876.393	21949
876.521	21888
876.65	21884
876.778	22017
876.906	21819
877.034	21930
877.162	21739
877.29	21895
877.418	21983
877.546	21755
877.674	21873
877.802	21743
877.93	21918
878.058	21778
878.185	21705
878.313	21804
878.441	21781
878.568	21625
878.696	21728
878.824	21857
878.951	21899
879.079	22082
879.206	22242
879.333	22025
879.461	21816
879.588	22090
879.715	21926
879.842	22246
879.97	21941
880.097	21690
880.224	21660
880.351	21778
880.478	21614
880.605	21724
880.732	21644
880.859	21846
880.986	21675
881.112	21690
881.239	21572
881.366	21511
881.493	21359
881.619	21214
881.746	21173
881.872	21283
881.999	21207
882.125	21268
882.252	21192
882.378	21192
882.505	21382
882.631	21169
882.757	21055
882.883	21017
883.01	21039
883.136	20944
883.262	20705
883.388	20826
883.514	21024
883.64	20979
883.766	20765
883.892	20689
884.018	20743
884.143	20933
884.269	21005
884.395	20625
884.52	20545
884.646	20648
884.772	20518
884.897	20537
885.023	20568
885.148	20682
885.274	20750
885.399	20788
885.524	20651
885.65	20625
885.775	20632
885.9	20644
886.025	20746
886.15	20689
886.275	20602
886.4	20446
886.525	20571
886.65	20640
886.775	20552
886.9	20705
887.025	20743
887.149	20583
887.274	20503
887.399	20298
887.523	20336
887.648	20446
887.773	20252
887.897	20454
888.021	20343
888.146	20301
888.27	20549
888.395	20503
888.519	20442
888.643	20427
888.767	20480
888.891	20278
889.015	20157
889.139	20180
889.263	20195
889.387	20305
889.511	20393
889.635	20332
889.759	20119
889.883	20161
890.006	20149
890.13	20263
890.254	20077
890.377	20138
890.501	19986
890.624	19788
890.748	19963
890.871	19826
890.995	19757
891.118	19651
891.241	19902
891.364	19761
891.488	19784
891.611	19769
891.734	19765
891.857	19868
891.98	19799
892.103	19738
892.226	19712
892.349	19727
892.471	19582
892.594	19616
892.717	19814
892.839	19491
892.962	19765
893.085	19712
893.207	19651
893.33	19563
893.452	19575
893.575	19605
893.697	19651
893.819	19765
893.941	19826
894.064	19894
894.186	19578
894.308	19548
894.43	19761
894.552	19807
894.674	19776
894.796	19578
894.918	19700
895.04	19639
895.161	19746
895.283	19761
895.405	19635
895.526	19700
895.648	19613
895.769	19700
895.891	19727
896.012	19742
896.134	19715
896.255	19670
896.376	19791
896.498	19674
896.619	19757
896.74	19704
896.861	19772
896.982	19967
897.103	20180
897.224	19928
897.345	19925
897.466	19890
897.587	19921
897.708	20008
897.828	19772
897.949	19757
898.07	19605
898.19	19906
898.311	20016
898.431	19871
898.552	19841
898.672	19883
898.792	19925
898.913	19868
899.033	19784
899.153	19818
899.273	19731
899.393	19518
899.513	19738
899.633	19799
899.753	19635
899.873	19605
899.993	19586
900.113	19533
900.232	19605
900.352	19544
900.472	19510
900.591	19426
900.711	19457
900.83	19388
900.95	19499
901.069	19499
901.189	19324
901.308	19069
901.427	19129
901.546	18970
901.665	19034
901.784	19038
901.904	18890
902.023	18711
902.141	18578
902.26	18604
902.379	18547
902.498	18509
902.617	18483
902.735	18627
902.854	18589
902.973	18536
903.091	18098
903.21	18243
903.328	18201
903.446	18251
903.565	18087
903.683	18015
903.801	17843
903.919	17939
904.038	17965
904.156	17855
904.274	17794
904.392	17828
904.51	17783
904.627	17771
904.745	17760
904.863	17771
904.981	17570
905.098	17452
905.216	17478
905.334	17528
905.451	17417
905.569	17482
905.686	17474
905.803	17436
905.921	17250
906.038	17337
906.155	17277
906.272	17151
906.389	17185
906.506	17006
906.623	16957
906.74	17067
906.857	16858
906.974	16858
907.091	17083
907.208	17147
907.324	17048
907.441	16881
907.557	16793
907.674	16774
907.79	16656
907.907	16683
908.023	16820
908.139	16748
908.256	16645
908.372	16656
908.488	16615
908.604	16504
908.72	16466
908.836	16455
908.952	16455
909.068	16455
909.184	16584
909.3	16523
909.415	16542
909.531	16478
909.647	16188
909.762	16150
909.878	16082
909.993	16131
910.108	16150
910.224	16177
910.339	16246
910.454	16032
910.57	16025
910.685	15903
910.8	16135
910.915	16238
911.03	16025
911.145	15751
911.259	15804
911.374	15728
911.489	15762
911.604	15759
911.718	15481
911.833	15557
911.947	15454
912.062	15332
912.176	15572
912.291	15568
912.405	15515
912.519	15720
912.633	15656
912.748	15610
912.862	15610
912.976	15275
913.09	15272
913.204	15298
913.318	15313
913.431	15370
913.545	15389
913.659	15473
913.772	15256
913.886	15176
914	15188
914.113	15218
914.226	15233
914.34	15230
914.453	14944
914.566	15146
914.68	15093
914.793	15066
914.906	14838
915.019	14815
915.132	14708
915.245	14720
915.358	14815
915.47	14773
915.583	14689
915.696	14807
915.809	14895
915.921	14788
916.034	14731
916.146	14701
916.259	14617
916.371	14773
916.483	14689
916.595	14560
916.708	14598
916.82	14571
916.932	14571
917.044	14545
917.156	14454
917.268	14473
917.38	14434
917.491	14408
917.603	14431
917.715	14480
917.826	14526
917.938	14385
918.049	14305
918.161	14415
918.272	14507
918.384	14457
918.495	14362
918.606	14256
918.717	14161
918.828	14244
918.939	14244
919.05	14119
919.161	14180
919.272	13887
919.383	14062
919.494	14256
919.604	14351
919.715	14187
919.826	14065
919.936	14115
920.047	14275
920.157	14115
920.267	14237
920.378	14172
920.488	14107
920.598	14415
920.708	14389
920.818	14214
920.928	14294
921.038	14301
921.148	14450
921.258	14073
921.368	13967
921.477	13925
921.587	13887
921.697	13833
921.806	14020
921.916	13761
922.025	13681
922.134	13575
922.244	13575
922.353	13499
922.462	13430
922.571	13365
922.68	13301
922.789	13228
922.898	13232
923.007	13194
923.116	13274
923.224	13255
923.333	13244
923.442	13110
923.55	13065
923.659	13038
923.767	13160
923.876	13038
923.984	12985
924.092	12886
924.201	13012
924.309	12996
924.417	13023
924.525	12916
924.633	12840
924.741	13620
924.849	12650
924.956	12848
925.064	12741
925.172	12570
925.279	12582
925.387	12757
925.494	12741
925.602	12772
925.709	12627
925.816	12604
925.924	12620
926.031	12741
926.138	12639
926.245	12700
926.352	12536
926.459	12650
926.566	12570
926.673	12448
926.779	12346
926.886	12391
926.993	12251
927.099	12266
927.206	12136
927.312	12144
927.419	12235
927.525	12194
927.631	12304
927.737	12083
927.843	12064
927.95	11946
928.056	12034
928.162	12098
928.267	12072
928.373	12601
928.479	12171
928.585	11878
928.69	11942
928.796	12030
928.901	11904
929.007	11733
929.112	11916
929.218	11893
929.323	11817
929.428	11752
929.533	11813
929.638	11741
929.743	11653
929.848	11805
929.953	11767
930.058	11554
930.163	11429
930.267	11543
930.372	11623
930.477	11341
930.581	11710
930.685	11524
930.79	11379
930.894	11364
930.998	11326
931.103	11467
931.207	11067
931.311	11022
931.415	10987
931.519	10824
931.623	10767
