Data from test_V78500241_3097.txt Node
Date: Fri Mar 25 15:31:25 CST 2022
User: usil
Spectrometer: V785-0024
Trigger mode: 0
Integration Time (sec): 4.000000E-1
Scans to average: 1
Nonlinearity correction enabled: false
Boxcar width: 0
Storing dark spectrum: false
XAxis mode: Wavelengths
Number of Pixels in Spectrum: 1024
>>>>>Begin Spectral Data<<<<<
801.071	26804
801.214	26670
801.356	26400
801.499	26381
801.641	26248
801.783	26400
801.926	26317
802.068	26309
802.211	26267
802.353	26244
802.496	26096
802.638	25970
802.78	25921
802.923	25795
803.065	25780
803.208	25833
803.35	25879
803.492	26027
803.635	26145
803.777	26077
803.919	26115
804.061	26358
804.204	26180
804.346	26039
804.488	25936
804.63	25982
804.773	25986
804.915	26122
805.057	26225
805.199	25974
805.341	26065
805.483	26248
805.626	26256
805.768	26115
805.91	26084
806.052	26153
806.194	26046
806.336	26313
806.478	26191
806.62	26096
806.762	26210
806.904	26294
807.046	26720
807.188	26629
807.33	26632
807.472	26659
807.614	26469
807.756	26522
807.898	26332
808.04	26301
808.182	26252
808.324	26358
808.465	26465
808.607	26549
808.749	26659
808.891	26785
809.033	26948
809.174	26765
809.316	26701
809.458	26693
809.6	26750
809.741	26868
809.883	26842
810.025	26925
810.166	26982
810.308	27043
810.45	26952
810.591	26887
810.733	26735
810.875	26606
811.016	26598
811.158	26609
811.299	26716
811.441	26864
811.582	26864
811.724	26655
811.865	26697
812.007	26606
812.148	26617
812.29	26693
812.431	26861
812.573	26940
812.714	26998
812.855	27100
812.997	27408
813.138	27450
813.279	27302
813.421	27230
813.562	27180
813.703	26979
813.845	26925
813.986	26575
814.127	26427
814.268	26248
814.41	26431
814.551	26408
814.692	26336
814.833	26298
814.974	26320
815.115	26282
815.256	26195
815.397	26240
815.539	26332
815.68	26183
815.821	26012
815.962	26259
816.103	26100
816.244	25871
816.385	25913
816.526	25944
816.666	25883
816.807	25605
816.948	25605
817.089	25715
817.23	25693
817.371	25575
817.512	25620
817.653	25537
817.793	25521
817.934	25662
818.075	25655
818.216	25655
818.356	25632
818.497	25502
818.638	25479
818.778	25259
818.919	25400
819.06	25491
819.2	25472
819.341	25605
819.481	25540
819.622	25628
819.762	26005
819.903	25864
820.043	25814
820.184	25700
820.324	25734
820.465	25708
820.605	25708
820.746	25670
820.886	25491
821.026	25693
821.167	25472
821.307	25708
821.447	25655
821.588	25518
821.728	25495
821.868	25240
822.008	25103
822.149	25099
822.289	25065
822.429	24806
822.569	24791
822.709	24726
822.849	24665
822.99	24540
823.13	24532
823.27	24467
823.41	24353
823.55	24270
823.69	24300
823.83	24437
823.97	24319
824.11	24190
824.25	24133
824.389	24235
824.529	24296
824.669	24262
824.809	24277
824.949	24216
825.089	24216
825.228	24258
825.368	24136
825.508	24068
825.648	24030
825.787	24102
825.927	24167
826.067	24034
826.206	24049
826.346	24030
826.485	24136
826.625	24003
826.765	24209
826.904	24026
827.044	23726
827.183	23923
827.323	23771
827.462	23817
827.601	23634
827.741	23847
827.88	23802
828.02	23627
828.159	23741
828.298	23771
828.437	23802
828.577	23828
828.716	23821
828.855	23634
828.994	23512
829.134	23554
829.273	23543
829.412	23482
829.551	23383
829.69	23448
829.829	23482
829.968	23623
830.107	23596
830.246	23535
830.385	23402
830.524	23353
830.663	23239
830.802	23223
830.941	23242
831.08	23064
831.219	23185
831.357	23212
831.496	23391
831.635	23147
831.774	23006
831.913	23010
832.051	22934
832.19	22744
832.329	22885
832.467	22786
832.606	22710
832.744	22736
832.883	22721
833.022	22831
833.16	22748
833.299	22828
833.437	22866
833.576	22843
833.714	22778
833.852	22889
833.991	22801
834.129	22923
834.267	22881
834.406	22911
834.544	22866
834.682	22816
834.821	22763
834.959	23102
835.097	22717
835.235	22736
835.373	22869
835.511	22835
835.65	22835
835.788	22672
835.926	22466
836.064	22466
836.202	22550
836.34	22683
836.478	22706
836.615	22683
836.753	22641
836.891	22767
837.029	22649
837.167	22740
837.305	22500
837.443	22687
837.58	22451
837.718	22641
837.856	22573
837.993	22413
838.131	22516
838.269	22386
838.406	22409
838.544	22295
838.681	22188
838.819	22093
838.956	21987
839.094	21937
839.231	22006
839.369	22181
839.506	22424
839.643	22181
839.781	22063
839.918	21892
840.055	21937
840.193	21953
840.33	21945
840.467	21876
840.604	21991
840.742	22265
840.879	21865
841.016	21861
841.153	21937
841.29	21949
841.427	22044
841.564	21979
841.701	21876
841.838	21671
841.975	21793
842.112	21789
842.249	21819
842.385	21793
842.522	21835
842.659	21880
842.796	21713
842.933	21667
843.069	21576
843.206	21709
843.343	21797
843.479	21724
843.616	21690
843.752	21378
843.889	21458
844.025	21599
844.162	21435
844.298	21534
844.435	21348
844.571	21393
844.708	21504
844.844	21641
844.98	21469
845.117	21519
845.253	21428
845.389	21340
845.525	21397
845.661	21348
845.798	21214
845.934	21272
846.07	21218
846.206	21340
846.342	21279
846.478	21207
846.614	20948
846.75	20853
846.886	21070
847.022	21062
847.158	21043
847.294	21020
847.429	20998
847.565	20906
847.701	21062
847.837	20708
847.972	20731
848.108	20678
848.244	20842
848.379	20583
848.515	20587
848.65	20705
848.786	20492
848.921	20590
849.057	20735
849.192	20530
849.328	20476
849.463	20648
849.598	20446
849.734	20427
849.869	20438
850.004	20415
850.14	20366
850.275	20309
850.41	20145
850.545	20214
850.68	20298
850.815	20301
850.95	20404
851.085	20552
851.22	20492
851.355	20229
851.49	20275
851.625	20267
851.76	20347
851.895	20343
852.03	20248
852.165	20374
852.299	20366
852.434	20343
852.569	20374
852.703	20259
852.838	20355
852.973	20400
853.107	20438
853.242	20229
853.376	20092
853.511	19993
853.645	20180
853.78	20161
853.914	20054
854.048	20103
854.183	20062
854.317	20271
854.451	20275
854.585	20199
854.72	20164
854.854	20195
854.988	20122
855.122	20142
855.256	20096
855.39	20180
855.524	20176
855.658	20122
855.792	20142
855.926	20077
856.06	20077
856.194	20149
856.327	20100
856.461	20107
856.595	20161
856.729	20092
856.862	20218
856.996	20199
857.13	20290
857.263	20176
857.397	20134
857.53	20100
857.664	20157
857.797	20138
857.931	20282
858.064	20282
858.197	20100
858.331	20073
858.464	20157
858.597	19978
858.731	20107
858.864	20168
858.997	20126
859.13	20115
859.263	20077
859.396	20263
859.529	20035
859.662	20008
859.795	20073
859.928	20168
860.061	20278
860.194	20240
860.327	20130
860.46	20134
860.592	20157
860.725	20298
860.858	20191
860.99	19993
861.123	20081
861.256	20081
861.388	20122
861.521	20667
861.653	20115
861.786	19913
861.918	19989
862.05	20111
862.183	20065
862.315	20172
862.447	20229
862.58	20062
862.712	19997
862.844	19868
862.976	19970
863.108	19826
863.24	20233
863.372	19753
863.504	19818
863.636	19811
863.768	19902
863.9	19830
864.032	19887
864.164	19746
864.296	19970
864.428	19799
864.559	19811
864.691	19989
864.823	19936
864.954	19925
865.086	19864
865.217	19769
865.349	19514
865.48	19837
865.612	19803
865.743	19887
865.875	19681
866.006	19734
866.137	19814
866.269	19753
866.4	19791
866.531	19685
866.662	19685
866.793	19704
866.924	19655
867.055	19818
867.186	19898
867.317	19708
867.448	19628
867.579	19616
867.71	19693
867.841	19635
867.972	19712
868.103	19693
868.233	19757
868.364	19715
868.495	19742
868.625	19898
868.756	19997
868.886	19894
869.017	19967
869.147	20088
869.278	20122
869.408	19959
869.539	19883
869.669	20035
869.799	19986
869.929	20115
870.06	20039
870.19	20237
870.32	20157
870.45	20324
870.58	20233
870.71	20457
870.84	20522
870.97	20317
871.1	20415
871.23	20541
871.36	20499
871.489	20461
871.619	20412
871.749	20636
871.879	20476
872.008	20644
872.138	20655
872.267	20682
872.397	20400
872.526	20336
872.656	20450
872.785	20419
872.915	20552
873.044	20651
873.173	20545
873.303	20697
873.432	20598
873.561	20693
873.69	20587
873.819	20655
873.948	20682
874.077	20438
874.206	20431
874.335	20560
874.464	20674
874.593	20762
874.722	20788
874.851	20887
874.979	20777
875.108	20971
875.237	20781
875.365	20769
875.494	20838
875.623	20952
875.751	20804
875.88	20765
876.008	20933
876.136	21020
876.265	21321
876.393	21340
876.521	21359
876.65	21291
876.778	21294
876.906	21108
877.034	21245
877.162	21211
877.29	21089
877.418	21192
877.546	21264
877.674	21146
877.802	21150
877.93	21127
878.058	21142
878.185	21108
878.313	21199
878.441	21119
878.568	20986
878.696	21116
878.824	21256
878.951	21264
879.079	21317
879.206	21515
879.333	21313
879.461	21256
879.588	21252
879.715	21287
879.842	21500
879.97	21203
880.097	21009
880.224	20956
880.351	21142
880.478	21009
880.605	20883
880.732	20982
880.859	21192
880.986	20956
881.112	20994
881.239	20895
881.366	20941
881.493	20663
881.619	20636
881.746	20571
881.872	20613
881.999	20575
882.125	20545
882.252	20503
882.378	20530
882.505	20792
882.631	20480
882.757	20317
882.883	20343
883.01	20320
883.136	20351
883.262	20103
883.388	20206
883.514	20488
883.64	20377
883.766	20218
883.892	20096
884.018	20161
884.143	20161
884.269	20301
884.395	20092
884.52	19974
884.646	20077
884.772	19871
884.897	19932
885.023	20016
885.148	19947
885.274	20096
885.399	19993
885.524	20031
885.65	19936
885.775	20065
885.9	19989
886.025	20008
886.15	20092
886.275	19925
886.4	19898
886.525	19925
886.65	19757
886.775	19814
886.9	19993
887.025	20153
887.149	19928
887.274	19822
887.399	19696
887.523	19753
887.648	19670
887.773	19708
887.897	19845
888.021	19803
888.146	19674
888.27	19753
888.395	19795
888.519	19780
888.643	19757
888.767	19753
888.891	19670
889.015	19658
889.139	19647
889.263	19514
889.387	19685
889.511	19769
889.635	19552
889.759	19495
889.883	19388
890.006	19635
890.13	19635
890.254	19521
890.377	19533
890.501	19358
890.624	19251
890.748	19369
890.871	19217
890.995	19084
891.118	19095
891.241	19225
891.364	19183
891.488	19198
891.611	19015
891.734	19103
891.857	19228
891.98	19179
892.103	19217
892.226	19187
892.349	19091
892.471	18977
892.594	19038
892.717	19034
892.839	19099
892.962	19107
893.085	19202
893.207	19088
893.33	18932
893.452	19046
893.575	19069
893.697	19019
893.819	19308
893.941	19168
894.064	19259
894.186	19038
894.308	18981
894.43	19164
894.552	19255
894.674	19228
894.796	19004
894.918	19080
895.04	19091
895.161	19171
895.283	19141
895.405	19050
895.526	19114
895.648	19031
895.769	19209
895.891	19122
896.012	19095
896.134	19084
896.255	19034
896.376	19053
896.498	19114
896.619	19084
896.74	18977
896.861	19133
896.982	19544
897.103	19533
897.224	19289
897.345	19331
897.466	19183
897.587	19350
897.708	19438
897.828	19339
897.949	19179
898.07	19012
898.19	19232
898.311	19388
898.431	19244
898.552	19343
898.672	19381
898.792	19369
898.913	19438
899.033	19198
899.153	19091
899.273	19023
899.393	19122
899.513	19088
899.633	19160
899.753	19255
899.873	19023
899.993	19107
900.113	19107
900.232	19122
900.352	18989
900.472	18897
900.591	18806
900.711	18920
900.83	18852
900.95	19008
901.069	18951
901.189	18814
901.308	18593
901.427	18509
901.546	18532
901.665	18544
901.784	18528
901.904	18342
902.023	18304
902.141	18121
902.26	18038
902.379	17965
902.498	17961
902.617	17950
902.735	18060
902.854	17901
902.973	17984
903.091	17813
903.21	17665
903.328	17638
903.446	17573
903.565	17608
903.683	17501
903.801	17356
903.919	17524
904.038	17478
904.156	17315
904.274	17391
904.392	17299
904.51	17254
904.627	17220
904.745	17372
904.863	17353
904.981	17037
905.098	16915
905.216	17060
905.334	17052
905.451	16957
905.569	16919
905.686	17079
905.803	16831
905.921	16881
906.038	16843
906.155	16812
906.272	16607
906.389	16702
906.506	16436
906.623	16489
906.74	16466
906.857	16344
906.974	16443
907.091	16611
907.208	16519
907.324	16573
907.441	16390
907.557	16291
907.674	16268
907.79	16166
907.907	16249
908.023	16325
908.139	16135
908.256	16169
908.372	16051
908.488	16040
908.604	15998
908.72	15930
908.836	15926
908.952	15918
909.068	15953
909.184	16078
909.3	15964
909.415	16040
909.531	16021
909.647	15739
909.762	15709
909.878	15587
909.993	15682
910.108	15690
910.224	15564
910.339	15686
910.454	15599
910.57	15466
910.685	15378
910.8	15641
910.915	15667
911.03	15431
911.145	15317
911.259	15283
911.374	15313
911.489	15214
911.604	15131
911.718	15047
911.833	15043
911.947	14944
912.062	14906
912.176	15074
912.291	15009
912.405	15085
912.519	15302
912.633	15355
912.748	15024
912.862	14971
912.976	14830
913.09	14682
913.204	14830
913.318	14853
913.431	15036
913.545	14990
913.659	14899
913.772	14777
913.886	14804
914	14625
914.113	14705
914.226	14792
914.34	14750
914.453	14606
914.566	14758
914.68	14598
914.793	14541
914.906	14351
915.019	14305
915.132	14259
915.245	14202
915.358	14301
915.47	14317
915.583	14366
915.696	14332
915.809	14355
915.921	14385
916.034	14286
916.146	14168
916.259	14142
916.371	14298
916.483	14233
916.595	14176
916.708	14168
916.82	14164
916.932	14115
917.044	14218
917.156	14031
917.268	13982
917.38	14020
917.491	13932
917.603	14027
917.715	14172
917.826	13993
917.938	13955
918.049	13860
918.161	13974
918.272	14088
918.384	14145
918.495	14031
918.606	13780
918.717	13681
918.828	13776
918.939	13784
919.05	13620
919.161	13715
919.272	13529
919.383	13575
919.494	13841
919.604	13902
919.715	13772
919.826	13670
919.936	13693
920.047	13784
920.157	13753
920.267	13864
920.378	13715
920.488	13700
920.598	13921
920.708	13906
920.818	13887
920.928	13849
921.038	13989
921.148	14096
921.258	13788
921.368	13685
921.477	13441
921.587	13464
921.697	13312
921.806	13487
921.916	13407
922.025	13209
922.134	13198
922.244	13088
922.353	13145
922.462	13023
922.571	12962
922.68	12726
922.789	12878
922.898	12795
923.007	12681
923.116	12753
923.224	12760
923.333	12768
923.442	12642
923.55	12528
923.659	12642
923.767	12688
923.876	12639
923.984	12566
924.092	12555
924.201	12551
924.309	12582
924.417	12631
924.525	12475
924.633	12509
924.741	13441
924.849	12258
924.956	12426
925.064	12273
925.172	12296
925.279	12216
925.387	12311
925.494	12239
925.602	12338
925.709	12357
925.816	12178
925.924	12201
926.031	12300
926.138	12194
926.245	12262
926.352	12057
926.459	12270
926.566	12330
926.673	12133
926.779	12003
926.886	12022
926.993	11855
927.099	11855
927.206	11855
927.312	11722
927.419	11805
927.525	11756
927.631	11847
927.737	11821
927.843	11695
927.95	11566
928.056	11703
928.162	11649
928.267	11767
928.373	12296
928.479	11756
928.585	11455
928.69	11695
928.796	11684
928.901	11535
929.007	11383
929.112	11573
929.218	11596
929.323	11452
929.428	11448
929.533	11528
929.638	11360
929.743	11395
929.848	11463
929.953	11391
930.058	11307
930.163	11155
930.267	11162
930.372	11307
930.477	11136
930.581	11337
930.685	11170
930.79	11041
930.894	11052
930.998	11052
931.103	11185
931.207	10816
931.311	10679
931.415	10649
931.519	10375
931.623	10447
