Data from test_V78500241_3432.txt Node
Date: Fri Mar 25 15:33:45 CST 2022
User: usil
Spectrometer: V785-0024
Trigger mode: 0
Integration Time (sec): 4.000000E-1
Scans to average: 1
Nonlinearity correction enabled: false
Boxcar width: 0
Storing dark spectrum: false
XAxis mode: Wavelengths
Number of Pixels in Spectrum: 1024
>>>>>Begin Spectral Data<<<<<
801.071	27150
801.214	27188
801.356	26990
801.499	26872
801.641	26777
801.783	26838
801.926	26788
802.068	26750
802.211	26632
802.353	26655
802.496	26533
802.638	26522
802.78	26438
802.923	26248
803.065	26358
803.208	26400
803.35	26465
803.492	26590
803.635	26590
803.777	26488
803.919	26465
804.061	26830
804.204	26571
804.346	26560
804.488	26450
804.63	26484
804.773	26457
804.915	26579
805.057	26689
805.199	26613
805.341	26526
805.483	26750
805.626	26667
805.768	26556
805.91	26712
806.052	26686
806.194	26659
806.336	26830
806.478	26686
806.62	26655
806.762	26811
806.904	27005
807.046	27226
807.188	27100
807.33	27192
807.472	27222
807.614	26899
807.756	26956
807.898	26944
808.04	26891
808.182	26948
808.324	26990
808.465	27009
808.607	27176
808.749	27222
808.891	27264
809.033	27310
809.174	27245
809.316	27302
809.458	27325
809.6	27340
809.741	27435
809.883	27302
810.025	27534
810.166	27542
810.308	27523
810.45	27507
810.591	27481
810.733	27310
810.875	27146
811.016	27116
811.158	27032
811.299	27329
811.441	27504
811.582	27408
811.724	27321
811.865	27032
812.007	27233
812.148	27317
812.29	27313
812.431	27466
812.573	27462
812.714	27660
812.855	27838
812.997	27747
813.138	28010
813.279	27804
813.421	27854
813.562	27576
813.703	27648
813.845	27348
813.986	27211
814.127	26982
814.268	26929
814.41	26872
814.551	26899
814.692	26940
814.833	26842
814.974	26861
815.115	27009
815.256	26716
815.397	26842
815.539	26765
815.68	26743
815.821	26663
815.962	26754
816.103	26708
816.244	26442
816.385	26552
816.526	26507
816.666	26313
816.807	26195
816.948	26343
817.089	26218
817.23	26332
817.371	26130
817.512	26214
817.653	26229
817.793	26138
817.934	26168
818.075	26259
818.216	26218
818.356	26092
818.497	26039
818.638	25753
818.778	25883
818.919	25902
819.06	25925
819.2	25970
819.341	26119
819.481	26290
819.622	26339
819.762	26533
819.903	26469
820.043	26427
820.184	26195
820.324	26259
820.465	26347
820.605	26275
820.746	26259
820.886	26069
821.026	26058
821.167	26100
821.307	26313
821.447	26054
821.588	26027
821.728	26088
821.868	25769
822.008	25620
822.149	25662
822.289	25563
822.429	25369
822.569	25331
822.709	25438
822.849	25270
822.99	25198
823.13	25114
823.27	25107
823.41	25042
823.55	25038
823.69	24783
823.83	24920
823.97	24947
824.11	24772
824.25	24779
824.389	24806
824.529	24722
824.669	24795
824.809	24745
824.949	24863
825.089	24867
825.228	24810
825.368	24642
825.508	24654
825.648	24623
825.787	24760
825.927	24703
826.067	24642
826.206	24669
826.346	24791
826.485	24707
826.625	24764
826.765	24722
826.904	24776
827.044	24414
827.183	24380
827.323	24304
827.462	24410
827.601	24330
827.741	24330
827.88	24414
828.02	24258
828.159	24437
828.298	24346
828.437	24380
828.577	24251
828.716	24380
828.855	24296
828.994	24117
829.134	24038
829.273	24133
829.412	24197
829.551	23973
829.69	24079
829.829	24064
829.968	24083
830.107	24216
830.246	23999
830.385	24060
830.524	23973
830.663	23843
830.802	23779
830.941	23653
831.08	23661
831.219	23741
831.357	23707
831.496	23908
831.635	23638
831.774	23600
831.913	23615
832.051	23615
832.19	23520
832.329	23478
832.467	23326
832.606	23330
832.744	23520
832.883	23444
833.022	23360
833.16	23360
833.299	23459
833.437	23459
833.576	23493
833.714	23379
833.852	23505
833.991	23551
834.129	23440
834.267	23471
834.406	23414
834.544	23505
834.682	23589
834.821	23395
834.959	23520
835.097	23436
835.235	23512
835.373	23520
835.511	23459
835.65	23353
835.788	23391
835.926	22984
836.064	23159
836.202	23037
836.34	23376
836.478	23425
836.615	23235
836.753	23303
836.891	23356
837.029	23356
837.167	23303
837.305	23265
837.443	23178
837.58	23105
837.718	23227
837.856	23174
837.993	23056
838.131	23128
838.269	22995
838.406	22976
838.544	22976
838.681	22869
838.819	22801
838.956	22618
839.094	22668
839.231	22672
839.369	22744
839.506	23037
839.643	23014
839.781	22622
839.918	22542
840.055	22546
840.193	22531
840.33	22599
840.467	22500
840.604	22584
840.742	22858
840.879	22318
841.016	22485
841.153	22523
841.29	22713
841.427	22447
841.564	22462
841.701	22580
841.838	22428
841.975	22497
842.112	22481
842.249	22360
842.385	22325
842.522	22519
842.659	22371
842.796	22238
842.933	22215
843.069	22363
843.206	22314
843.343	22466
843.479	22443
843.616	22333
843.752	22063
843.889	22143
844.025	22268
844.162	22021
844.298	22211
844.435	22124
844.571	21903
844.708	22207
844.844	22280
844.98	22253
845.117	22128
845.253	22032
845.389	21880
845.525	21964
845.661	21953
845.798	21861
845.934	21964
846.07	21827
846.206	21781
846.342	21903
846.478	21876
846.614	21637
846.75	21618
846.886	21515
847.022	21576
847.158	21599
847.294	21690
847.429	21663
847.565	21504
847.701	21846
847.837	21237
847.972	21283
848.108	21374
848.244	21367
848.379	21173
848.515	21184
848.65	21173
848.786	21116
848.921	21070
849.057	21249
849.192	21245
849.328	21180
849.463	21123
849.598	21252
849.734	20975
849.869	20921
850.004	20990
850.14	20967
850.275	20952
850.41	20826
850.545	20929
850.68	20891
850.815	21081
850.95	20891
851.085	21146
851.22	20979
851.355	20967
851.49	20925
851.625	20864
851.76	20796
851.895	20815
852.03	20902
852.165	20910
852.299	20990
852.434	21005
852.569	20906
852.703	21013
852.838	20990
852.973	21119
853.107	21062
853.242	20872
853.376	20807
853.511	20686
853.645	20689
853.78	20834
853.914	20762
854.048	20640
854.183	20697
854.317	20785
854.451	21108
854.585	20872
854.72	20655
854.854	20838
854.988	20773
855.122	20735
855.256	20655
855.39	20678
855.524	20864
855.658	20792
855.792	20735
855.926	20785
856.06	20876
856.194	20804
856.327	20735
856.461	20606
856.595	20720
856.729	20834
856.862	20819
856.996	20769
857.13	20876
857.263	20861
857.397	20887
857.53	20765
857.664	20925
857.797	20781
857.931	20899
858.064	20830
858.197	20902
858.331	20792
858.464	20674
858.597	20651
858.731	20697
858.864	20743
858.997	20629
859.13	20743
859.263	20708
859.396	20853
859.529	20629
859.662	20617
859.795	20659
859.928	20857
860.061	20891
860.194	21009
860.327	20746
860.46	20804
860.592	20819
860.725	20956
860.858	20941
860.99	20754
861.123	20716
861.256	20697
861.388	20720
861.521	21321
861.653	20480
861.786	20511
861.918	20617
862.05	20708
862.183	20708
862.315	20686
862.447	20819
862.58	20735
862.712	20469
862.844	20564
862.976	20602
863.108	20552
863.24	20891
863.372	20511
863.504	20446
863.636	20457
863.768	20419
863.9	20545
864.032	20469
864.164	20495
864.296	20492
864.428	20549
864.559	20461
864.691	20499
864.823	20434
864.954	20473
865.086	20427
865.217	20366
865.349	20256
865.48	20370
865.612	20286
865.743	20431
865.875	20320
866.006	20389
866.137	20434
866.269	20396
866.4	20404
866.531	20301
866.662	20187
866.793	20355
866.924	20324
867.055	20271
867.186	20370
867.317	20214
867.448	20313
867.579	20271
867.71	20317
867.841	20172
867.972	20343
868.103	20263
868.233	20278
868.364	20256
868.495	20488
868.625	20590
868.756	20648
868.886	20434
869.017	20492
869.147	20507
869.278	20545
869.408	20533
869.539	20629
869.669	20617
869.799	20473
869.929	20727
870.06	20674
870.19	20823
870.32	20895
870.45	20918
870.58	20941
870.71	21047
870.84	21100
870.97	20933
871.1	20891
871.23	21157
871.36	21104
871.489	21017
871.619	21096
871.749	21081
871.879	21192
872.008	21230
872.138	21161
872.267	21237
872.397	21047
872.526	21062
872.656	21017
872.785	21062
872.915	21237
873.044	21237
873.173	21093
873.303	21154
873.432	21279
873.561	21230
873.69	21226
873.819	21211
873.948	21408
874.077	21260
874.206	21142
874.335	21176
874.464	21332
874.593	21530
874.722	21397
874.851	21351
874.979	21351
875.108	21660
875.237	21336
875.365	21344
875.494	21382
875.623	21435
875.751	21386
875.88	21485
876.008	21545
876.136	21667
876.265	21892
876.393	21979
876.521	21926
876.65	21903
876.778	21854
876.906	21766
877.034	21819
877.162	21884
877.29	21762
877.418	21736
877.546	21819
877.674	21888
877.802	21800
877.93	21838
878.058	21797
878.185	21694
878.313	21713
878.441	21789
878.568	21576
878.696	21652
878.824	21785
878.951	21842
879.079	21953
879.206	22223
879.333	21941
879.461	21812
879.588	21857
879.715	21991
879.842	22253
879.97	21808
880.097	21728
880.224	21572
880.351	21618
880.478	21720
880.605	21576
880.732	21530
880.859	21907
880.986	21633
881.112	21511
881.239	21595
881.366	21351
881.493	21264
881.619	21188
881.746	21287
881.872	21207
881.999	21310
882.125	21077
882.252	21135
882.378	21165
882.505	21283
882.631	21066
882.757	21096
882.883	20895
883.01	20960
883.136	20762
883.262	20689
883.388	20754
883.514	20899
883.64	20921
883.766	20929
883.892	20731
884.018	20754
884.143	20834
884.269	20891
884.395	20625
884.52	20511
884.646	20583
884.772	20552
884.897	20446
885.023	20598
885.148	20651
885.274	20659
885.399	20693
885.524	20606
885.65	20629
885.775	20499
885.9	20644
886.025	20640
886.15	20682
886.275	20579
886.4	20473
886.525	20590
886.65	20507
886.775	20457
886.9	20674
887.025	20720
887.149	20492
887.274	20393
887.399	20347
887.523	20282
887.648	20278
887.773	20176
887.897	20275
888.021	20366
888.146	20210
888.27	20324
888.395	20492
888.519	20339
888.643	20370
888.767	20393
888.891	20290
889.015	20111
889.139	20210
889.263	20100
889.387	20237
889.511	20187
889.635	20301
889.759	20149
889.883	20081
890.006	20176
890.13	20248
890.254	20134
890.377	20107
890.501	19982
890.624	19925
890.748	19974
890.871	19864
890.995	19628
891.118	19639
891.241	19708
891.364	19772
891.488	19837
891.611	19723
891.734	19757
891.857	19753
891.98	19723
892.103	19776
892.226	19807
892.349	19708
892.471	19525
892.594	19647
892.717	19746
892.839	19609
892.962	19620
893.085	19670
893.207	19571
893.33	19445
893.452	19552
893.575	19757
893.697	19651
893.819	19769
893.941	19944
894.064	19841
894.186	19590
894.308	19438
894.43	19677
894.552	19811
894.674	19700
894.796	19563
894.918	19647
895.04	19628
895.161	19635
895.283	19655
895.405	19540
895.526	19620
895.648	19674
895.769	19719
895.891	19693
896.012	19712
896.134	19685
896.255	19674
896.376	19548
896.498	19670
896.619	19704
896.74	19643
896.861	19833
896.982	20103
897.103	20058
897.224	19978
897.345	19791
897.466	19879
897.587	19841
897.708	20001
897.828	19925
897.949	19753
898.07	19727
898.19	19723
898.311	19841
898.431	19761
898.552	19913
898.672	19947
898.792	19913
898.913	19803
899.033	19696
899.153	19761
899.273	19559
899.393	19666
899.513	19643
899.633	19655
899.753	19571
899.873	19601
899.993	19750
900.113	19510
900.232	19674
900.352	19510
900.472	19419
900.591	19343
900.711	19457
900.83	19388
900.95	19578
901.069	19449
901.189	19274
901.308	19042
901.427	19042
901.546	18932
901.665	18989
901.784	19019
901.904	18913
902.023	18757
902.141	18540
902.26	18490
902.379	18597
902.498	18452
902.617	18483
902.735	18639
902.854	18323
902.973	18517
903.091	18300
903.21	18224
903.328	18178
903.446	18136
903.565	18041
903.683	18049
903.801	17843
903.919	17893
904.038	17920
904.156	17843
904.274	17840
904.392	17805
904.51	17832
904.627	17783
904.745	17866
904.863	17802
904.981	17516
905.098	17429
905.216	17341
905.334	17478
905.451	17353
905.569	17383
905.686	17425
905.803	17444
905.921	17261
906.038	17349
906.155	17277
906.272	17254
906.389	17147
906.506	17022
906.623	17052
906.74	17037
906.857	16820
906.974	16911
907.091	16953
907.208	17067
907.324	17014
907.441	16843
907.557	16748
907.674	16664
907.79	16694
907.907	16725
908.023	16812
908.139	16679
908.256	16630
908.372	16615
908.488	16558
908.604	16485
908.72	16344
908.836	16417
908.952	16462
909.068	16443
909.184	16497
909.3	16405
909.415	16485
909.531	16348
909.647	16166
909.762	16246
909.878	16093
909.993	16185
910.108	16093
910.224	16059
910.339	16090
910.454	16021
910.57	15930
910.685	15850
910.8	16067
910.915	16188
911.03	15915
911.145	15785
911.259	15762
911.374	15770
911.489	15701
911.604	15595
911.718	15568
911.833	15561
911.947	15386
912.062	15370
912.176	15584
912.291	15519
912.405	15359
912.519	15709
912.633	15675
912.748	15542
912.862	15424
912.976	15233
913.09	15317
913.204	15306
913.318	15389
913.431	15428
913.545	15370
913.659	15310
913.772	15332
913.886	15127
914	15036
914.113	15146
914.226	15279
914.34	15154
914.453	15036
914.566	15100
914.68	15009
914.793	14975
914.906	14807
915.019	14735
915.132	14746
915.245	14727
915.358	14716
915.47	14602
915.583	14769
915.696	14682
915.809	14792
915.921	14872
916.034	14629
916.146	14663
916.259	14549
916.371	14625
916.483	14689
916.595	14537
916.708	14598
916.82	14621
916.932	14552
917.044	14473
917.156	14499
917.268	14473
917.38	14434
917.491	14324
917.603	14381
917.715	14431
917.826	14522
917.938	14343
918.049	14202
918.161	14400
918.272	14495
918.384	14530
918.495	14381
918.606	14218
918.717	14008
918.828	14309
918.939	14161
919.05	14126
919.161	14180
919.272	13989
919.383	14005
919.494	14199
919.604	14389
919.715	14191
919.826	13963
919.936	14058
920.047	14237
920.157	14180
920.267	14324
920.378	14225
920.488	14218
920.598	14275
920.708	14366
920.818	14259
920.928	14290
921.038	14446
921.148	14400
921.258	14134
921.368	14088
921.477	13883
921.587	13788
921.697	13799
921.806	13917
921.916	13689
922.025	13616
922.134	13571
922.244	13518
922.353	13647
922.462	13460
922.571	13377
922.68	13179
922.789	13228
922.898	13099
923.007	13175
923.116	13209
923.224	13217
923.333	13122
923.442	13084
923.55	12947
923.659	12977
923.767	12977
923.876	12859
923.984	13061
924.092	12882
924.201	12981
924.309	12909
924.417	12958
924.525	12833
924.633	12867
924.741	13818
924.849	12658
924.956	12825
925.064	12612
925.172	12566
925.279	12585
925.387	12616
925.494	12582
925.602	12734
925.709	12627
925.816	12483
925.924	12589
926.031	12688
926.138	12483
926.245	12639
926.352	12509
926.459	12692
926.566	12604
926.673	12490
926.779	12426
926.886	12391
926.993	12285
927.099	12239
927.206	12167
927.312	12144
927.419	12239
927.525	12194
927.631	12190
927.737	12110
927.843	11984
927.95	11912
928.056	12011
928.162	12079
928.267	12049
928.373	12601
928.479	12167
928.585	11866
928.69	11980
928.796	11996
928.901	11923
929.007	11737
929.112	11923
929.218	11843
929.323	11729
929.428	11752
929.533	11836
929.638	11691
929.743	11630
929.848	11737
929.953	11695
930.058	11573
930.163	11493
930.267	11478
930.372	11585
930.477	11467
930.581	11642
930.685	11512
930.79	11326
930.894	11311
930.998	11303
931.103	11467
931.207	11102
931.311	11071
931.415	10934
931.519	10782
931.623	10740
