Data from test_V78500241_1777.txt Node
Date: Fri Mar 25 15:22:13 CST 2022
User: usil
Spectrometer: V785-0024
Trigger mode: 0
Integration Time (sec): 4.000000E-1
Scans to average: 1
Nonlinearity correction enabled: false
Boxcar width: 0
Storing dark spectrum: false
XAxis mode: Wavelengths
Number of Pixels in Spectrum: 1024
>>>>>Begin Spectral Data<<<<<
801.071	28017
801.214	27964
801.356	27679
801.499	27557
801.641	27477
801.783	27420
801.926	27447
802.068	27629
802.211	27492
802.353	27454
802.496	27173
802.638	27062
802.78	27104
802.923	27211
803.065	27074
803.208	27062
803.35	27081
803.492	27313
803.635	27500
803.777	27249
803.919	27359
804.061	27774
804.204	27408
804.346	27283
804.488	27272
804.63	27397
804.773	27176
804.915	27481
805.057	27511
805.199	27344
805.341	27431
805.483	27530
805.626	27496
805.768	27355
805.91	27511
806.052	27606
806.194	27564
806.336	27690
806.478	27519
806.62	27367
806.762	27641
806.904	27945
807.046	28105
807.188	27899
807.33	27983
807.472	27964
807.614	27876
807.756	27838
807.898	27751
808.04	27816
808.182	27785
808.324	27808
808.465	27991
808.607	27972
808.749	28310
808.891	28173
809.033	28363
809.174	28265
809.316	27979
809.458	28097
809.6	28120
809.741	28200
809.883	28299
810.025	28405
810.166	28519
810.308	28306
810.45	28276
810.591	28242
810.733	28139
810.875	28135
811.016	28002
811.158	27953
811.299	28207
811.441	28169
811.582	28291
811.724	28010
811.865	27979
812.007	28150
812.148	28128
812.29	28238
812.431	28333
812.573	28413
812.714	28615
812.855	28687
812.997	28717
813.138	28790
813.279	28908
813.421	28729
813.562	28508
813.703	28516
813.845	28413
813.986	28116
814.127	27850
814.268	27934
814.41	27823
814.551	27903
814.692	27907
814.833	27747
814.974	27816
815.115	27785
815.256	27641
815.397	27709
815.539	27637
815.68	27599
815.821	27488
815.962	27637
816.103	27576
816.244	27523
816.385	27447
816.526	27435
816.666	27233
816.807	27173
816.948	27150
817.089	27211
817.23	27127
817.371	27135
817.512	27070
817.653	27222
817.793	27062
817.934	27100
818.075	27157
818.216	27188
818.356	27142
818.497	27081
818.638	26811
818.778	26769
818.919	26956
819.06	27051
819.2	26971
819.341	27024
819.481	27169
819.622	27233
819.762	27473
819.903	27389
820.043	27294
820.184	27131
820.324	27325
820.465	27241
820.605	27245
820.746	27287
820.886	27127
821.026	27169
821.167	27214
821.307	27359
821.447	27161
821.588	27058
821.728	27024
821.868	26724
822.008	26648
822.149	26522
822.289	26724
822.429	26336
822.569	26233
822.709	26362
822.849	26157
822.99	26016
823.13	26016
823.27	25978
823.41	25925
823.55	25841
823.69	25982
823.83	25966
823.97	25772
824.11	25719
824.25	25734
824.389	25803
824.529	25769
824.669	25750
824.809	25875
824.949	25890
825.089	25765
825.228	25738
825.368	25624
825.508	25715
825.648	25559
825.787	25613
825.927	25731
826.067	25635
826.206	25639
826.346	25639
826.485	25704
826.625	25632
826.765	25681
826.904	25658
827.044	25613
827.183	25415
827.323	25308
827.462	25400
827.601	25472
827.741	25377
827.88	25316
828.02	25206
828.159	25289
828.298	25316
828.437	25312
828.577	25308
828.716	25350
828.855	25263
828.994	25027
829.134	24989
829.273	25137
829.412	24996
829.551	24928
829.69	25080
829.829	25095
829.968	25065
830.107	25236
830.246	25065
830.385	25088
830.524	24951
830.663	24806
830.802	24859
830.941	24642
831.08	24528
831.219	24703
831.357	24776
831.496	24863
831.635	24540
831.774	24692
831.913	24479
832.051	24532
832.19	24505
832.329	24479
832.467	24414
832.606	24384
832.744	24338
832.883	24342
833.022	24357
833.16	24384
833.299	24429
833.437	24407
833.576	24517
833.714	24357
833.852	24521
833.991	24475
834.129	24479
834.267	24494
834.406	24441
834.544	24513
834.682	24525
834.821	24395
834.959	24486
835.097	24319
835.235	24441
835.373	24437
835.511	24365
835.65	24384
835.788	24277
835.926	24186
836.064	24095
836.202	23988
836.34	24395
836.478	24319
836.615	24178
836.753	24277
836.891	24235
837.029	24289
837.167	24174
837.305	24254
837.443	24041
837.58	24098
837.718	24228
837.856	24186
837.993	24110
838.131	24091
838.269	23843
838.406	24098
838.544	24068
838.681	23718
838.819	23630
838.956	23611
839.094	23577
839.231	23627
839.369	23767
839.506	23931
839.643	23707
839.781	23554
839.918	23501
840.055	23543
840.193	23520
840.33	23421
840.467	23429
840.604	23482
840.742	23699
840.879	23254
841.016	23425
841.153	23440
841.29	23562
841.427	23558
841.564	23459
841.701	23486
841.838	23440
841.975	23322
842.112	23337
842.249	23292
842.385	23060
842.522	23459
842.659	23204
842.796	23132
842.933	23143
843.069	23242
843.206	23098
843.343	23204
843.479	23334
843.616	23288
843.752	22980
843.889	23071
844.025	23193
844.162	22927
844.298	23128
844.435	22949
844.571	23022
844.708	23033
844.844	23216
844.98	23094
845.117	23075
845.253	22953
845.389	22843
845.525	22980
845.661	22809
845.798	22782
845.934	22850
846.07	22531
846.206	22816
846.342	22828
846.478	22599
846.614	22538
846.75	22379
846.886	22500
847.022	22535
847.158	22504
847.294	22466
847.429	22394
847.565	22478
847.701	22694
847.837	22207
847.972	22261
848.108	22322
848.244	22257
848.379	22181
848.515	21968
848.65	21968
848.786	21945
848.921	22067
849.057	22204
849.192	22086
849.328	22051
849.463	22086
849.598	21960
849.734	21994
849.869	21819
850.004	21823
850.14	21907
850.275	21766
850.41	21724
850.545	21713
850.68	21755
850.815	21774
850.95	21865
851.085	22074
851.22	21846
851.355	21838
851.49	21819
851.625	21918
851.76	21797
851.895	21713
852.03	21800
852.165	21865
852.299	21816
852.434	21983
852.569	21842
852.703	21781
852.838	21736
852.973	21991
853.107	22006
853.242	21736
853.376	21766
853.511	21572
853.645	21610
853.78	21797
853.914	21641
854.048	21561
854.183	21728
854.317	21778
854.451	21888
854.585	21625
854.72	21648
854.854	21728
854.988	21625
855.122	21739
855.256	21595
855.39	21629
855.524	21675
855.658	21823
855.792	21622
855.926	21781
856.06	21686
856.194	21709
856.327	21568
856.461	21587
856.595	21519
856.729	21610
856.862	21842
856.996	21671
857.13	21732
857.263	21686
857.397	21808
857.53	21701
857.664	21766
857.797	21728
857.931	21728
858.064	21675
858.197	21698
858.331	21648
858.464	21564
858.597	21408
858.731	21591
858.864	21595
858.997	21629
859.13	21561
859.263	21633
859.396	21846
859.529	21671
859.662	21709
859.795	21629
859.928	21606
860.061	21774
860.194	21774
860.327	21671
860.46	21698
860.592	21823
860.725	21846
860.858	21789
860.99	21812
861.123	21553
861.256	21622
861.388	21660
861.521	22428
861.653	21557
861.786	21367
861.918	21283
862.05	21595
862.183	21591
862.315	21629
862.447	21625
862.58	21530
862.712	21454
862.844	21325
862.976	21523
863.108	21439
863.24	21781
863.372	21294
863.504	21351
863.636	21317
863.768	21511
863.9	21287
864.032	21264
864.164	21279
864.296	21431
864.428	21443
864.559	21313
864.691	21466
864.823	21443
864.954	21325
865.086	21386
865.217	21355
865.349	21268
865.48	21146
865.612	21313
865.743	21351
865.875	21336
866.006	21237
866.137	21264
866.269	21176
866.4	21218
866.531	21233
866.662	21058
866.793	21169
866.924	21074
867.055	21306
867.186	21249
867.317	21306
867.448	21180
867.579	21184
867.71	21096
867.841	21154
867.972	21157
868.103	21230
868.233	21131
868.364	21222
868.495	21310
868.625	21408
868.756	21542
868.886	21412
869.017	21374
869.147	21576
869.278	21431
869.408	21329
869.539	21416
869.669	21481
869.799	21450
869.929	21530
870.06	21530
870.19	21709
870.32	21709
870.45	21838
870.58	21846
870.71	21922
870.84	21880
870.97	21781
871.1	21804
871.23	21964
871.36	22006
871.489	21991
871.619	21937
871.749	21994
871.879	22093
872.008	22063
872.138	22135
872.267	21991
872.397	21800
872.526	21774
872.656	21918
872.785	21876
872.915	22131
873.044	22120
873.173	21975
873.303	22131
873.432	22032
873.561	22013
873.69	22116
873.819	22158
873.948	22040
874.077	21930
874.206	22032
874.335	22029
874.464	22226
874.593	22356
874.722	22131
874.851	22230
874.979	22219
875.108	22242
875.237	22166
875.365	22230
875.494	22253
875.623	22200
875.751	22249
875.88	22276
876.008	22443
876.136	22447
876.265	22717
876.393	22801
876.521	22729
876.65	22721
876.778	22592
876.906	22557
877.034	22637
877.162	22694
877.29	22653
877.418	22626
877.546	22660
877.674	22596
877.802	22462
877.93	22634
878.058	22596
878.185	22462
878.313	22550
878.441	22653
878.568	22424
878.696	22660
878.824	22607
878.951	22668
879.079	22752
879.206	22854
879.333	22911
879.461	22679
879.588	22744
879.715	22691
879.842	22805
879.97	22675
880.097	22474
880.224	22535
880.351	22535
880.478	22500
880.605	22421
880.732	22352
880.859	22630
880.986	22478
881.112	22390
881.239	22363
881.366	22318
881.493	22086
881.619	22010
881.746	22025
881.872	22036
881.999	21892
882.125	21945
882.252	22139
882.378	22002
882.505	22013
882.631	21880
882.757	21728
882.883	21876
883.01	21648
883.136	21553
883.262	21595
883.388	21507
883.514	21800
883.64	21644
883.766	21553
883.892	21340
884.018	21538
884.143	21625
884.269	21603
884.395	21416
884.52	21424
884.646	21340
884.772	21317
884.897	21287
885.023	21344
885.148	21504
885.274	21412
885.399	21317
885.524	21466
885.65	21268
885.775	21363
885.9	21363
886.025	21458
886.15	21534
886.275	21389
886.4	21169
886.525	21272
886.65	21218
886.775	21192
886.9	21466
887.025	21633
887.149	21355
887.274	21218
887.399	21165
887.523	21203
887.648	21119
887.773	20998
887.897	21226
888.021	21207
888.146	21081
888.27	21291
888.395	21199
888.519	21093
888.643	21093
888.767	21085
888.891	21009
889.015	20883
889.139	21005
889.263	20811
889.387	21077
889.511	21100
889.635	20986
889.759	20754
889.883	20868
890.006	20906
890.13	21058
890.254	20792
890.377	20838
890.501	20579
890.624	20556
890.748	20743
890.871	20564
890.995	20495
891.118	20457
891.241	20434
891.364	20476
891.488	20590
891.611	20469
891.734	20488
891.857	20575
891.98	20427
892.103	20556
892.226	20492
892.349	20427
892.471	20263
892.594	20415
892.717	20423
892.839	20271
892.962	20286
893.085	20415
893.207	20377
893.33	20294
893.452	20317
893.575	20438
893.697	20351
893.819	20499
893.941	20541
894.064	20473
894.186	20355
894.308	20259
894.43	20393
894.552	20457
894.674	20454
894.796	20202
894.918	20343
895.04	20218
895.161	20518
895.283	20461
895.405	20282
895.526	20404
895.648	20298
895.769	20377
895.891	20370
896.012	20347
896.134	20294
896.255	20305
896.376	20256
896.498	20358
896.619	20438
896.74	20355
896.861	20537
896.982	20571
897.103	20781
897.224	20708
897.345	20632
897.466	20522
897.587	20587
897.708	20686
897.828	20514
897.949	20473
898.07	20492
898.19	20549
898.311	20651
898.431	20465
898.552	20530
898.672	20526
898.792	20754
898.913	20415
899.033	20473
899.153	20244
899.273	20252
899.393	20248
899.513	20404
899.633	20313
899.753	20298
899.873	20252
899.993	20317
900.113	20233
900.232	20263
900.352	20195
900.472	20195
900.591	19974
900.711	20180
900.83	19997
900.95	20180
901.069	20073
901.189	20027
901.308	19799
901.427	19712
901.546	19674
901.665	19655
901.784	19609
901.904	19449
902.023	19373
902.141	19179
902.26	19266
902.379	19274
902.498	19190
902.617	19129
902.735	19114
902.854	19145
902.973	19065
903.091	18947
903.21	18871
903.328	18821
903.446	18734
903.565	18559
903.683	18620
903.801	18547
903.919	18578
904.038	18544
904.156	18410
904.274	18395
904.392	18357
904.51	18372
904.627	18391
904.745	18445
904.863	18513
904.981	18239
905.098	18106
905.216	18007
905.334	18106
905.451	18053
905.569	18110
905.686	18064
905.803	18068
905.921	17840
906.038	17889
906.155	17965
906.272	17802
906.389	17745
906.506	17672
906.623	17680
906.74	17646
906.857	17535
906.974	17596
907.091	17695
907.208	17748
907.324	17653
907.441	17535
907.557	17322
907.674	17288
907.79	17235
907.907	17277
908.023	17284
908.139	17277
908.256	17231
908.372	17265
908.488	17204
908.604	17033
908.72	16999
908.836	17064
908.952	17128
909.068	17083
909.184	17090
909.3	17071
909.415	17071
909.531	17006
909.647	16850
909.762	16919
909.878	16706
909.993	16683
910.108	16691
910.224	16691
910.339	16683
910.454	16630
910.57	16584
910.685	16500
910.8	16748
910.915	16637
911.03	16592
911.145	16462
911.259	16337
911.374	16375
911.489	16177
911.604	16211
911.718	16093
911.833	16071
911.947	15968
912.062	15842
912.176	15998
912.291	16078
912.405	16097
912.519	16287
912.633	16360
912.748	16215
912.862	16021
912.976	15918
913.09	15774
913.204	15816
913.318	15930
913.431	16006
913.545	15964
913.659	16029
913.772	15755
913.886	15690
914	15644
914.113	15694
914.226	15804
914.34	15682
914.453	15485
914.566	15755
914.68	15519
914.793	15553
914.906	15302
915.019	15287
915.132	15351
915.245	15252
915.358	15245
915.47	15325
915.583	15348
915.696	15355
915.809	15447
915.921	15450
916.034	15195
916.146	15207
916.259	15233
916.371	15283
916.483	15237
916.595	15097
916.708	14971
916.82	15062
916.932	15051
917.044	14941
917.156	14994
917.268	15017
917.38	14971
917.491	14941
917.603	14895
917.715	14975
917.826	14906
917.938	14899
918.049	14811
918.161	14918
918.272	15131
918.384	15020
918.495	14937
918.606	14788
918.717	14659
918.828	14701
918.939	14655
919.05	14644
919.161	14648
919.272	14514
919.383	14469
919.494	14651
919.604	14804
919.715	14727
919.826	14552
919.936	14571
920.047	14644
920.157	14674
920.267	14792
920.378	14651
920.488	14610
920.598	14815
920.708	14914
920.818	14746
920.928	14754
921.038	14876
921.148	14792
921.258	14636
921.368	14488
921.477	14454
921.587	14355
921.697	14187
921.806	14377
921.916	14214
922.025	14027
922.134	13997
922.244	13951
922.353	13959
922.462	13894
922.571	13890
922.68	13616
922.789	13685
922.898	13636
923.007	13643
923.116	13738
923.224	13731
923.333	13487
923.442	13544
923.55	13457
923.659	13499
923.767	13483
923.876	13441
923.984	13544
924.092	13362
924.201	13468
924.309	13426
924.417	13411
924.525	13449
924.633	13289
924.741	14062
924.849	13088
924.956	13190
925.064	13057
925.172	13072
925.279	13103
925.387	13126
925.494	13091
925.602	13164
925.709	13126
925.816	12951
925.924	12993
926.031	13122
926.138	12958
926.245	13069
926.352	12954
926.459	12989
926.566	13076
926.673	12954
926.779	12894
926.886	12871
926.993	12722
927.099	12623
927.206	12578
927.312	12525
927.419	12665
927.525	12658
927.631	12616
927.737	12513
927.843	12445
927.95	12330
928.056	12391
928.162	12475
928.267	12464
928.373	13122
928.479	12601
928.585	12311
928.69	12315
928.796	12418
928.901	12410
929.007	12220
929.112	12380
929.218	12239
929.323	12182
929.428	12144
929.533	12262
929.638	12114
929.743	12213
929.848	12163
929.953	12045
930.058	11965
930.163	11885
930.267	11939
930.372	12038
930.477	11843
930.581	12060
930.685	11927
930.79	11764
930.894	11737
930.998	11809
931.103	11866
931.207	11482
931.311	11493
931.415	11372
931.519	11208
931.623	11102
