Data from test_V78500241_133.txt Node
Date: Fri Mar 25 15:10:47 CST 2022
User: usil
Spectrometer: V785-0024
Trigger mode: 0
Integration Time (sec): 4.000000E-1
Scans to average: 1
Nonlinearity correction enabled: false
Boxcar width: 0
Storing dark spectrum: false
XAxis mode: Wavelengths
Number of Pixels in Spectrum: 1024
>>>>>Begin Spectral Data<<<<<
801.071	28306
801.214	28185
801.356	27991
801.499	27983
801.641	27724
801.783	27857
801.926	27781
802.068	27759
802.211	27648
802.353	27644
802.496	27477
802.638	27515
802.78	27583
802.923	27435
803.065	27412
803.208	27329
803.35	27386
803.492	27439
803.635	27561
803.777	27401
803.919	27492
804.061	27732
804.204	27382
804.346	27443
804.488	27416
804.63	27401
804.773	27336
804.915	27462
805.057	27606
805.199	27412
805.341	27485
805.483	27625
805.626	27504
805.768	27454
805.91	27545
806.052	27572
806.194	27492
806.336	27523
806.478	27576
806.62	27542
806.762	27530
806.904	27743
807.046	27903
807.188	27914
807.33	27759
807.472	28002
807.614	27899
807.756	27762
807.898	27732
808.04	27682
808.182	27770
808.324	27816
808.465	27709
808.607	27930
808.749	28032
808.891	28078
809.033	28188
809.174	28173
809.316	28128
809.458	28078
809.6	28101
809.741	28116
809.883	28188
810.025	28226
810.166	28360
810.308	28344
810.45	28253
810.591	28143
810.733	28169
810.875	28086
811.016	27899
811.158	27968
811.299	28074
811.441	28090
811.582	28112
811.724	27975
811.865	27869
812.007	27911
812.148	27964
812.29	28032
812.431	28181
812.573	28405
812.714	28481
812.855	28546
812.997	28561
813.138	28809
813.279	28656
813.421	28535
813.562	28516
813.703	28257
813.845	28185
813.986	27842
814.127	27918
814.268	27633
814.41	27606
814.551	27583
814.692	27724
814.833	27583
814.974	27507
815.115	27675
815.256	27500
815.397	27454
815.539	27427
815.68	27412
815.821	27283
815.962	27416
816.103	27401
816.244	27211
816.385	27112
816.526	27112
816.666	27001
816.807	26769
816.948	26781
817.089	26880
817.23	26914
817.371	26929
817.512	26921
817.653	26629
817.793	26724
817.934	26891
818.075	26743
818.216	26842
818.356	26648
818.497	26579
818.638	26484
818.778	26476
818.919	26503
819.06	26541
819.2	26480
819.341	26811
819.481	26640
819.622	26838
819.762	26975
819.903	26979
820.043	26872
820.184	26758
820.324	26826
820.465	26807
820.605	26960
820.746	26811
820.886	26587
821.026	26746
821.167	26739
821.307	26838
821.447	26697
821.588	26552
821.728	26537
821.868	26263
822.008	26134
822.149	26107
822.289	26008
822.429	25898
822.569	25837
822.709	25757
822.849	25689
822.99	25719
823.13	25510
823.27	25620
823.41	25468
823.55	25255
823.69	25537
823.83	25430
823.97	25373
824.11	25190
824.25	25263
824.389	25339
824.529	25156
824.669	25118
824.809	25293
824.949	25304
825.089	25221
825.228	25255
825.368	25076
825.508	24943
825.648	25019
825.787	25019
825.927	25038
826.067	24935
826.206	24867
826.346	25084
826.485	25084
826.625	24951
826.765	25027
826.904	25023
827.044	24787
827.183	24890
827.323	24658
827.462	24661
827.601	24669
827.741	24730
827.88	24665
828.02	24597
828.159	24623
828.298	24688
828.437	24776
828.577	24578
828.716	24700
828.855	24604
828.994	24456
829.134	24338
829.273	24460
829.412	24338
829.551	24350
829.69	24319
829.829	24388
829.968	24391
830.107	24517
830.246	24338
830.385	24220
830.524	24266
830.663	24091
830.802	23996
830.941	23954
831.08	23931
831.219	23984
831.357	23882
831.496	24121
831.635	23870
831.774	23794
831.913	23764
832.051	23707
832.19	23737
832.329	23657
832.467	23608
832.606	23596
832.744	23543
832.883	23539
833.022	23562
833.16	23562
833.299	23585
833.437	23665
833.576	23600
833.714	23570
833.852	23577
833.991	23741
834.129	23684
834.267	23783
834.406	23726
834.544	23566
834.682	23615
834.821	23528
834.959	23638
835.097	23531
835.235	23592
835.373	23535
835.511	23554
835.65	23421
835.788	23334
835.926	23368
836.064	23315
836.202	23288
836.34	23349
836.478	23459
836.615	23448
836.753	23395
836.891	23436
837.029	23493
837.167	23303
837.305	23318
837.443	23273
837.58	23307
837.718	23387
837.856	23387
837.993	23178
838.131	23223
838.269	23083
838.406	23121
838.544	23151
838.681	22968
838.819	22896
838.956	22733
839.094	22706
839.231	22797
839.369	22748
839.506	22942
839.643	22961
839.781	22675
839.918	22588
840.055	22755
840.193	22675
840.33	22554
840.467	22618
840.604	22725
840.742	22774
840.879	22360
841.016	22504
841.153	22402
841.29	22725
841.427	22573
841.564	22478
841.701	22531
841.838	22478
841.975	22428
842.112	22440
842.249	22363
842.385	22249
842.522	22390
842.659	22440
842.796	22215
842.933	22276
843.069	22265
843.206	22246
843.343	22337
843.479	22215
843.616	22272
843.752	22051
843.889	22070
844.025	22090
844.162	21983
844.298	22105
844.435	21926
844.571	21945
844.708	22036
844.844	22253
844.98	22158
845.117	22090
845.253	21941
845.389	21846
845.525	21960
845.661	21804
845.798	21694
845.934	21732
846.07	21774
846.206	21732
846.342	22021
846.478	21739
846.614	21595
846.75	21515
846.886	21412
847.022	21572
847.158	21511
847.294	21641
847.429	21595
847.565	21401
847.701	21599
847.837	21127
847.972	21039
848.108	21302
848.244	21249
848.379	21214
848.515	21055
848.65	21173
848.786	21150
848.921	21100
849.057	21184
849.192	21256
849.328	21055
849.463	21062
849.598	20948
849.734	20944
849.869	20967
850.004	20781
850.14	20788
850.275	20834
850.41	20682
850.545	20777
850.68	20853
850.815	20792
850.95	20906
851.085	20834
851.22	20868
851.355	20663
851.49	20811
851.625	20826
851.76	20796
851.895	20568
852.03	20724
852.165	20697
852.299	20777
852.434	20861
852.569	20826
852.703	20632
852.838	20823
852.973	20849
853.107	20864
853.242	20621
853.376	20602
853.511	20541
853.645	20560
853.78	20670
853.914	20560
854.048	20564
854.183	20560
854.317	20590
854.451	20819
854.585	20678
854.72	20549
854.854	20556
854.988	20431
855.122	20457
855.256	20374
855.39	20606
855.524	20644
855.658	20697
855.792	20655
855.926	20518
856.06	20488
856.194	20613
856.327	20545
856.461	20530
856.595	20560
856.729	20507
856.862	20716
856.996	20530
857.13	20674
857.263	20621
857.397	20629
857.53	20602
857.664	20514
857.797	20632
857.931	20590
858.064	20697
858.197	20746
858.331	20507
858.464	20609
858.597	20476
858.731	20568
858.864	20575
858.997	20533
859.13	20564
859.263	20419
859.396	20598
859.529	20613
859.662	20526
859.795	20381
859.928	20556
860.061	20705
860.194	20705
860.327	20541
860.46	20594
860.592	20659
860.725	20659
860.858	20533
860.99	20560
861.123	20408
861.256	20503
861.388	20533
861.521	21180
861.653	20419
861.786	20404
861.918	20415
862.05	20343
862.183	20549
862.315	20526
862.447	20571
862.58	20533
862.712	20355
862.844	20267
862.976	20370
863.108	20294
863.24	20804
863.372	20229
863.504	20275
863.636	20259
863.768	20320
863.9	20259
864.032	20324
864.164	20237
864.296	20221
864.428	20259
864.559	20298
864.691	20366
864.823	20332
864.954	20240
865.086	20157
865.217	20240
865.349	20001
865.48	20134
865.612	20191
865.743	20195
865.875	20206
866.006	20142
866.137	20134
866.269	20214
866.4	20111
866.531	20065
866.662	20092
866.793	20046
866.924	20092
867.055	20157
867.186	20088
867.317	20088
867.448	20081
867.579	20031
867.71	20012
867.841	19925
867.972	20130
868.103	19959
868.233	20138
868.364	20081
868.495	20199
868.625	20317
868.756	20427
868.886	20176
869.017	20183
869.147	20389
869.278	20461
869.408	20320
869.539	20210
869.669	20381
869.799	20313
869.929	20461
870.06	20408
870.19	20594
870.32	20560
870.45	20807
870.58	20720
870.71	20899
870.84	20781
870.97	20609
871.1	20651
871.23	20918
871.36	20948
871.489	20899
871.619	20842
871.749	20754
871.879	20842
872.008	21020
872.138	20914
872.267	20895
872.397	20838
872.526	20716
872.656	20739
872.785	20727
872.915	20967
873.044	21013
873.173	20918
873.303	20910
873.432	20975
873.561	21116
873.69	20899
873.819	21013
873.948	20910
874.077	20941
874.206	20785
874.335	20868
874.464	20990
874.593	21298
874.722	21150
874.851	21218
874.979	21184
875.108	21268
875.237	21199
875.365	21112
875.494	21119
875.623	21260
875.751	21150
875.88	21199
876.008	21230
876.136	21462
876.265	21618
876.393	21663
876.521	21591
876.65	21686
876.778	21534
876.906	21519
877.034	21488
877.162	21599
877.29	21523
877.418	21603
877.546	21466
877.674	21519
877.802	21644
877.93	21587
878.058	21405
878.185	21481
878.313	21507
878.441	21553
878.568	21424
878.696	21511
878.824	21580
878.951	21515
879.079	21705
879.206	21762
879.333	21641
879.461	21492
879.588	21686
879.715	21717
879.842	21797
879.97	21583
880.097	21340
880.224	21283
880.351	21469
880.478	21310
880.605	21241
880.732	21348
880.859	21732
880.986	21367
881.112	21340
881.239	21184
881.366	21024
881.493	21020
881.619	20918
881.746	20971
881.872	20998
881.999	20826
882.125	20842
882.252	21009
882.378	20967
882.505	21020
882.631	20800
882.757	20762
882.883	20804
883.01	20689
883.136	20617
883.262	20602
883.388	20450
883.514	20682
883.64	20758
883.766	20537
883.892	20431
884.018	20476
884.143	20636
884.269	20686
884.395	20336
884.52	20317
884.646	20305
884.772	20278
884.897	20187
885.023	20412
885.148	20347
885.274	20537
885.399	20396
885.524	20278
885.65	20358
885.775	20328
885.9	20275
886.025	20324
886.15	20438
886.275	20199
886.4	20267
886.525	20214
886.65	20286
886.775	20138
886.9	20492
887.025	20469
887.149	20298
887.274	20111
887.399	20111
887.523	20058
887.648	19978
887.773	20031
887.897	20130
888.021	20005
888.146	20012
888.27	20149
888.395	20221
888.519	20111
888.643	20168
888.767	20138
888.891	19932
889.015	19898
889.139	19860
889.263	19791
889.387	19902
889.511	20065
889.635	20027
889.759	19807
889.883	19727
890.006	19765
890.13	19928
890.254	19940
890.377	19742
890.501	19658
890.624	19544
890.748	19795
890.871	19506
890.995	19441
891.118	19422
891.241	19506
891.364	19540
891.488	19480
891.611	19453
891.734	19381
891.857	19533
891.98	19544
892.103	19468
892.226	19518
892.349	19362
892.471	19282
892.594	19327
892.717	19327
892.839	19346
892.962	19396
893.085	19445
893.207	19381
893.33	19282
893.452	19270
893.575	19354
893.697	19232
893.819	19495
893.941	19518
894.064	19586
894.186	19289
894.308	19171
894.43	19449
894.552	19480
894.674	19396
894.796	19266
894.918	19388
895.04	19316
895.161	19594
895.283	19339
895.405	19350
895.526	19362
895.648	19274
895.769	19285
895.891	19403
896.012	19422
896.134	19407
896.255	19369
896.376	19350
896.498	19274
896.619	19510
896.74	19373
896.861	19552
896.982	19731
897.103	19826
897.224	19674
897.345	19658
897.466	19616
897.587	19639
897.708	19658
897.828	19567
897.949	19624
898.07	19460
898.19	19601
898.311	19635
898.431	19537
898.552	19487
898.672	19742
898.792	19670
898.913	19529
899.033	19384
899.153	19419
899.273	19255
899.393	19358
899.513	19346
899.633	19403
899.753	19304
899.873	19217
899.993	19331
900.113	19331
900.232	19312
900.352	19251
900.472	19160
900.591	19076
900.711	19179
900.83	19171
900.95	19206
901.069	19198
901.189	19019
901.308	18890
901.427	18730
901.546	18787
901.665	18677
901.784	18627
901.904	18642
902.023	18418
902.141	18365
902.26	18220
902.379	18342
902.498	18319
902.617	18213
902.735	18228
902.854	18106
902.973	18140
903.091	17836
903.21	17874
903.328	17954
903.446	17748
903.565	17668
903.683	17794
903.801	17691
903.919	17638
904.038	17634
904.156	17539
904.274	17547
904.392	17387
904.51	17402
904.627	17501
904.745	17573
904.863	17509
904.981	17258
905.098	17060
905.216	17231
905.334	17109
905.451	17242
905.569	17117
905.686	17250
905.803	17143
905.921	16968
906.038	17022
906.155	16972
906.272	16797
906.389	16839
906.506	16752
906.623	16645
906.74	16706
906.857	16489
906.974	16554
907.091	16812
907.208	16828
907.324	16854
907.441	16569
907.557	16375
907.674	16421
907.79	16314
907.907	16344
908.023	16470
908.139	16363
908.256	16299
908.372	16268
908.488	16215
908.604	16105
908.72	16131
908.836	16128
908.952	16002
909.068	15972
909.184	16067
909.3	16093
909.415	16093
909.531	16082
909.647	15861
909.762	15816
909.878	15804
909.993	15759
910.108	15701
910.224	15728
910.339	15759
910.454	15622
910.57	15656
910.685	15542
910.8	15850
910.915	15686
911.03	15720
911.145	15363
911.259	15401
911.374	15401
911.489	15344
911.604	15283
911.718	15116
911.833	15154
911.947	15058
912.062	15005
912.176	15104
912.291	15100
912.405	15135
912.519	15298
912.633	15294
912.748	15119
912.862	15028
912.976	14880
913.09	14823
913.204	14864
913.318	14929
913.431	14937
913.545	14956
913.659	14998
913.772	14887
913.886	14739
914	14743
914.113	14800
914.226	14849
914.34	14811
914.453	14667
914.566	14815
914.68	14602
914.793	14663
914.906	14541
915.019	14358
915.132	14305
915.245	14370
915.358	14469
915.47	14423
915.583	14419
915.696	14355
915.809	14530
915.921	14473
916.034	14374
916.146	14214
916.259	14256
916.371	14419
916.483	14324
916.595	14149
916.708	14202
916.82	14252
916.932	14180
917.044	14172
917.156	14058
917.268	14126
917.38	14024
917.491	14050
917.603	14062
917.715	14172
917.826	14149
917.938	13974
918.049	13883
918.161	14031
918.272	14153
918.384	14153
918.495	14035
918.606	13830
918.717	13811
918.828	13734
918.939	13845
919.05	13750
919.161	13738
919.272	13620
919.383	13666
919.494	13913
919.604	13951
919.715	13784
919.826	13639
919.936	13772
920.047	13849
920.157	13696
920.267	13879
920.378	13822
920.488	13799
920.598	13944
920.708	14027
920.818	13894
920.928	13883
921.038	14100
921.148	13951
921.258	13738
921.368	13727
921.477	13620
921.587	13571
921.697	13369
921.806	13438
921.916	13327
922.025	13278
922.134	13206
922.244	13103
922.353	13217
922.462	13053
922.571	13065
922.68	12817
922.789	12840
922.898	12776
923.007	12730
923.116	12806
923.224	12707
923.333	12772
923.442	12669
923.55	12589
923.659	12650
923.767	12719
923.876	12589
923.984	12726
924.092	12604
924.201	12494
924.309	12517
924.417	12566
924.525	12429
924.633	12525
924.741	13270
924.849	12296
924.956	12448
925.064	12258
925.172	12171
925.279	12239
925.387	12292
925.494	12342
925.602	12342
925.709	12300
925.816	12152
925.924	12254
926.031	12251
926.138	12232
926.245	12216
926.352	12083
926.459	12289
926.566	12292
926.673	12140
926.779	12091
926.886	12034
926.993	11885
927.099	11840
927.206	11760
927.312	11794
927.419	11958
927.525	11912
927.631	11912
927.737	11756
927.843	11684
927.95	11634
928.056	11634
928.162	11623
928.267	11661
928.373	12300
928.479	11710
928.585	11558
928.69	11703
928.796	11665
928.901	11486
929.007	11417
929.112	11528
929.218	11516
929.323	11463
929.428	11482
929.533	11528
929.638	11391
929.743	11425
929.848	11433
929.953	11318
930.058	11201
930.163	11162
930.267	11147
930.372	11258
930.477	11079
930.581	11315
930.685	11136
930.79	10919
930.894	11071
930.998	10991
931.103	11083
931.207	10767
931.311	10706
931.415	10596
931.519	10398
931.623	10409
