Data from test_V78500241_1123.txt Node
Date: Fri Mar 25 15:17:40 CST 2022
User: usil
Spectrometer: V785-0024
Trigger mode: 0
Integration Time (sec): 4.000000E-1
Scans to average: 1
Nonlinearity correction enabled: false
Boxcar width: 0
Storing dark spectrum: false
XAxis mode: Wavelengths
Number of Pixels in Spectrum: 1024
>>>>>Begin Spectral Data<<<<<
801.071	28181
801.214	28204
801.356	27987
801.499	27789
801.641	27846
801.783	27846
801.926	27846
802.068	27682
802.211	27701
802.353	27690
802.496	27485
802.638	27447
802.78	27370
802.923	27344
803.065	27382
803.208	27458
803.35	27386
803.492	27485
803.635	27671
803.777	27580
803.919	27519
804.061	28017
804.204	27698
804.346	27629
804.488	27538
804.63	27507
804.773	27523
804.915	27622
805.057	27781
805.199	27564
805.341	27717
805.483	27812
805.626	27781
805.768	27808
805.91	27667
806.052	27743
806.194	27656
806.336	27926
806.478	27873
806.62	27774
806.762	27949
806.904	28090
807.046	28131
807.188	28139
807.33	28067
807.472	28166
807.614	28139
807.756	28150
807.898	28063
808.04	28086
808.182	27983
808.324	28135
808.465	28185
808.607	28348
808.749	28405
808.891	28523
809.033	28653
809.174	28459
809.316	28466
809.458	28455
809.6	28363
809.741	28675
809.883	28622
810.025	28710
810.166	28744
810.308	28755
810.45	28660
810.591	28649
810.733	28519
810.875	28284
811.016	28386
811.158	28337
811.299	28470
811.441	28634
811.582	28645
811.724	28432
811.865	28470
812.007	28421
812.148	28390
812.29	28447
812.431	28637
812.573	28717
812.714	28790
812.855	28972
812.997	29014
813.138	29322
813.279	29178
813.421	28911
813.562	29022
813.703	28809
813.845	28782
813.986	28386
814.127	28299
814.268	28181
814.41	28314
814.551	28128
814.692	28166
814.833	28040
814.974	28139
815.115	28223
815.256	28021
815.397	27994
815.539	28063
815.68	28017
815.821	27835
815.962	27949
816.103	28048
816.244	27816
816.385	27709
816.526	27739
816.666	27564
816.807	27485
816.948	27450
817.089	27660
817.23	27504
817.371	27500
817.512	27496
817.653	27496
817.793	27420
817.934	27393
818.075	27568
818.216	27523
818.356	27553
818.497	27279
818.638	27268
818.778	27237
818.919	27302
819.06	27348
819.2	27420
819.341	27500
819.481	27515
819.622	27705
819.762	27728
819.903	27705
820.043	27576
820.184	27534
820.324	27583
820.465	27625
820.605	27644
820.746	27644
820.886	27492
821.026	27496
821.167	27477
821.307	27538
821.447	27614
821.588	27386
821.728	27439
821.868	27150
822.008	26982
822.149	27093
822.289	26914
822.429	26739
822.569	26667
822.709	26765
822.849	26301
822.99	26465
823.13	26488
823.27	26385
823.41	26298
823.55	26180
823.69	26370
823.83	26408
823.97	26259
824.11	26164
824.25	26130
824.389	26336
824.529	26210
824.669	26176
824.809	26214
824.949	26164
825.089	26298
825.228	26252
825.368	26062
825.508	26020
825.648	26065
825.787	26008
825.927	26183
826.067	25997
826.206	26084
826.346	26073
826.485	26043
826.625	25966
826.765	26008
826.904	26050
827.044	25898
827.183	25712
827.323	25658
827.462	25788
827.601	25727
827.741	25655
827.88	25811
828.02	25624
828.159	25662
828.298	25959
828.437	25837
828.577	25776
828.716	25909
828.855	25670
828.994	25377
829.134	25369
829.273	25422
829.412	25419
829.551	25335
829.69	25499
829.829	25556
829.968	25537
830.107	25483
830.246	25533
830.385	25426
830.524	25247
830.663	25384
830.802	25206
830.941	25095
831.08	25198
831.219	25160
831.357	25133
831.496	25426
831.635	25088
831.774	24951
831.913	24973
832.051	24890
832.19	24875
832.329	24954
832.467	24829
832.606	24875
832.744	24677
832.883	24696
833.022	24726
833.16	24684
833.299	24779
833.437	24795
833.576	24916
833.714	24825
833.852	25046
833.991	24878
834.129	24977
834.267	24856
834.406	24825
834.544	24859
834.682	24772
834.821	24848
834.959	25000
835.097	24817
835.235	24939
835.373	24810
835.511	24753
835.65	24821
835.788	24833
835.926	24623
836.064	24479
836.202	24479
836.34	24627
836.478	24764
836.615	24604
836.753	24741
836.891	24719
837.029	24753
837.167	24669
837.305	24673
837.443	24528
837.58	24479
837.718	24544
837.856	24471
837.993	24380
838.131	24635
838.269	24395
838.406	24452
838.544	24479
838.681	24186
838.819	24190
838.956	24057
839.094	24026
839.231	23961
839.369	24121
839.506	24365
839.643	24197
839.781	23996
839.918	23935
840.055	24030
840.193	23912
840.33	23923
840.467	23794
840.604	23935
840.742	24095
840.879	23836
841.016	23798
841.153	23733
841.29	24011
841.427	23851
841.564	23969
841.701	23851
841.838	23756
841.975	23779
842.112	23817
842.249	23783
842.385	23691
842.522	23874
842.659	23585
842.796	23531
842.933	23592
843.069	23627
843.206	23642
843.343	23608
843.479	23551
843.616	23668
843.752	23505
843.889	23509
844.025	23577
844.162	23429
844.298	23368
844.435	23421
844.571	23387
844.708	23474
844.844	23528
844.98	23672
845.117	23589
845.253	23421
845.389	23288
845.525	23235
845.661	23345
845.798	23056
845.934	23162
846.07	23052
846.206	23204
846.342	23223
846.478	23071
846.614	23121
846.75	22805
846.886	22984
847.022	23033
847.158	22850
847.294	22850
847.429	23006
847.565	22930
847.701	23094
847.837	22542
847.972	22618
848.108	22725
848.244	22672
848.379	22607
848.515	22497
848.65	22310
848.786	22318
848.921	22424
849.057	22630
849.192	22607
849.328	22527
849.463	22379
849.598	22379
849.734	22306
849.869	22375
850.004	22211
850.14	22226
850.275	22280
850.41	22261
850.545	22162
850.68	22242
850.815	22253
850.95	22169
851.085	22531
851.22	22356
851.355	22299
851.49	22200
851.625	22219
851.76	22173
851.895	22139
852.03	22063
852.165	22135
852.299	22169
852.434	22325
852.569	22276
852.703	22192
852.838	22337
852.973	22322
853.107	22402
853.242	22158
853.376	22090
853.511	22116
853.645	21934
853.78	22086
853.914	22013
854.048	22010
854.183	21873
854.317	22002
854.451	22367
854.585	22074
854.72	21987
854.854	22090
854.988	21930
855.122	21907
855.256	21941
855.39	21975
855.524	22131
855.658	22086
855.792	22051
855.926	22150
856.06	21964
856.194	22021
856.327	22055
856.461	21983
856.595	21979
856.729	21968
856.862	22109
856.996	22150
857.13	22154
857.263	22177
857.397	22128
857.53	22017
857.664	22097
857.797	22109
857.931	21983
858.064	22070
858.197	22029
858.331	22063
858.464	21968
858.597	22017
858.731	22093
858.864	21964
858.997	22025
859.13	22036
859.263	22029
859.396	22101
859.529	22017
859.662	22029
859.795	21968
859.928	22063
860.061	22223
860.194	22253
860.327	22006
860.46	22021
860.592	22139
860.725	22147
860.858	22284
860.99	22082
861.123	22063
861.256	22048
861.388	22048
861.521	22839
861.653	21876
861.786	21812
861.918	21892
862.05	21953
862.183	21918
862.315	21964
862.447	22055
862.58	21907
862.712	21812
862.844	21682
862.976	21884
863.108	21850
863.24	22158
863.372	21759
863.504	21755
863.636	21709
863.768	21762
863.9	21698
864.032	21717
864.164	21785
864.296	21732
864.428	21762
864.559	21937
864.691	21907
864.823	21937
864.954	21823
865.086	21671
865.217	21652
865.349	21561
865.48	21652
865.612	21675
865.743	21945
865.875	21599
866.006	21656
866.137	21713
866.269	21637
866.4	21606
866.531	21515
866.662	21648
866.793	21595
866.924	21633
867.055	21523
867.186	21526
867.317	21492
867.448	21450
867.579	21583
867.71	21603
867.841	21439
867.972	21576
868.103	21557
868.233	21591
868.364	21686
868.495	21637
868.625	21816
868.756	21827
868.886	21724
869.017	21785
869.147	21873
869.278	21876
869.408	21819
869.539	21789
869.669	21899
869.799	21888
869.929	21953
870.06	21903
870.19	22124
870.32	22086
870.45	22234
870.58	22112
870.71	22242
870.84	22181
870.97	22192
871.1	22173
871.23	22299
871.36	22413
871.489	22173
871.619	22333
871.749	22409
871.879	22386
872.008	22531
872.138	22386
872.267	22261
872.397	22299
872.526	22234
872.656	22169
872.785	22185
872.915	22417
873.044	22409
873.173	22390
873.303	22360
873.432	22367
873.561	22561
873.69	22466
873.819	22424
873.948	22462
874.077	22417
874.206	22409
874.335	22318
874.464	22470
874.593	22672
874.722	22554
874.851	22622
874.979	22630
875.108	22656
875.237	22565
875.365	22497
875.494	22706
875.623	22649
875.751	22637
875.88	22516
876.008	22656
876.136	22793
876.265	23006
876.393	23083
876.521	23086
876.65	23136
876.778	23033
876.906	22991
877.034	22946
877.162	22972
877.29	22889
877.418	22896
877.546	22934
877.674	23014
877.802	22961
877.93	22866
878.058	23056
878.185	22748
878.313	22904
878.441	23018
878.568	22793
878.696	22820
878.824	23048
878.951	23044
879.079	23197
879.206	23242
879.333	23121
879.461	23044
879.588	23022
879.715	23140
879.842	23341
879.97	23033
880.097	22835
880.224	22733
880.351	22778
880.478	22706
880.605	22774
880.732	22809
880.859	22976
880.986	22854
881.112	22752
881.239	22698
881.366	22489
881.493	22481
881.619	22314
881.746	22390
881.872	22356
881.999	22363
882.125	22379
882.252	22474
882.378	22363
882.505	22417
882.631	22272
882.757	22029
882.883	22120
883.01	22017
883.136	21922
883.262	21812
883.388	21991
883.514	22048
883.64	22013
883.766	21941
883.892	21899
884.018	21869
884.143	22036
884.269	22124
884.395	21781
884.52	21709
884.646	21819
884.772	21663
884.897	21553
885.023	21698
885.148	21732
885.274	21899
885.399	21724
885.524	21675
885.65	21610
885.775	21660
885.9	21713
886.025	21842
886.15	21797
886.275	21663
886.4	21641
886.525	21599
886.65	21610
886.775	21641
886.9	21717
887.025	21892
887.149	21663
887.274	21393
887.399	21351
887.523	21500
887.648	21268
887.773	21233
887.897	21469
888.021	21511
888.146	21397
888.27	21496
888.395	21534
888.519	21454
888.643	21576
888.767	21587
888.891	21408
889.015	21340
889.139	21443
889.263	21294
889.387	21428
889.511	21447
889.635	21317
889.759	21283
889.883	21112
890.006	21195
890.13	21416
890.254	21112
890.377	21294
890.501	21024
890.624	20998
890.748	21039
890.871	20914
890.995	20781
891.118	20807
891.241	20864
891.364	20815
891.488	20906
891.611	20830
891.734	20811
891.857	20834
891.98	20834
892.103	20838
892.226	20796
892.349	20651
892.471	20682
892.594	20621
892.717	20693
892.839	20796
892.962	20739
893.085	20868
893.207	20686
893.33	20530
893.452	20743
893.575	20758
893.697	20609
893.819	20960
893.941	20883
894.064	20842
894.186	20609
894.308	20667
894.43	20788
894.552	20872
894.674	20785
894.796	20735
894.918	20697
895.04	20686
895.161	20765
895.283	20724
895.405	20644
895.526	20686
895.648	20743
895.769	20655
895.891	20613
896.012	20708
896.134	20731
896.255	20743
896.376	20602
896.498	20716
896.619	20720
896.74	20670
896.861	20731
896.982	21039
897.103	21066
897.224	20941
897.345	20941
897.466	20880
897.587	20902
897.708	21077
897.828	20838
897.949	20796
898.07	20682
898.19	20861
898.311	20891
898.431	20868
898.552	20979
898.672	20933
898.792	20948
898.913	20823
899.033	20830
899.153	20621
899.273	20678
899.393	20522
899.513	20667
899.633	20651
899.753	20598
899.873	20511
899.993	20617
900.113	20579
900.232	20606
900.352	20507
900.472	20511
900.591	20434
900.711	20396
900.83	20294
900.95	20457
901.069	20400
901.189	20336
901.308	20138
901.427	19940
901.546	19955
901.665	20050
901.784	19936
901.904	19795
902.023	19791
902.141	19510
902.26	19434
902.379	19533
902.498	19578
902.617	19434
902.735	19377
902.854	19510
902.973	19343
903.091	19194
903.21	19240
903.328	19076
903.446	18970
903.565	18977
903.683	19019
903.801	18878
903.919	18897
904.038	18852
904.156	18719
904.274	18814
904.392	18802
904.51	18658
904.627	18703
904.745	18730
904.863	18726
904.981	18555
905.098	18304
905.216	18422
905.334	18391
905.451	18388
905.569	18315
905.686	18361
905.803	18361
905.921	18098
906.038	18330
906.155	18243
906.272	18136
906.389	18087
906.506	17954
906.623	17901
906.74	17908
906.857	17805
906.974	17859
907.091	18003
907.208	17996
907.324	17965
907.441	17764
907.557	17676
907.674	17714
907.79	17505
907.907	17638
908.023	17630
908.139	17539
908.256	17627
908.372	17493
908.488	17551
908.604	17398
908.72	17337
908.836	17379
908.952	17372
909.068	17376
909.184	17452
909.3	17353
909.415	17368
909.531	17436
909.647	17170
909.762	17086
909.878	16968
909.993	17003
910.108	16961
910.224	16946
910.339	17010
910.454	16908
910.57	16900
910.685	16869
910.8	17045
910.915	16999
911.03	16896
911.145	16706
911.259	16645
911.374	16675
911.489	16656
911.604	16474
911.718	16440
911.833	16356
911.947	16284
912.062	16120
912.176	16299
912.291	16363
912.405	16348
912.519	16531
912.633	16451
912.748	16462
912.862	16413
912.976	16078
913.09	16051
913.204	16200
913.318	16135
913.431	16284
913.545	16234
913.659	16211
913.772	16109
913.886	15930
914	15945
914.113	16063
914.226	16166
914.34	15899
914.453	15861
914.566	15994
914.68	15854
914.793	15770
914.906	15694
915.019	15515
915.132	15580
915.245	15485
915.358	15660
915.47	15625
915.583	15542
915.696	15644
915.809	15785
915.921	15793
916.034	15542
916.146	15504
916.259	15412
916.371	15454
916.483	15564
916.595	15393
916.708	15488
916.82	15351
916.932	15473
917.044	15268
917.156	15336
917.268	15195
917.38	15199
917.491	15245
917.603	15188
917.715	15252
917.826	15336
917.938	15047
918.049	15097
918.161	15085
918.272	15218
918.384	15252
918.495	15146
918.606	14944
918.717	14929
918.828	15039
918.939	14937
919.05	14773
919.161	14929
919.272	14712
919.383	14876
919.494	14906
919.604	15207
919.715	15055
919.826	14785
919.936	14815
920.047	14963
920.157	14845
920.267	15058
920.378	14872
920.488	14845
920.598	15100
920.708	15260
920.818	15001
920.928	15028
921.038	15127
921.148	15081
921.258	14845
921.368	14792
921.477	14655
921.587	14697
921.697	14522
921.806	14655
921.916	14339
922.025	14313
922.134	14263
922.244	14214
922.353	14237
922.462	14119
922.571	14008
922.68	13928
922.789	13909
922.898	13883
923.007	13845
923.116	13955
923.224	13875
923.333	13894
923.442	13795
923.55	13746
923.659	13795
923.767	13769
923.876	13586
923.984	13788
924.092	13605
924.201	13693
924.309	13636
924.417	13544
924.525	13499
924.633	13529
924.741	14488
924.849	13384
924.956	13544
925.064	13400
925.172	13327
925.279	13384
925.387	13297
925.494	13346
925.602	13365
925.709	13335
925.816	13293
925.924	13335
926.031	13384
926.138	13206
926.245	13320
926.352	13110
926.459	13236
926.566	13285
926.673	13145
926.779	13046
926.886	13034
926.993	12859
927.099	12901
927.206	12840
927.312	12825
927.419	12890
927.525	12867
927.631	12894
927.737	12730
927.843	12642
927.95	12555
928.056	12684
928.162	12715
928.267	12753
928.373	13213
928.479	12768
928.585	12494
928.69	12673
928.796	12726
928.901	12566
929.007	12330
929.112	12574
929.218	12509
929.323	12452
929.428	12441
929.533	12426
929.638	12289
929.743	12380
929.848	12330
929.953	12315
930.058	12243
930.163	12019
930.267	11969
930.372	12235
930.477	11977
930.581	12262
930.685	12015
930.79	11866
930.894	12041
930.998	11901
931.103	12026
931.207	11729
931.311	11604
931.415	11551
931.519	11277
931.623	11353
