Data from test_V78500241_3021.txt Node
Date: Fri Mar 25 15:30:53 CST 2022
User: usil
Spectrometer: V785-0024
Trigger mode: 0
Integration Time (sec): 4.000000E-1
Scans to average: 1
Nonlinearity correction enabled: false
Boxcar width: 0
Storing dark spectrum: false
XAxis mode: Wavelengths
Number of Pixels in Spectrum: 1024
>>>>>Begin Spectral Data<<<<<
801.071	27184
801.214	27131
801.356	26967
801.499	26956
801.641	26693
801.783	26777
801.926	26826
802.068	26895
802.211	26849
802.353	26579
802.496	26427
802.638	26336
802.78	26415
802.923	26313
803.065	26332
803.208	26298
803.35	26503
803.492	26522
803.635	26659
803.777	26415
803.919	26651
804.061	26937
804.204	26541
804.346	26385
804.488	26427
804.63	26507
804.773	26469
804.915	26507
805.057	26682
805.199	26568
805.341	26651
805.483	26594
805.626	26507
805.768	26606
805.91	26636
806.052	26682
806.194	26598
806.336	26773
806.478	26655
806.62	26571
806.762	26746
806.904	26918
807.046	27272
807.188	27138
807.33	27154
807.472	27123
807.614	27001
807.756	26982
807.898	26834
808.04	26975
808.182	26826
808.324	26929
808.465	26994
808.607	27074
808.749	27207
808.891	27408
809.033	27500
809.174	27332
809.316	27317
809.458	27112
809.6	27237
809.741	27435
809.883	27378
810.025	27583
810.166	27587
810.308	27614
810.45	27447
810.591	27454
810.733	27344
810.875	27249
811.016	27195
811.158	27192
811.299	27363
811.441	27363
811.582	27393
811.724	27386
811.865	27116
812.007	27348
812.148	27336
812.29	27378
812.431	27477
812.573	27511
812.714	27610
812.855	27743
812.997	27827
813.138	27968
813.279	27884
813.421	27641
813.562	27660
813.703	27603
813.845	27488
813.986	27264
814.127	26986
814.268	26918
814.41	26902
814.551	26864
814.692	26887
814.833	26872
814.974	26899
815.115	26948
815.256	26792
815.397	26815
815.539	26876
815.68	26785
815.821	26659
815.962	26785
816.103	26678
816.244	26571
816.385	26415
816.526	26488
816.666	26355
816.807	26172
816.948	26218
817.089	26244
817.23	26298
817.371	26248
817.512	26183
817.653	26199
817.793	26206
817.934	26145
818.075	26126
818.216	26305
818.356	26016
818.497	25989
818.638	25830
818.778	25856
818.919	25868
819.06	26020
819.2	26001
819.341	26161
819.481	26244
819.622	26187
819.762	26446
819.903	26404
820.043	26317
820.184	26324
820.324	26313
820.465	26381
820.605	26351
820.746	26233
820.886	26119
821.026	26225
821.167	26221
821.307	26206
821.447	26214
821.588	26084
821.728	26039
821.868	25807
822.008	25689
822.149	25578
822.289	25594
822.429	25392
822.569	25244
822.709	25240
822.849	25084
822.99	25187
823.13	25122
823.27	25069
823.41	24928
823.55	24779
823.69	24909
823.83	24909
823.97	24913
824.11	24631
824.25	24692
824.389	24681
824.529	24916
824.669	24783
824.809	24844
824.949	24871
825.089	24852
825.228	24776
825.368	24700
825.508	24513
825.648	24631
825.787	24627
825.927	24760
826.067	24456
826.206	24483
826.346	24707
826.485	24848
826.625	24536
826.765	24734
826.904	24658
827.044	24311
827.183	24422
827.323	24418
827.462	24342
827.601	24471
827.741	24365
827.88	24323
828.02	24209
828.159	24289
828.298	24357
828.437	24365
828.577	24289
828.716	24403
828.855	24235
828.994	24079
829.134	24098
829.273	24133
829.412	24106
829.551	24053
829.69	24015
829.829	24026
829.968	24064
830.107	24129
830.246	24114
830.385	23916
830.524	23882
830.663	23912
830.802	23729
830.941	23623
831.08	23668
831.219	23691
831.357	23714
831.496	23847
831.635	23608
831.774	23547
831.913	23539
832.051	23509
832.19	23493
832.329	23376
832.467	23265
832.606	23185
832.744	23273
832.883	23197
833.022	23258
833.16	23349
833.299	23216
833.437	23448
833.576	23318
833.714	23425
833.852	23337
833.991	23471
834.129	23459
834.267	23471
834.406	23459
834.544	23265
834.682	23391
834.821	23299
834.959	23547
835.097	23284
835.235	23414
835.373	23376
835.511	23345
835.65	23143
835.788	23223
835.926	22987
836.064	23056
836.202	23170
836.34	23223
836.478	23383
836.615	23197
836.753	23105
836.891	23258
837.029	23204
837.167	23216
837.305	23064
837.443	22946
837.58	23006
837.718	23109
837.856	23147
837.993	23090
838.131	22972
838.269	22934
838.406	22968
838.544	22976
838.681	22660
838.819	22691
838.956	22542
839.094	22573
839.231	22698
839.369	22717
839.506	22927
839.643	22755
839.781	22596
839.918	22405
840.055	22569
840.193	22500
840.33	22363
840.467	22417
840.604	22580
840.742	22797
840.879	22333
841.016	22371
841.153	22402
841.29	22440
841.427	22447
841.564	22493
841.701	22348
841.838	22455
841.975	22314
842.112	22413
842.249	22382
842.385	22322
842.522	22428
842.659	22322
842.796	22112
842.933	22223
843.069	22173
843.206	22063
843.343	22272
843.479	22143
843.616	22272
843.752	21861
843.889	21911
844.025	22261
844.162	21850
844.298	22067
844.435	22063
844.571	21930
844.708	22025
844.844	22158
844.98	22154
845.117	22112
845.253	21987
845.389	21922
845.525	21838
845.661	21869
845.798	21732
845.934	21819
846.07	21720
846.206	21816
846.342	21793
846.478	21652
846.614	21572
846.75	21534
846.886	21462
847.022	21488
847.158	21530
847.294	21500
847.429	21530
847.565	21447
847.701	21637
847.837	21192
847.972	21142
848.108	21298
848.244	21321
848.379	21112
848.515	21062
848.65	20982
848.786	20998
848.921	20963
849.057	21108
849.192	21135
849.328	21123
849.463	21173
849.598	21036
849.734	20944
849.869	20845
850.004	20861
850.14	20853
850.275	20804
850.41	20880
850.545	20819
850.68	20830
850.815	20796
850.95	20883
851.085	20998
851.22	20910
851.355	20872
851.49	20773
851.625	20845
851.76	20823
851.895	20792
852.03	20693
852.165	20876
852.299	20826
852.434	20944
852.569	20758
852.703	20838
852.838	20952
852.973	20830
853.107	20914
853.242	20648
853.376	20727
853.511	20476
853.645	20659
853.78	20697
853.914	20640
854.048	20598
854.183	20609
854.317	20686
854.451	20861
854.585	20571
854.72	20629
854.854	20724
854.988	20598
855.122	20632
855.256	20514
855.39	20739
855.524	20758
855.658	20727
855.792	20670
855.926	20758
856.06	20629
856.194	20720
856.327	20636
856.461	20667
856.595	20579
856.729	20663
856.862	20720
856.996	20731
857.13	20731
857.263	20682
857.397	20712
857.53	20579
857.664	20716
857.797	20651
857.931	20682
858.064	20674
858.197	20819
858.331	20659
858.464	20617
858.597	20499
858.731	20606
858.864	20693
858.997	20469
859.13	20617
859.263	20667
859.396	20785
859.529	20590
859.662	20438
859.795	20575
859.928	20495
860.061	20762
860.194	20838
860.327	20754
860.46	20590
860.592	20663
860.725	20731
860.858	20667
860.99	20705
861.123	20530
861.256	20598
861.388	20678
861.521	21169
861.653	20499
861.786	20476
861.918	20499
862.05	20511
862.183	20541
862.315	20663
862.447	20606
862.58	20469
862.712	20408
862.844	20259
862.976	20404
863.108	20434
863.24	20720
863.372	20286
863.504	20408
863.636	20362
863.768	20377
863.9	20286
864.032	20351
864.164	20305
864.296	20431
864.428	20412
864.559	20473
864.691	20438
864.823	20328
864.954	20385
865.086	20370
865.217	20248
865.349	20058
865.48	20240
865.612	20214
865.743	20351
865.875	20237
866.006	20187
866.137	20263
866.269	20275
866.4	20138
866.531	20145
866.662	20058
866.793	20218
866.924	20119
867.055	20263
867.186	20202
867.317	20218
867.448	20092
867.579	20100
867.71	20119
867.841	20115
867.972	20130
868.103	20199
868.233	20172
868.364	20218
868.495	20355
868.625	20488
868.756	20469
868.886	20278
869.017	20336
869.147	20533
869.278	20434
869.408	20533
869.539	20286
869.669	20495
869.799	20431
869.929	20514
870.06	20503
870.19	20743
870.32	20811
870.45	20921
870.58	20705
870.71	20887
870.84	20800
870.97	20823
871.1	20944
871.23	21192
871.36	20952
871.489	20925
871.619	20994
871.749	21009
871.879	21005
872.008	21131
872.138	21074
872.267	20960
872.397	20902
872.526	20876
872.656	20880
872.785	20807
872.915	21028
873.044	21157
873.173	21173
873.303	21119
873.432	21135
873.561	21096
873.69	20982
873.819	21093
873.948	21096
874.077	21028
874.206	20929
874.335	20956
874.464	21199
874.593	21348
874.722	21165
874.851	21272
874.979	21492
875.108	21351
875.237	21252
875.365	21268
875.494	21279
875.623	21431
875.751	21222
875.88	21386
876.008	21428
876.136	21447
876.265	21694
876.393	21808
876.521	21755
876.65	21766
876.778	21504
876.906	21644
877.034	21648
877.162	21766
877.29	21553
877.418	21610
877.546	21633
877.674	21587
877.802	21625
877.93	21557
878.058	21603
878.185	21530
878.313	21671
878.441	21667
878.568	21412
878.696	21671
878.824	21671
878.951	21686
879.079	21812
879.206	21960
879.333	21793
879.461	21747
879.588	21793
879.715	21846
879.842	21911
879.97	21797
880.097	21564
880.224	21507
880.351	21576
880.478	21545
880.605	21408
880.732	21462
880.859	21728
880.986	21424
881.112	21557
881.239	21408
881.366	21214
881.493	21184
881.619	21005
881.746	21161
881.872	21032
881.999	21074
882.125	20967
882.252	21028
882.378	21024
882.505	21108
882.631	20918
882.757	20765
882.883	20724
883.01	20720
883.136	20708
883.262	20621
883.388	20575
883.514	20724
883.64	20727
883.766	20716
883.892	20484
884.018	20590
884.143	20727
884.269	20762
884.395	20537
884.52	20385
884.646	20400
884.772	20499
884.897	20298
885.023	20495
885.148	20556
885.274	20648
885.399	20476
885.524	20366
885.65	20446
885.775	20419
885.9	20526
886.025	20465
886.15	20503
886.275	20393
886.4	20286
886.525	20423
886.65	20256
886.775	20438
886.9	20446
887.025	20590
887.149	20351
887.274	20267
887.399	20180
887.523	20172
887.648	20191
887.773	20031
887.897	20191
888.021	20267
888.146	20263
888.27	20172
888.395	20317
888.519	20199
888.643	20233
888.767	20153
888.891	20103
889.015	20024
889.139	20020
889.263	19951
889.387	20096
889.511	20187
889.635	20191
889.759	20092
889.883	19989
890.006	20138
890.13	20134
890.254	19970
890.377	19936
890.501	19769
890.624	19651
890.748	19769
890.871	19784
890.995	19567
891.118	19502
891.241	19586
891.364	19472
891.488	19704
891.611	19552
891.734	19544
891.857	19582
891.98	19495
892.103	19655
892.226	19605
892.349	19552
892.471	19403
892.594	19426
892.717	19537
892.839	19476
892.962	19502
893.085	19483
893.207	19563
893.33	19343
893.452	19499
893.575	19510
893.697	19449
893.819	19643
893.941	19734
894.064	19715
894.186	19529
894.308	19384
894.43	19651
894.552	19533
894.674	19533
894.796	19369
894.918	19434
895.04	19468
895.161	19506
895.283	19537
895.405	19525
895.526	19544
895.648	19506
895.769	19449
895.891	19575
896.012	19582
896.134	19556
896.255	19571
896.376	19624
896.498	19411
896.619	19502
896.74	19518
896.861	19563
896.982	19788
897.103	19864
897.224	19765
897.345	19712
897.466	19639
897.587	19658
897.708	19887
897.828	19674
897.949	19742
898.07	19586
898.19	19647
898.311	19662
898.431	19689
898.552	19776
898.672	19795
898.792	19814
898.913	19643
899.033	19651
899.153	19453
899.273	19346
899.393	19529
899.513	19620
899.633	19567
899.753	19643
899.873	19430
899.993	19540
900.113	19472
900.232	19525
900.352	19411
900.472	19331
900.591	19251
900.711	19396
900.83	19198
900.95	19415
901.069	19225
901.189	19244
901.308	19061
901.427	18867
901.546	18920
901.665	18810
901.784	18935
901.904	18757
902.023	18726
902.141	18441
902.26	18502
902.379	18509
902.498	18410
902.617	18334
902.735	18490
902.854	18418
902.973	18292
903.091	18110
903.21	18060
903.328	18011
903.446	17977
903.565	17988
903.683	17980
903.801	17767
903.919	17760
904.038	17878
904.156	17649
904.274	17748
904.392	17562
904.51	17573
904.627	17528
904.745	17653
904.863	17745
904.981	17467
905.098	17311
905.216	17311
905.334	17410
905.451	17292
905.569	17334
905.686	17231
905.803	17269
905.921	17124
906.038	17254
906.155	17151
906.272	17029
906.389	17029
906.506	16850
906.623	16896
906.74	16759
906.857	16771
906.974	16824
907.091	16862
907.208	16919
907.324	16839
907.441	16793
907.557	16622
907.674	16653
907.79	16550
907.907	16497
908.023	16664
908.139	16660
908.256	16500
908.372	16538
908.488	16455
908.604	16375
908.72	16295
908.836	16314
908.952	16257
909.068	16306
909.184	16363
909.3	16352
909.415	16246
909.531	16325
909.647	16086
909.762	15956
909.878	16029
909.993	15941
910.108	16002
910.224	16032
910.339	15941
910.454	15895
910.57	15842
910.685	15762
910.8	15975
910.915	15895
911.03	15755
911.145	15682
911.259	15660
911.374	15576
911.489	15530
911.604	15466
911.718	15382
911.833	15447
911.947	15226
912.062	15306
912.176	15344
912.291	15439
912.405	15435
912.519	15618
912.633	15542
912.748	15439
912.862	15275
912.976	15230
913.09	15184
913.204	15154
913.318	15241
913.431	15260
913.545	15218
913.659	15340
913.772	15146
913.886	15043
914	14967
914.113	15142
914.226	15150
914.34	15066
914.453	14857
914.566	15097
914.68	14941
914.793	14849
914.906	14720
915.019	14613
915.132	14571
915.245	14674
915.358	14617
915.47	14621
915.583	14571
915.696	14629
915.809	14731
915.921	14701
916.034	14610
916.146	14541
916.259	14469
916.371	14651
916.483	14552
916.595	14396
916.708	14419
916.82	14328
916.932	14408
917.044	14389
917.156	14343
917.268	14248
917.38	14332
917.491	14298
917.603	14351
917.715	14412
917.826	14393
917.938	14286
918.049	14111
918.161	14290
918.272	14393
918.384	14301
918.495	14240
918.606	14111
918.717	13940
918.828	14123
918.939	14130
919.05	14008
919.161	13997
919.272	13879
919.383	13932
919.494	14134
919.604	14278
919.715	14157
919.826	13982
919.936	13978
920.047	14077
920.157	14035
920.267	14229
920.378	14039
920.488	13917
920.598	14286
920.708	14320
920.818	14221
920.928	14164
921.038	14263
921.148	14221
921.258	13967
921.368	13936
921.477	13852
921.587	13731
921.697	13628
921.806	13795
921.916	13658
922.025	13578
922.134	13392
922.244	13316
922.353	13601
922.462	13331
922.571	13190
922.68	13183
922.789	13114
922.898	13122
923.007	13008
923.116	13015
923.224	12935
923.333	13080
923.442	12977
923.55	12863
923.659	12943
923.767	12973
923.876	12894
923.984	12878
924.092	12814
924.201	12871
924.309	12894
924.417	12821
924.525	12741
924.633	12764
924.741	13548
924.849	12528
924.956	12650
925.064	12452
925.172	12498
925.279	12513
925.387	12593
925.494	12483
925.602	12620
925.709	12604
925.816	12410
925.924	12475
926.031	12544
926.138	12475
926.245	12528
926.352	12452
926.459	12460
926.566	12555
926.673	12452
926.779	12281
926.886	12273
926.993	12190
927.099	12136
927.206	12064
927.312	12087
927.419	12155
927.525	12053
927.631	12098
927.737	11942
927.843	12049
927.95	11847
928.056	11954
928.162	11923
928.267	12003
928.373	12601
928.479	11958
928.585	11767
928.69	11874
928.796	12007
928.901	11805
929.007	11756
929.112	11843
929.218	11714
929.323	11722
929.428	11646
929.533	11703
929.638	11676
929.743	11665
929.848	11558
929.953	11592
930.058	11608
930.163	11288
930.267	11421
930.372	11501
930.477	11341
930.581	11532
930.685	11421
930.79	11189
930.894	11315
930.998	11322
931.103	11433
931.207	10995
931.311	10889
931.415	10847
931.519	10668
931.623	10630
