Data from test_V78500241_3383.txt Node
Date: Fri Mar 25 15:33:25 CST 2022
User: usil
Spectrometer: V785-0024
Trigger mode: 0
Integration Time (sec): 4.000000E-1
Scans to average: 1
Nonlinearity correction enabled: false
Boxcar width: 0
Storing dark spectrum: false
XAxis mode: Wavelengths
Number of Pixels in Spectrum: 1024
>>>>>Begin Spectral Data<<<<<
801.071	27298
801.214	27218
801.356	27062
801.499	26929
801.641	26773
801.783	26632
801.926	26861
802.068	26777
802.211	26804
802.353	26693
802.496	26480
802.638	26381
802.78	26366
802.923	26309
803.065	26301
803.208	26358
803.35	26503
803.492	26488
803.635	26579
803.777	26495
803.919	26549
804.061	26868
804.204	26537
804.346	26533
804.488	26453
804.63	26644
804.773	26473
804.915	26724
805.057	26697
805.199	26545
805.341	26598
805.483	26674
805.626	26617
805.768	26629
805.91	26785
806.052	26785
806.194	26556
806.336	26849
806.478	26686
806.62	26651
806.762	26678
806.904	26998
807.046	27051
807.188	27058
807.33	27116
807.472	27154
807.614	26998
807.756	27085
807.898	26868
808.04	26823
808.182	26990
808.324	26967
808.465	26933
808.607	27142
808.749	27336
808.891	27370
809.033	27427
809.174	27268
809.316	27176
809.458	27291
809.6	27283
809.741	27359
809.883	27207
810.025	27439
810.166	27542
810.308	27488
810.45	27462
810.591	27378
810.733	27408
810.875	27131
811.016	27230
811.158	27222
811.299	27245
811.441	27481
811.582	27526
811.724	27233
811.865	27294
812.007	27279
812.148	27325
812.29	27184
812.431	27439
812.573	27622
812.714	27663
812.855	27793
812.997	27823
813.138	28188
813.279	27785
813.421	27732
813.562	27675
813.703	27564
813.845	27424
813.986	27188
814.127	27112
814.268	26895
814.41	26906
814.551	26963
814.692	26906
814.833	26940
814.974	26834
815.115	26914
815.256	26705
815.397	26895
815.539	26785
815.68	26743
815.821	26549
815.962	26773
816.103	26655
816.244	26556
816.385	26427
816.526	26533
816.666	26202
816.807	26202
816.948	26134
817.089	26187
817.23	26298
817.371	26084
817.512	26084
817.653	26225
817.793	26145
817.934	26275
818.075	26336
818.216	26161
818.356	26115
818.497	26180
818.638	25917
818.778	25887
818.919	25875
819.06	25986
819.2	26161
819.341	26058
819.481	26240
819.622	26187
819.762	26476
819.903	26499
820.043	26514
820.184	26389
820.324	26206
820.465	26446
820.605	26389
820.746	26278
820.886	26142
821.026	26305
821.167	26172
821.307	26229
821.447	26157
821.588	26157
821.728	26001
821.868	25841
822.008	25719
822.149	25601
822.289	25601
822.429	25479
822.569	25282
822.709	25251
822.849	25259
822.99	25270
823.13	25061
823.27	25088
823.41	24909
823.55	24840
823.69	24924
823.83	24913
823.97	24817
824.11	24806
824.25	24734
824.389	24753
824.529	24802
824.669	24757
824.809	24882
824.949	24894
825.089	24776
825.228	24890
825.368	24688
825.508	24661
825.648	24757
825.787	24703
825.927	24802
826.067	24612
826.206	24700
826.346	24601
826.485	24681
826.625	24623
826.765	24768
826.904	24707
827.044	24410
827.183	24452
827.323	24403
827.462	24247
827.601	24323
827.741	24369
827.88	24407
828.02	24213
828.159	24216
828.298	24445
828.437	24467
828.577	24273
828.716	24464
828.855	24361
828.994	24148
829.134	24171
829.273	24133
829.412	23965
829.551	24003
829.69	24102
829.829	23992
829.968	24117
830.107	24171
830.246	24171
830.385	24049
830.524	24049
830.663	24003
830.802	23821
830.941	23783
831.08	23703
831.219	23840
831.357	23897
831.496	23954
831.635	23699
831.774	23752
831.913	23581
832.051	23589
832.19	23459
832.329	23524
832.467	23467
832.606	23326
832.744	23277
832.883	23505
833.022	23364
833.16	23414
833.299	23402
833.437	23463
833.576	23501
833.714	23554
833.852	23440
833.991	23425
834.129	23592
834.267	23665
834.406	23486
834.544	23459
834.682	23482
834.821	23501
834.959	23604
835.097	23482
835.235	23657
835.373	23524
835.511	23433
835.65	23372
835.788	23379
835.926	23193
836.064	23113
836.202	23185
836.34	23364
836.478	23448
836.615	23250
836.753	23330
836.891	23337
837.029	23337
837.167	23212
837.305	23318
837.443	23162
837.58	23159
837.718	23337
837.856	23193
837.993	23151
838.131	23296
838.269	23117
838.406	23102
838.544	23033
838.681	23033
838.819	22809
838.956	22626
839.094	22706
839.231	22755
839.369	22816
839.506	22995
839.643	22919
839.781	22744
839.918	22664
840.055	22717
840.193	22717
840.33	22451
840.467	22618
840.604	22729
840.742	22889
840.879	22535
841.016	22557
841.153	22542
841.29	22710
841.427	22596
841.564	22565
841.701	22588
841.838	22573
841.975	22474
842.112	22504
842.249	22409
842.385	22344
842.522	22607
842.659	22474
842.796	22333
842.933	22451
843.069	22402
843.206	22402
843.343	22394
843.479	22451
843.616	22295
843.752	22147
843.889	22181
844.025	22272
844.162	22181
844.298	22230
844.435	22010
844.571	22234
844.708	22223
844.844	22341
844.98	22215
845.117	22219
845.253	22150
845.389	21987
845.525	22185
845.661	21975
845.798	21956
845.934	21907
846.07	21895
846.206	21842
846.342	22013
846.478	21895
846.614	21713
846.75	21625
846.886	21583
847.022	21728
847.158	21641
847.294	21644
847.429	21671
847.565	21523
847.701	21934
847.837	21310
847.972	21344
848.108	21443
848.244	21386
848.379	21237
848.515	21272
848.65	21226
848.786	21138
848.921	21169
849.057	21294
849.192	21340
849.328	21294
849.463	21211
849.598	21184
849.734	21154
849.869	21058
850.004	20975
850.14	21001
850.275	21017
850.41	20956
850.545	20823
850.68	20975
850.815	21020
850.95	20891
851.085	21222
851.22	21112
851.355	21070
851.49	20956
851.625	20861
851.76	20872
851.895	20811
852.03	20857
852.165	20990
852.299	20967
852.434	21142
852.569	20937
852.703	20864
852.838	20979
852.973	21104
853.107	21043
853.242	20956
853.376	20796
853.511	20659
853.645	20731
853.78	20883
853.914	20857
854.048	20781
854.183	20739
854.317	20804
854.451	20910
854.585	20823
854.72	20925
854.854	20960
854.988	20678
855.122	20750
855.256	20724
855.39	20815
855.524	20864
855.658	20796
855.792	20735
855.926	20823
856.06	20819
856.194	20853
856.327	20743
856.461	20754
856.595	20777
856.729	20788
856.862	20883
856.996	20796
857.13	20785
857.263	20842
857.397	20868
857.53	20750
857.664	20986
857.797	20830
857.931	20929
858.064	20826
858.197	20857
858.331	20781
858.464	20819
858.597	20686
858.731	20743
858.864	20743
858.997	20842
859.13	20727
859.263	20807
859.396	20914
859.529	20834
859.662	20750
859.795	20735
859.928	20765
860.061	20998
860.194	21032
860.327	20838
860.46	20937
860.592	20990
860.725	20941
860.858	20941
860.99	20796
861.123	20678
861.256	20807
861.388	20842
861.521	21477
861.653	20503
861.786	20663
861.918	20708
862.05	20712
862.183	20750
862.315	20746
862.447	20777
862.58	20651
862.712	20590
862.844	20541
862.976	20594
863.108	20457
863.24	20800
863.372	20442
863.504	20530
863.636	20537
863.768	20476
863.9	20609
864.032	20533
864.164	20518
864.296	20670
864.428	20594
864.559	20571
864.691	20522
864.823	20537
864.954	20533
865.086	20484
865.217	20530
865.349	20362
865.48	20469
865.612	20450
865.743	20495
865.875	20530
866.006	20454
866.137	20355
866.269	20518
866.4	20377
866.531	20374
866.662	20313
866.793	20374
866.924	20351
867.055	20415
867.186	20385
867.317	20263
867.448	20343
867.579	20336
867.71	20263
867.841	20328
867.972	20263
868.103	20328
868.233	20199
868.364	20358
868.495	20412
868.625	20552
868.756	20758
868.886	20575
869.017	20564
869.147	20758
869.278	20788
869.408	20583
869.539	20533
869.669	20731
869.799	20697
869.929	20651
870.06	20781
870.19	20864
870.32	20834
870.45	20910
870.58	21001
870.71	21222
870.84	20975
870.97	21131
871.1	20982
871.23	21173
871.36	21317
871.489	21173
871.619	21184
871.749	21184
871.879	21184
872.008	21332
872.138	21180
872.267	21085
872.397	21116
872.526	21028
872.656	20986
872.785	21055
872.915	21268
873.044	21378
873.173	21195
873.303	21294
873.432	21283
873.561	21230
873.69	21154
873.819	21237
873.948	21256
874.077	21256
874.206	21199
874.335	21329
874.464	21374
874.593	21477
874.722	21291
874.851	21580
874.979	21386
875.108	21538
875.237	21466
875.365	21370
875.494	21408
875.623	21454
875.751	21424
875.88	21545
876.008	21610
876.136	21671
876.265	21888
876.393	21918
876.521	21915
876.65	22070
876.778	21922
876.906	21751
877.034	21717
877.162	21876
877.29	21724
877.418	21785
877.546	21709
877.674	21819
877.802	21709
877.93	21842
878.058	21857
878.185	21622
878.313	21724
878.441	21739
878.568	21469
878.696	21633
878.824	21937
878.951	21892
879.079	21918
879.206	22078
879.333	21873
879.461	21766
879.588	21930
879.715	21953
879.842	22013
879.97	21789
880.097	21622
880.224	21724
880.351	21660
880.478	21599
880.605	21690
880.732	21595
880.859	21770
880.986	21728
881.112	21599
881.239	21447
881.366	21348
881.493	21405
881.619	21214
881.746	21207
881.872	21283
881.999	21169
882.125	21135
882.252	21249
882.378	21184
882.505	21332
882.631	21119
882.757	20906
882.883	20933
883.01	20944
883.136	20948
883.262	20864
883.388	20750
883.514	20872
883.64	20948
883.766	20895
883.892	20769
884.018	20788
884.143	20990
884.269	20960
884.395	20731
884.52	20609
884.646	20609
884.772	20446
884.897	20503
885.023	20587
885.148	20743
885.274	20777
885.399	20609
885.524	20594
885.65	20568
885.775	20533
885.9	20526
886.025	20651
886.15	20724
886.275	20450
886.4	20461
886.525	20590
886.65	20476
886.775	20522
886.9	20670
887.025	20800
887.149	20530
887.274	20317
887.399	20423
887.523	20358
887.648	20286
887.773	20332
887.897	20343
888.021	20347
888.146	20309
888.27	20473
888.395	20503
888.519	20446
888.643	20358
888.767	20393
888.891	20183
889.015	20115
889.139	20157
889.263	20096
889.387	20153
889.511	20343
889.635	20278
889.759	20005
889.883	20084
890.006	20149
890.13	20218
890.254	20100
890.377	20111
890.501	19852
890.624	19879
890.748	19913
890.871	19807
890.995	19685
891.118	19746
891.241	19769
891.364	19757
891.488	19879
891.611	19685
891.734	19681
891.857	19677
891.98	19788
892.103	19761
892.226	19651
892.349	19651
892.471	19552
892.594	19605
892.717	19727
892.839	19552
892.962	19681
893.085	19746
893.207	19559
893.33	19548
893.452	19472
893.575	19712
893.697	19734
893.819	19727
893.941	19970
894.064	19871
894.186	19601
894.308	19582
894.43	19651
894.552	19753
894.674	19750
894.796	19537
894.918	19639
895.04	19624
895.161	19791
895.283	19727
895.405	19662
895.526	19677
895.648	19624
895.769	19590
895.891	19689
896.012	19860
896.134	19830
896.255	19582
896.376	19605
896.498	19715
896.619	19727
896.74	19628
896.861	19719
896.982	19864
897.103	20058
897.224	20039
897.345	19875
897.466	19830
897.587	19864
897.708	19967
897.828	19894
897.949	19818
898.07	19826
898.19	19849
898.311	20027
898.431	19715
898.552	19807
898.672	19936
898.792	19978
898.913	19913
899.033	19776
899.153	19624
899.273	19567
899.393	19613
899.513	19639
899.633	19620
899.753	19662
899.873	19601
899.993	19601
900.113	19567
900.232	19578
900.352	19464
900.472	19422
900.591	19403
900.711	19426
900.83	19289
900.95	19537
901.069	19483
901.189	19251
901.308	19069
901.427	19038
901.546	19084
901.665	19019
901.784	18993
901.904	18867
902.023	18734
902.141	18631
902.26	18585
902.379	18521
902.498	18464
902.617	18464
902.735	18528
902.854	18547
902.973	18384
903.091	18041
903.21	18155
903.328	18277
903.446	18140
903.565	17996
903.683	18011
903.801	17824
903.919	17927
904.038	17942
904.156	17790
904.274	17958
904.392	17691
904.51	17821
904.627	17615
904.745	17764
904.863	17885
904.981	17535
905.098	17406
905.216	17429
905.334	17444
905.451	17532
905.569	17395
905.686	17589
905.803	17490
905.921	17280
906.038	17318
906.155	17326
906.272	17132
906.389	17178
906.506	17128
906.623	17090
906.74	16976
906.857	16854
906.974	16896
907.091	16980
907.208	17147
907.324	16915
907.441	16904
907.557	16733
907.674	16748
907.79	16622
907.907	16733
908.023	16626
908.139	16691
908.256	16683
908.372	16592
908.488	16618
908.604	16474
908.72	16440
908.836	16405
908.952	16371
909.068	16519
909.184	16538
909.3	16478
909.415	16451
909.531	16371
909.647	16234
909.762	16173
909.878	16200
909.993	16200
910.108	16109
910.224	16105
910.339	16055
910.454	15873
910.57	15964
910.685	15865
910.8	16097
910.915	16188
911.03	15880
911.145	15800
911.259	15652
911.374	15709
911.489	15564
911.604	15663
911.718	15530
911.833	15488
911.947	15370
912.062	15344
912.176	15584
912.291	15511
912.405	15450
912.519	15728
912.633	15789
912.748	15523
912.862	15477
912.976	15340
913.09	15222
913.204	15306
913.318	15192
913.431	15481
913.545	15359
913.659	15485
913.772	15302
913.886	15081
914	15218
914.113	15245
914.226	15249
914.34	15230
914.453	15001
914.566	15108
914.68	15077
914.793	15013
914.906	14762
915.019	14750
915.132	14632
915.245	14674
915.358	14739
915.47	14777
915.583	14708
915.696	14724
915.809	14773
915.921	14891
916.034	14648
916.146	14746
916.259	14663
916.371	14773
916.483	14697
916.595	14556
916.708	14579
916.82	14613
916.932	14587
917.044	14590
917.156	14465
917.268	14358
917.38	14434
917.491	14404
917.603	14454
917.715	14446
917.826	14514
917.938	14347
918.049	14278
918.161	14389
918.272	14507
918.384	14419
918.495	14324
918.606	14218
918.717	14172
918.828	14210
918.939	14199
919.05	14077
919.161	14134
919.272	13955
919.383	13993
919.494	14199
919.604	14244
919.715	14119
919.826	14005
919.936	14191
920.047	14324
920.157	14069
920.267	14336
920.378	14157
920.488	14100
920.598	14237
920.708	14457
920.818	14252
920.928	14244
921.038	14454
921.148	14259
921.258	14111
921.368	13997
921.477	13944
921.587	13890
921.697	13712
921.806	13894
921.916	13788
922.025	13544
922.134	13563
922.244	13548
922.353	13643
922.462	13415
922.571	13297
922.68	13251
922.789	13247
922.898	13107
923.007	13065
923.116	13251
923.224	13107
923.333	13194
923.442	13023
923.55	12985
923.659	13023
923.767	13175
923.876	13008
923.984	13057
924.092	12890
924.201	13000
924.309	12970
924.417	13019
924.525	12859
924.633	12875
924.741	13803
924.849	12681
924.956	12760
925.064	12570
925.172	12525
925.279	12570
925.387	12642
925.494	12635
925.602	12772
925.709	12627
925.816	12566
925.924	12540
926.031	12639
926.138	12665
926.245	12513
926.352	12429
926.459	12665
926.566	12593
926.673	12479
926.779	12308
926.886	12350
926.993	12254
927.099	12163
927.206	12152
927.312	12079
927.419	12205
927.525	12220
927.631	12262
927.737	12072
927.843	11965
927.95	11935
928.056	12072
928.162	12053
928.267	11980
928.373	12662
928.479	12110
928.585	11965
928.69	11977
928.796	12034
928.901	11828
929.007	11680
929.112	11897
929.218	11851
929.323	11809
929.428	11653
929.533	11980
929.638	11710
929.743	11688
929.848	11726
929.953	11699
930.058	11589
930.163	11433
930.267	11398
930.372	11623
930.477	11376
930.581	11657
930.685	11349
930.79	11395
930.894	11345
930.998	11360
931.103	11372
931.207	11105
931.311	11075
931.415	10881
931.519	10774
931.623	10736
