Data from test_V78500241_3490.txt Node
Date: Fri Mar 25 15:34:09 CST 2022
User: usil
Spectrometer: V785-0024
Trigger mode: 0
Integration Time (sec): 4.000000E-1
Scans to average: 1
Nonlinearity correction enabled: false
Boxcar width: 0
Storing dark spectrum: false
XAxis mode: Wavelengths
Number of Pixels in Spectrum: 1024
>>>>>Begin Spectral Data<<<<<
801.071	27291
801.214	27188
801.356	26891
801.499	26853
801.641	26910
801.783	26842
801.926	26876
802.068	26788
802.211	26583
802.353	26746
802.496	26484
802.638	26518
802.78	26377
802.923	26358
803.065	26351
803.208	26271
803.35	26332
803.492	26549
803.635	26621
803.777	26370
803.919	26598
804.061	26914
804.204	26541
804.346	26499
804.488	26476
804.63	26480
804.773	26358
804.915	26602
805.057	26834
805.199	26503
805.341	26754
805.483	26678
805.626	26674
805.768	26446
805.91	26777
806.052	26746
806.194	26674
806.336	26705
806.478	26804
806.62	26674
806.762	26758
806.904	27051
807.046	27074
807.188	27081
807.33	27100
807.472	27070
807.614	27009
807.756	27077
807.898	26956
808.04	26834
808.182	27051
808.324	26975
808.465	26906
808.607	27024
808.749	27291
808.891	27249
809.033	27443
809.174	27386
809.316	27313
809.458	27272
809.6	27218
809.741	27408
809.883	27382
810.025	27534
810.166	27496
810.308	27675
810.45	27454
810.591	27386
810.733	27313
810.875	27195
811.016	27150
811.158	27203
811.299	27435
811.441	27427
811.582	27427
811.724	27165
811.865	27241
812.007	27161
812.148	27252
812.29	27256
812.431	27492
812.573	27694
812.714	27534
812.855	27797
812.997	27827
813.138	27930
813.279	27797
813.421	27850
813.562	27656
813.703	27564
813.845	27382
813.986	27180
814.127	27100
814.268	27001
814.41	26887
814.551	26891
814.692	27047
814.833	26910
814.974	26910
815.115	26944
815.256	26743
815.397	26727
815.539	26739
815.68	26648
815.821	26724
815.962	26701
816.103	26705
816.244	26617
816.385	26636
816.526	26389
816.666	26275
816.807	26050
816.948	26187
817.089	26183
817.23	26229
817.371	26271
817.512	26298
817.653	26035
817.793	26103
817.934	26100
818.075	26282
818.216	26103
818.356	26164
818.497	26069
818.638	25871
818.778	25852
818.919	26096
819.06	25932
819.2	26058
819.341	26046
819.481	26122
819.622	26320
819.762	26450
819.903	26446
820.043	26476
820.184	26271
820.324	26221
820.465	26442
820.605	26377
820.746	26271
820.886	26054
821.026	26366
821.167	26244
821.307	26362
821.447	26100
821.588	26031
821.728	26005
821.868	25875
822.008	25616
822.149	25723
822.289	25700
822.429	25521
822.569	25266
822.709	25297
822.849	25221
822.99	25137
823.13	25118
823.27	25168
823.41	25042
823.55	24932
823.69	25046
823.83	24951
823.97	24901
824.11	24703
824.25	24745
824.389	24795
824.529	24897
824.669	24776
824.809	24814
824.949	24901
825.089	24760
825.228	24871
825.368	24536
825.508	24741
825.648	24635
825.787	24498
825.927	24681
826.067	24658
826.206	24658
826.346	24574
826.485	24722
826.625	24620
826.765	24878
826.904	24730
827.044	24467
827.183	24460
827.323	24323
827.462	24376
827.601	24418
827.741	24414
827.88	24536
828.02	24296
828.159	24380
828.298	24391
828.437	24391
828.577	24346
828.716	24353
828.855	24285
828.994	24106
829.134	24102
829.273	24228
829.412	24178
829.551	23954
829.69	24114
829.829	24152
829.968	24129
830.107	24087
830.246	24224
830.385	24060
830.524	23946
830.663	23870
830.802	23836
830.941	23566
831.08	23668
831.219	23923
831.357	23786
831.496	23870
831.635	23646
831.774	23589
831.913	23543
832.051	23570
832.19	23417
832.329	23482
832.467	23482
832.606	23326
832.744	23326
832.883	23402
833.022	23322
833.16	23474
833.299	23372
833.437	23277
833.576	23452
833.714	23474
833.852	23531
833.991	23524
834.129	23646
834.267	23543
834.406	23414
834.544	23585
834.682	23482
834.821	23414
834.959	23505
835.097	23452
835.235	23524
835.373	23425
835.511	23425
835.65	23311
835.788	23288
835.926	23402
836.064	23014
836.202	23299
836.34	23284
836.478	23368
836.615	23326
836.753	23292
836.891	23353
837.029	23376
837.167	23242
837.305	23147
837.443	23159
837.58	23178
837.718	23220
837.856	23197
837.993	23056
838.131	23269
838.269	23029
838.406	23121
838.544	23022
838.681	22843
838.819	22896
838.956	22698
839.094	22618
839.231	22729
839.369	22778
839.506	23086
839.643	22797
839.781	22618
839.918	22672
840.055	22618
840.193	22630
840.33	22569
840.467	22603
840.604	22512
840.742	22767
840.879	22421
841.016	22573
841.153	22485
841.29	22637
841.427	22516
841.564	22611
841.701	22573
841.838	22493
841.975	22557
842.112	22542
842.249	22424
842.385	22337
842.522	22611
842.659	22459
842.796	22325
842.933	22337
843.069	22360
843.206	22348
843.343	22432
843.479	22390
843.616	22371
843.752	22204
843.889	22325
844.025	22265
844.162	22112
844.298	22200
844.435	22105
844.571	22029
844.708	22154
844.844	22223
844.98	22105
845.117	22192
845.253	21979
845.389	21975
845.525	22006
845.661	22021
845.798	21842
845.934	21895
846.07	21865
846.206	21819
846.342	21945
846.478	21854
846.614	21705
846.75	21523
846.886	21625
847.022	21728
847.158	21705
847.294	21629
847.429	21656
847.565	21591
847.701	21816
847.837	21325
847.972	21393
848.108	21382
848.244	21294
848.379	21252
848.515	21245
848.65	21195
848.786	21142
848.921	21294
849.057	21291
849.192	21176
849.328	21154
849.463	21310
849.598	21119
849.734	21119
849.869	21104
850.004	20971
850.14	20902
850.275	20971
850.41	20804
850.545	20887
850.68	20910
850.815	20960
850.95	20979
851.085	21066
851.22	21150
851.355	20891
851.49	20994
851.625	20990
851.76	20979
851.895	20876
852.03	20842
852.165	20902
852.299	20876
852.434	21131
852.569	20975
852.703	20910
852.838	20990
852.973	21161
853.107	21135
853.242	20845
853.376	20765
853.511	20644
853.645	20735
853.78	20872
853.914	20811
854.048	20769
854.183	20819
854.317	20796
854.451	20914
854.585	20773
854.72	20697
854.854	20807
854.988	20750
855.122	20819
855.256	20659
855.39	20804
855.524	20830
855.658	20815
855.792	20750
855.926	20796
856.06	20807
856.194	20937
856.327	20621
856.461	20716
856.595	20686
856.729	20663
856.862	20849
856.996	20800
857.13	20705
857.263	20941
857.397	20769
857.53	20697
857.664	20929
857.797	20826
857.931	20956
858.064	20720
858.197	20906
858.331	20629
858.464	20629
858.597	20640
858.731	20777
858.864	20678
858.997	20777
859.13	20861
859.263	20769
859.396	20880
859.529	20762
859.662	20720
859.795	20705
859.928	20921
860.061	20876
860.194	21058
860.327	20952
860.46	20796
860.592	20853
860.725	20785
860.858	20967
860.99	20804
861.123	20598
861.256	20750
861.388	20663
861.521	21530
861.653	20724
861.786	20552
861.918	20564
862.05	20716
862.183	20617
862.315	20663
862.447	20853
862.58	20655
862.712	20556
862.844	20377
862.976	20686
863.108	20579
863.24	20944
863.372	20450
863.504	20560
863.636	20469
863.768	20393
863.9	20549
864.032	20419
864.164	20598
864.296	20594
864.428	20640
864.559	20632
864.691	20583
864.823	20568
864.954	20503
865.086	20370
865.217	20442
865.349	20408
865.48	20271
865.612	20400
865.743	20495
865.875	20454
866.006	20282
866.137	20385
866.269	20484
866.4	20336
866.531	20256
866.662	20278
866.793	20313
866.924	20381
867.055	20343
867.186	20366
867.317	20271
867.448	20259
867.579	20400
867.71	20176
867.841	20282
867.972	20370
868.103	20381
868.233	20282
868.364	20328
868.495	20480
868.625	20511
868.756	20583
868.886	20450
869.017	20511
869.147	20743
869.278	20689
869.408	20511
869.539	20587
869.669	20693
869.799	20705
869.929	20625
870.06	20617
870.19	20967
870.32	20887
870.45	20906
870.58	20998
870.71	21150
870.84	21154
870.97	20948
871.1	20929
871.23	21237
871.36	21184
871.489	21146
871.619	21116
871.749	21268
871.879	21157
872.008	21226
872.138	21233
872.267	21047
872.397	21024
872.526	20994
872.656	20914
872.785	21028
872.915	21268
873.044	21142
873.173	21154
873.303	21363
873.432	21336
873.561	21389
873.69	21249
873.819	21237
873.948	21279
874.077	21252
874.206	21203
874.335	21135
874.464	21370
874.593	21492
874.722	21389
874.851	21614
874.979	21496
875.108	21450
875.237	21462
875.365	21363
875.494	21313
875.623	21477
875.751	21439
875.88	21477
876.008	21682
876.136	21606
876.265	21819
876.393	21998
876.521	21846
876.65	21857
876.778	21808
876.906	21831
877.034	21755
877.162	21690
877.29	21747
877.418	21903
877.546	21823
877.674	21736
877.802	21816
877.93	21823
878.058	21720
878.185	21751
878.313	21610
878.441	21679
878.568	21572
878.696	21652
878.824	21751
878.951	21816
879.079	21876
879.206	22025
879.333	21884
879.461	21770
879.588	21895
879.715	21922
879.842	22036
879.97	21812
880.097	21637
880.224	21675
880.351	21663
880.478	21580
880.605	21576
880.732	21606
880.859	21884
880.986	21618
881.112	21789
881.239	21507
881.366	21424
881.493	21359
881.619	21233
881.746	21226
881.872	21207
881.999	21173
882.125	21051
882.252	21252
882.378	21230
882.505	21192
882.631	21055
882.757	20921
882.883	20998
883.01	21009
883.136	20895
883.262	20891
883.388	20823
883.514	20830
883.64	20895
883.766	20941
883.892	20648
884.018	20632
884.143	20891
884.269	21039
884.395	20625
884.52	20560
884.646	20560
884.772	20575
884.897	20358
885.023	20564
885.148	20602
885.274	20701
885.399	20590
885.524	20454
885.65	20583
885.775	20651
885.9	20473
886.025	20632
886.15	20579
886.275	20511
886.4	20427
886.525	20476
886.65	20473
886.775	20541
886.9	20640
887.025	20864
887.149	20609
887.274	20336
887.399	20370
887.523	20374
887.648	20290
887.773	20229
887.897	20389
888.021	20450
888.146	20263
888.27	20404
888.395	20457
888.519	20324
888.643	20370
888.767	20210
888.891	20317
889.015	20199
889.139	20115
889.263	20107
889.387	20290
889.511	20286
889.635	20320
889.759	20122
889.883	20161
890.006	20130
890.13	20286
890.254	20077
890.377	20054
890.501	19909
890.624	19883
890.748	19967
890.871	19784
890.995	19772
891.118	19620
891.241	19746
891.364	19700
891.488	19772
891.611	19670
891.734	19753
891.857	19628
891.98	19670
892.103	19845
892.226	19791
892.349	19712
892.471	19499
892.594	19700
892.717	19746
892.839	19628
892.962	19601
893.085	19772
893.207	19647
893.33	19586
893.452	19525
893.575	19719
893.697	19567
893.819	19811
893.941	19879
894.064	19784
894.186	19613
894.308	19590
894.43	19788
894.552	19761
894.674	19734
894.796	19552
894.918	19639
895.04	19544
895.161	19731
895.283	19563
895.405	19628
895.526	19613
895.648	19670
895.769	19601
895.891	19651
896.012	19628
896.134	19731
896.255	19639
896.376	19582
896.498	19685
896.619	19712
896.74	19643
896.861	19647
896.982	19959
897.103	20195
897.224	19871
897.345	19887
897.466	19738
897.587	19890
897.708	20046
897.828	19944
897.949	19841
898.07	19696
898.19	19845
898.311	19860
898.431	19635
898.552	19860
898.672	19849
898.792	19845
898.913	19890
899.033	19761
899.153	19658
899.273	19483
899.393	19506
899.513	19643
899.633	19685
899.753	19658
899.873	19499
899.993	19601
900.113	19567
900.232	19616
900.352	19430
900.472	19365
900.591	19327
900.711	19540
900.83	19388
900.95	19502
901.069	19529
901.189	19270
901.308	18993
901.427	18996
901.546	19012
901.665	19076
901.784	19034
901.904	18890
902.023	18814
902.141	18532
902.26	18532
902.379	18623
902.498	18498
902.617	18369
902.735	18582
902.854	18388
902.973	18395
903.091	18178
903.21	18228
903.328	18296
903.446	18060
903.565	18003
903.683	18068
903.801	17969
903.919	18038
904.038	17946
904.156	17840
904.274	17882
904.392	17802
904.51	17691
904.627	17581
904.745	17859
904.863	17775
904.981	17524
905.098	17535
905.216	17429
905.334	17497
905.451	17532
905.569	17341
905.686	17410
905.803	17402
905.921	17124
906.038	17330
906.155	17227
906.272	17136
906.389	17181
906.506	17033
906.623	17014
906.74	16991
906.857	17010
906.974	16866
907.091	16987
907.208	17140
907.324	16919
907.441	16904
907.557	16725
907.674	16713
907.79	16546
907.907	16637
908.023	16736
908.139	16641
908.256	16675
908.372	16664
908.488	16577
908.604	16462
908.72	16375
908.836	16481
908.952	16352
909.068	16443
909.184	16535
909.3	16409
909.415	16474
909.531	16375
909.647	16226
909.762	16192
909.878	16120
909.993	16150
910.108	16078
910.224	16044
910.339	16181
910.454	15968
910.57	15876
910.685	15876
910.8	16067
910.915	16013
911.03	15975
911.145	15709
911.259	15694
911.374	15713
911.489	15675
911.604	15545
911.718	15469
911.833	15462
911.947	15462
912.062	15351
912.176	15561
912.291	15553
912.405	15462
912.519	15671
912.633	15652
912.748	15507
912.862	15408
912.976	15329
913.09	15184
913.204	15294
913.318	15313
913.431	15351
913.545	15378
913.659	15344
913.772	15180
913.886	15157
914	15154
914.113	15211
914.226	15188
914.34	15199
914.453	14937
914.566	15127
914.68	15116
914.793	15024
914.906	14819
915.019	14708
915.132	14708
915.245	14750
915.358	14686
915.47	14762
915.583	14830
915.696	14659
915.809	14834
915.921	14887
916.034	14670
916.146	14640
916.259	14606
916.371	14746
916.483	14716
916.595	14556
916.708	14648
916.82	14579
916.932	14549
917.044	14545
917.156	14415
917.268	14423
917.38	14339
917.491	14343
917.603	14358
917.715	14396
917.826	14427
917.938	14400
918.049	14199
918.161	14427
918.272	14492
918.384	14579
918.495	14282
918.606	14183
918.717	14126
918.828	14164
918.939	14134
919.05	14081
919.161	14081
919.272	13925
919.383	14065
919.494	14183
919.604	14396
919.715	14153
919.826	14092
919.936	14100
920.047	14240
920.157	14054
920.267	14366
920.378	14187
920.488	14084
920.598	14290
920.708	14389
920.818	14229
920.928	14202
921.038	14427
921.148	14366
921.258	14035
921.368	13978
921.477	13879
921.587	13860
921.697	13757
921.806	13944
921.916	13674
922.025	13552
922.134	13533
922.244	13525
922.353	13518
922.462	13346
922.571	13308
922.68	13213
922.789	13122
922.898	13171
923.007	13110
923.116	13225
923.224	13232
923.333	13122
923.442	12981
923.55	13034
923.659	12989
923.767	13141
923.876	12977
923.984	13004
924.092	12848
924.201	12947
924.309	12970
924.417	12791
924.525	12985
924.633	12916
924.741	13643
924.849	12681
924.956	12768
925.064	12642
925.172	12582
925.279	12570
925.387	12703
925.494	12681
925.602	12719
925.709	12688
925.816	12513
925.924	12616
926.031	12719
926.138	12658
926.245	12574
926.352	12540
926.459	12559
926.566	12570
926.673	12388
926.779	12395
926.886	12319
926.993	12281
927.099	12121
927.206	12114
927.312	12167
927.419	12194
927.525	12167
927.631	12201
927.737	12095
927.843	12030
927.95	11988
928.056	11988
928.162	11969
928.267	12110
928.373	12570
928.479	12125
928.585	11863
928.69	11958
928.796	11942
928.901	12026
929.007	11779
929.112	11859
929.218	11874
929.323	11748
929.428	11843
929.533	11855
929.638	11722
929.743	11745
929.848	11676
929.953	11760
930.058	11577
930.163	11406
930.267	11436
930.372	11509
930.477	11391
930.581	11729
930.685	11478
930.79	11258
930.894	11402
930.998	11277
931.103	11463
931.207	11140
931.311	11083
931.415	10976
931.519	10820
931.623	10634
