Data from test_V78500241_1677.txt Node
Date: Fri Mar 25 15:21:32 CST 2022
User: usil
Spectrometer: V785-0024
Trigger mode: 0
Integration Time (sec): 4.000000E-1
Scans to average: 1
Nonlinearity correction enabled: false
Boxcar width: 0
Storing dark spectrum: false
XAxis mode: Wavelengths
Number of Pixels in Spectrum: 1024
>>>>>Begin Spectral Data<<<<<
801.071	27842
801.214	27918
801.356	27720
801.499	27648
801.641	27583
801.783	27466
801.926	27515
802.068	27382
802.211	27386
802.353	27416
802.496	27211
802.638	27207
802.78	27039
802.923	27188
803.065	27074
803.208	26971
803.35	27142
803.492	27222
803.635	27306
803.777	27264
803.919	27435
804.061	27709
804.204	27481
804.346	27237
804.488	27389
804.63	27306
804.773	27310
804.915	27370
805.057	27469
805.199	27325
805.341	27469
805.483	27561
805.626	27473
805.768	27401
805.91	27462
806.052	27511
806.194	27374
806.336	27705
806.478	27500
806.62	27427
806.762	27698
806.904	27819
807.046	28048
807.188	27972
807.33	27907
807.472	27972
807.614	27785
807.756	27907
807.898	27720
808.04	27789
808.182	27641
808.324	27694
808.465	27789
808.607	27972
808.749	28196
808.891	28154
809.033	28310
809.174	28215
809.316	28013
809.458	28032
809.6	28131
809.741	28192
809.883	28257
810.025	28428
810.166	28398
810.308	28466
810.45	28375
810.591	28211
810.733	28120
810.875	28109
811.016	28086
811.158	27975
811.299	28207
811.441	28272
811.582	28344
811.724	28158
811.865	28093
812.007	28101
812.148	28147
812.29	28306
812.431	28234
812.573	28291
812.714	28519
812.855	28637
812.997	28725
813.138	28869
813.279	28736
813.421	28713
813.562	28672
813.703	28565
813.845	28265
813.986	28124
814.127	27949
814.268	27865
814.41	27857
814.551	27759
814.692	27747
814.833	27797
814.974	27865
815.115	27907
815.256	27656
815.397	27694
815.539	27652
815.68	27603
815.821	27549
815.962	27671
816.103	27587
816.244	27443
816.385	27359
816.526	27272
816.666	27237
816.807	27074
816.948	27302
817.089	27161
817.23	27108
817.371	27077
817.512	26960
817.653	27043
817.793	27051
817.934	27112
818.075	27001
818.216	27100
818.356	26960
818.497	26971
818.638	26872
818.778	26883
818.919	26899
819.06	26990
819.2	27047
819.341	27047
819.481	27203
819.622	27230
819.762	27397
819.903	27424
820.043	27264
820.184	27100
820.324	27260
820.465	27287
820.605	27306
820.746	27070
820.886	27214
821.026	27199
821.167	27028
821.307	27245
821.447	27176
821.588	26982
821.728	26697
821.868	26777
822.008	26598
822.149	26659
822.289	26488
822.429	26298
822.569	26183
822.709	26248
822.849	26115
822.99	26122
823.13	26050
823.27	25917
823.41	25822
823.55	25856
823.69	25902
823.83	26024
823.97	25822
824.11	25670
824.25	25689
824.389	25685
824.529	25849
824.669	25753
824.809	25780
824.949	25841
825.089	25765
825.228	25731
825.368	25483
825.508	25685
825.648	25506
825.787	25662
825.927	25609
826.067	25597
826.206	25556
826.346	25662
826.485	25757
826.625	25552
826.765	25761
826.904	25639
827.044	25502
827.183	25514
827.323	25301
827.462	25438
827.601	25297
827.741	25274
827.88	25354
828.02	25301
828.159	25316
828.298	25491
828.437	25407
828.577	25312
828.716	25339
828.855	25198
828.994	24973
829.134	25012
829.273	24924
829.412	25076
829.551	25008
829.69	24985
829.829	25080
829.968	25038
830.107	25114
830.246	25053
830.385	24935
830.524	24795
830.663	24787
830.802	24764
830.941	24551
831.08	24563
831.219	24711
831.357	24635
831.496	24829
831.635	24661
831.774	24597
831.913	24498
832.051	24304
832.19	24342
832.329	24334
832.467	24323
832.606	24258
832.744	24277
832.883	24372
833.022	24205
833.16	24251
833.299	24380
833.437	24353
833.576	24410
833.714	24346
833.852	24407
833.991	24308
834.129	24437
834.267	24330
834.406	24216
834.544	24471
834.682	24391
834.821	24388
834.959	24536
835.097	24323
835.235	24498
835.373	24304
835.511	24327
835.65	24174
835.788	24201
835.926	24018
836.064	24110
836.202	23973
836.34	24243
836.478	24334
836.615	24057
836.753	24186
836.891	24243
837.029	24292
837.167	24057
837.305	24038
837.443	24045
837.58	24083
837.718	24182
837.856	24152
837.993	24144
838.131	24007
838.269	23942
838.406	23878
838.544	23897
838.681	23710
838.819	23707
838.956	23589
839.094	23497
839.231	23596
839.369	23653
839.506	23836
839.643	23649
839.781	23687
839.918	23326
840.055	23395
840.193	23372
840.33	23467
840.467	23421
840.604	23436
840.742	23634
840.879	23246
841.016	23379
841.153	23277
841.29	23467
841.427	23402
841.564	23395
841.701	23421
841.838	23356
841.975	23246
842.112	23299
842.249	23311
842.385	23170
842.522	23425
842.659	23235
842.796	23067
842.933	23159
843.069	23124
843.206	23223
843.343	23277
843.479	23124
843.616	23246
843.752	22934
843.889	22889
844.025	23025
844.162	22847
844.298	23025
844.435	22980
844.571	23052
844.708	22881
844.844	23121
844.98	23056
845.117	23094
845.253	22881
845.389	22949
845.525	22923
845.661	22828
845.798	22664
845.934	22721
846.07	22736
846.206	22733
846.342	22782
846.478	22691
846.614	22402
846.75	22386
846.886	22371
847.022	22466
847.158	22417
847.294	22402
847.429	22470
847.565	22455
847.701	22615
847.837	22219
847.972	22093
848.108	22226
848.244	22211
848.379	22036
848.515	21994
848.65	22010
848.786	21987
848.921	21960
849.057	22025
849.192	21968
849.328	22101
849.463	21975
849.598	21964
849.734	22013
849.869	21876
850.004	21808
850.14	21831
850.275	21751
850.41	21732
850.545	21724
850.68	21778
850.815	21838
850.95	21690
851.085	21930
851.22	21827
851.355	21915
851.49	21781
851.625	21793
851.76	21842
851.895	21629
852.03	21682
852.165	21800
852.299	21827
852.434	21876
852.569	21720
852.703	21751
852.838	21717
852.973	21949
853.107	21892
853.242	21682
853.376	21595
853.511	21496
853.645	21549
853.78	21652
853.914	21519
854.048	21557
854.183	21485
854.317	21538
854.451	21709
854.585	21603
854.72	21466
854.854	21610
854.988	21606
855.122	21633
855.256	21492
855.39	21606
855.524	21675
855.658	21690
855.792	21553
855.926	21682
856.06	21701
856.194	21732
856.327	21511
856.461	21656
856.595	21526
856.729	21538
856.862	21724
856.996	21599
857.13	21751
857.263	21739
857.397	21675
857.53	21603
857.664	21534
857.797	21561
857.931	21724
858.064	21583
858.197	21717
858.331	21424
858.464	21481
858.597	21504
858.731	21648
858.864	21557
858.997	21549
859.13	21679
859.263	21633
859.396	21603
859.529	21523
859.662	21519
859.795	21690
859.928	21606
860.061	21755
860.194	21838
860.327	21785
860.46	21564
860.592	21709
860.725	21701
860.858	21656
860.99	21561
861.123	21477
861.256	21542
861.388	21629
861.521	22181
861.653	21572
861.786	21424
861.918	21477
862.05	21485
862.183	21462
862.315	21359
862.447	21583
862.58	21542
862.712	21367
862.844	21313
862.976	21351
863.108	21370
863.24	21873
863.372	21184
863.504	21237
863.636	21317
863.768	21306
863.9	21233
864.032	21237
864.164	21359
864.296	21233
864.428	21454
864.559	21344
864.691	21348
864.823	21344
864.954	21249
865.086	21180
865.217	21161
865.349	21081
865.48	21150
865.612	21279
865.743	21344
865.875	21195
866.006	21005
866.137	21222
866.269	21256
866.4	21214
866.531	21020
866.662	21146
866.793	21001
866.924	21055
867.055	21055
867.186	21146
867.317	21062
867.448	21142
867.579	21020
867.71	21070
867.841	21096
867.972	21142
868.103	21112
868.233	21173
868.364	21161
868.495	21237
868.625	21443
868.756	21492
868.886	21313
869.017	21386
869.147	21367
869.278	21534
869.408	21378
869.539	21325
869.669	21450
869.799	21332
869.929	21450
870.06	21458
870.19	21583
870.32	21644
870.45	21705
870.58	21793
870.71	21781
870.84	21819
870.97	21667
871.1	21823
871.23	21972
871.36	21983
871.489	21911
871.619	21838
871.749	21930
871.879	21960
872.008	22029
872.138	21956
872.267	21972
872.397	21956
872.526	21762
872.656	21812
872.785	21660
872.915	22109
873.044	21937
873.173	21911
873.303	22010
873.432	21998
873.561	22105
873.69	21972
873.819	21899
873.948	22006
874.077	21903
874.206	21953
874.335	21850
874.464	22032
874.593	22246
874.722	22147
874.851	22173
874.979	22120
875.108	22166
875.237	22135
875.365	22078
875.494	22143
875.623	22192
875.751	22154
875.88	22303
876.008	22299
876.136	22325
876.265	22660
876.393	22687
876.521	22603
876.65	22721
876.778	22713
876.906	22512
877.034	22557
877.162	22622
877.29	22455
877.418	22599
877.546	22713
877.674	22531
877.802	22318
877.93	22603
878.058	22493
878.185	22500
878.313	22394
878.441	22538
878.568	22459
878.696	22409
878.824	22417
878.951	22634
879.079	22618
879.206	22858
879.333	22653
879.461	22717
879.588	22649
879.715	22656
879.842	22831
879.97	22607
880.097	22348
880.224	22413
880.351	22409
880.478	22436
880.605	22356
880.732	22337
880.859	22535
880.986	22409
881.112	22394
881.239	22268
881.366	22109
881.493	22048
881.619	22032
881.746	21953
881.872	21827
881.999	21850
882.125	21869
882.252	21903
882.378	22090
882.505	22078
882.631	21816
882.757	21618
882.883	21724
883.01	21709
883.136	21439
883.262	21397
883.388	21469
883.514	21656
883.64	21641
883.766	21481
883.892	21389
884.018	21500
884.143	21443
884.269	21633
884.395	21412
884.52	21245
884.646	21275
884.772	21298
884.897	21233
885.023	21264
885.148	21336
885.274	21435
885.399	21397
885.524	21272
885.65	21287
885.775	21260
885.9	21241
886.025	21348
886.15	21389
886.275	21241
886.4	21237
886.525	21298
886.65	21161
886.775	21131
886.9	21298
887.025	21447
887.149	21287
887.274	21150
887.399	21089
887.523	20906
887.648	21005
887.773	20891
887.897	21001
888.021	21081
888.146	20960
888.27	21138
888.395	21180
888.519	20990
888.643	21165
888.767	21051
888.891	20895
889.015	20785
889.139	20838
889.263	20800
889.387	20925
889.511	21036
889.635	20944
889.759	20815
889.883	20785
890.006	20785
890.13	20914
890.254	20743
890.377	20716
890.501	20503
890.624	20549
890.748	20617
890.871	20598
890.995	20438
891.118	20358
891.241	20389
891.364	20374
891.488	20408
891.611	20332
891.734	20431
891.857	20541
891.98	20427
892.103	20434
892.226	20404
892.349	20320
892.471	20145
892.594	20157
892.717	20374
892.839	20259
892.962	20259
893.085	20423
893.207	20259
893.33	20138
893.452	20263
893.575	20305
893.697	20240
893.819	20564
893.941	20511
894.064	20473
894.186	20271
894.308	20168
894.43	20343
894.552	20446
894.674	20278
894.796	20180
894.918	20237
895.04	20168
895.161	20400
895.283	20393
895.405	20252
895.526	20336
895.648	20240
895.769	20252
895.891	20366
896.012	20358
896.134	20324
896.255	20374
896.376	20153
896.498	20237
896.619	20343
896.74	20252
896.861	20263
896.982	20636
897.103	20682
897.224	20541
897.345	20469
897.466	20587
897.587	20408
897.708	20632
897.828	20533
897.949	20450
898.07	20252
898.19	20362
898.311	20518
898.431	20454
898.552	20457
898.672	20461
898.792	20556
898.913	20488
899.033	20396
899.153	20225
899.273	20278
899.393	20081
899.513	20271
899.633	20256
899.753	20225
899.873	20263
899.993	20225
900.113	20134
900.232	20233
900.352	20119
900.472	20081
900.591	19894
900.711	20043
900.83	20005
900.95	20103
901.069	20065
901.189	20024
901.308	19708
901.427	19559
901.546	19635
901.665	19639
901.784	19548
901.904	19537
902.023	19438
902.141	19145
902.26	19164
902.379	19190
902.498	19091
902.617	19137
902.735	19168
902.854	19095
902.973	18951
903.091	18867
903.21	18810
903.328	18878
903.446	18642
903.565	18612
903.683	18582
903.801	18525
903.919	18483
904.038	18464
904.156	18365
904.274	18395
904.392	18372
904.51	18464
904.627	18262
904.745	18330
904.863	18376
904.981	18174
905.098	18110
905.216	18072
905.334	18022
905.451	18057
905.569	18026
905.686	18148
905.803	18079
905.921	17828
906.038	18007
906.155	17748
906.272	17771
906.389	17737
906.506	17486
906.623	17501
906.74	17448
906.857	17520
906.974	17471
907.091	17551
907.208	17649
907.324	17467
907.441	17490
907.557	17246
907.674	17292
907.79	17204
907.907	17299
908.023	17288
908.139	17349
908.256	17311
908.372	17128
908.488	17128
908.604	17048
908.72	17010
908.836	17018
908.952	17086
909.068	17067
909.184	17067
909.3	17147
909.415	17003
909.531	16957
909.647	16790
909.762	16725
909.878	16615
909.993	16698
910.108	16694
910.224	16664
910.339	16622
910.454	16596
910.57	16451
910.685	16421
910.8	16740
910.915	16618
911.03	16531
911.145	16226
911.259	16280
911.374	16276
911.489	16234
911.604	16150
911.718	15998
911.833	16036
911.947	15945
912.062	15781
912.176	15926
912.291	16017
912.405	15975
912.519	16188
912.633	16230
912.748	16078
912.862	15930
912.976	15903
913.09	15686
913.204	15827
913.318	15918
913.431	15934
913.545	15922
913.659	15991
913.772	15800
913.886	15675
914	15644
914.113	15762
914.226	15751
914.34	15717
914.453	15587
914.566	15637
914.68	15584
914.793	15488
914.906	15275
915.019	15291
915.132	15184
915.245	15218
915.358	15332
915.47	15287
915.583	15256
915.696	15252
915.809	15405
915.921	15412
916.034	15279
916.146	15081
916.259	15135
916.371	15188
916.483	15184
916.595	15135
916.708	15024
916.82	15165
916.932	15062
917.044	15028
917.156	14933
917.268	14925
917.38	14883
917.491	14857
917.603	14925
917.715	14944
917.826	15020
917.938	14842
918.049	14792
918.161	14754
918.272	14963
918.384	14902
918.495	14872
918.606	14678
918.717	14617
918.828	14636
918.939	14636
919.05	14530
919.161	14564
919.272	14465
919.383	14556
919.494	14621
919.604	14853
919.715	14518
919.826	14579
919.936	14480
920.047	14579
920.157	14594
920.267	14804
920.378	14613
920.488	14575
920.598	14739
920.708	14960
920.818	14731
920.928	14826
921.038	14971
921.148	14796
921.258	14537
921.368	14575
921.477	14400
921.587	14336
921.697	14214
921.806	14423
921.916	14176
922.025	14043
922.134	14001
922.244	13967
922.353	14046
922.462	13856
922.571	13757
922.68	13632
922.789	13636
922.898	13632
923.007	13506
923.116	13540
923.224	13624
923.333	13540
923.442	13525
923.55	13510
923.659	13468
923.767	13464
923.876	13377
923.984	13377
924.092	13331
924.201	13316
924.309	13354
924.417	13354
924.525	13213
924.633	13331
924.741	14020
924.849	13122
924.956	13251
925.064	13088
925.172	13053
925.279	12977
925.387	13046
925.494	13137
925.602	13152
925.709	13126
925.816	12890
925.924	12871
926.031	13088
926.138	13000
926.245	12947
926.352	12970
926.459	13046
926.566	13168
926.673	12916
926.779	12772
926.886	12738
926.993	12692
927.099	12570
927.206	12479
927.312	12570
927.419	12665
927.525	12593
927.631	12608
927.737	12460
927.843	12441
927.95	12380
928.056	12407
928.162	12532
928.267	12460
928.373	13015
928.479	12460
928.585	12235
928.69	12361
928.796	12353
928.901	12258
929.007	12224
929.112	12300
929.218	12182
929.323	12186
929.428	12129
929.533	12262
929.638	12152
929.743	12098
929.848	12152
929.953	12114
930.058	11824
930.163	11870
930.267	11851
930.372	11984
930.477	11775
930.581	12038
930.685	11707
930.79	11714
930.894	11840
930.998	11733
931.103	11794
931.207	11372
931.311	11356
931.415	11231
931.519	11151
931.623	11048
