Data from test_V78500241_3076.txt Node
Date: Fri Mar 25 15:31:16 CST 2022
User: usil
Spectrometer: V785-0024
Trigger mode: 0
Integration Time (sec): 4.000000E-1
Scans to average: 1
Nonlinearity correction enabled: false
Boxcar width: 0
Storing dark spectrum: false
XAxis mode: Wavelengths
Number of Pixels in Spectrum: 1024
>>>>>Begin Spectral Data<<<<<
801.071	27268
801.214	27233
801.356	26872
801.499	26963
801.641	26853
801.783	26651
801.926	26792
802.068	26811
802.211	26670
802.353	26598
802.496	26537
802.638	26575
802.78	26427
802.923	26298
803.065	26252
803.208	26404
803.35	26385
803.492	26404
803.635	26632
803.777	26511
803.919	26625
804.061	26842
804.204	26712
804.346	26579
804.488	26522
804.63	26556
804.773	26674
804.915	26507
805.057	26655
805.199	26552
805.341	26800
805.483	26701
805.626	26720
805.768	26609
805.91	26697
806.052	26629
806.194	26583
806.336	26899
806.478	26659
806.62	26731
806.762	26815
806.904	26956
807.046	27214
807.188	27131
807.33	27207
807.472	27142
807.614	27070
807.756	27176
807.898	26944
808.04	26929
808.182	26876
808.324	27081
808.465	27039
808.607	27116
808.749	27291
808.891	27370
809.033	27545
809.174	27427
809.316	27302
809.458	27325
809.6	27241
809.741	27435
809.883	27568
810.025	27709
810.166	27622
810.308	27690
810.45	27648
810.591	27637
810.733	27374
810.875	27310
811.016	27039
811.158	27249
811.299	27488
811.441	27511
811.582	27477
811.724	27264
811.865	27363
812.007	27275
812.148	27313
812.29	27264
812.431	27447
812.573	27549
812.714	27694
812.855	27728
812.997	27808
813.138	28128
813.279	27979
813.421	27785
813.562	27701
813.703	27477
813.845	27458
813.986	27226
814.127	27047
814.268	26960
814.41	26990
814.551	26967
814.692	27150
814.833	26792
814.974	27047
815.115	26982
815.256	26910
815.397	26724
815.539	26895
815.68	26781
815.821	26636
815.962	26769
816.103	26689
816.244	26606
816.385	26480
816.526	26469
816.666	26438
816.807	26058
816.948	26320
817.089	26393
817.23	26252
817.371	26313
817.512	26153
817.653	26229
817.793	26183
817.934	26153
818.075	26286
818.216	26343
818.356	26065
818.497	26027
818.638	25989
818.778	26092
818.919	25871
819.06	26016
819.2	26130
819.341	26225
819.481	26206
819.622	26294
819.762	26419
819.903	26412
820.043	26336
820.184	26298
820.324	26267
820.465	26377
820.605	26465
820.746	26267
820.886	26157
821.026	26313
821.167	26206
821.307	26328
821.447	26355
821.588	26286
821.728	25951
821.868	25795
822.008	25746
822.149	25651
822.289	25742
822.429	25468
822.569	25365
822.709	25335
822.849	25209
822.99	25301
823.13	25183
823.27	25122
823.41	24966
823.55	25072
823.69	25076
823.83	24947
823.97	25034
824.11	24646
824.25	24776
824.389	24654
824.529	24909
824.669	24814
824.809	24859
824.949	24890
825.089	24924
825.228	24795
825.368	24673
825.508	24753
825.648	24684
825.787	24806
825.927	24795
826.067	24631
826.206	24700
826.346	24779
826.485	24833
826.625	24627
826.765	24749
826.904	24730
827.044	24540
827.183	24513
827.323	24338
827.462	24448
827.601	24486
827.741	24384
827.88	24395
828.02	24224
828.159	24338
828.298	24369
828.437	24365
828.577	24399
828.716	24479
828.855	24190
828.994	24110
829.134	24144
829.273	24186
829.412	24034
829.551	24083
829.69	24064
829.829	24197
829.968	24117
830.107	24076
830.246	24144
830.385	24007
830.524	23821
830.663	24018
830.802	23813
830.941	23760
831.08	23672
831.219	23779
831.357	23786
831.496	23863
831.635	23646
831.774	23600
831.913	23615
832.051	23467
832.19	23528
832.329	23520
832.467	23425
832.606	23280
832.744	23254
832.883	23417
833.022	23280
833.16	23425
833.299	23467
833.437	23440
833.576	23520
833.714	23406
833.852	23531
833.991	23509
834.129	23459
834.267	23558
834.406	23459
834.544	23406
834.682	23505
834.821	23512
834.959	23459
835.097	23299
835.235	23429
835.373	23372
835.511	23395
835.65	23288
835.788	23341
835.926	23162
836.064	23079
836.202	23143
836.34	23269
836.478	23326
836.615	23261
836.753	23254
836.891	23208
837.029	23273
837.167	23277
837.305	23261
837.443	23113
837.58	23067
837.718	23242
837.856	23075
837.993	23136
838.131	23200
838.269	23033
838.406	23048
838.544	23003
838.681	22854
838.819	22835
838.956	22698
839.094	22607
839.231	22801
839.369	22805
839.506	22980
839.643	22854
839.781	22660
839.918	22478
840.055	22451
840.193	22592
840.33	22504
840.467	22538
840.604	22599
840.742	22881
840.879	22314
841.016	22409
841.153	22424
841.29	22542
841.427	22584
841.564	22596
841.701	22535
841.838	22546
841.975	22493
842.112	22413
842.249	22325
842.385	22474
842.522	22588
842.659	22409
842.796	22409
842.933	22443
843.069	22181
843.206	22306
843.343	22287
843.479	22306
843.616	22223
843.752	22120
843.889	22078
844.025	22215
844.162	22059
844.298	22147
844.435	21987
844.571	21979
844.708	22082
844.844	22185
844.98	22215
845.117	22147
845.253	21975
845.389	22002
845.525	21949
845.661	21994
845.798	21857
845.934	21994
846.07	21812
846.206	21785
846.342	21956
846.478	21804
846.614	21622
846.75	21466
846.886	21526
847.022	21545
847.158	21561
847.294	21576
847.429	21595
847.565	21595
847.701	21739
847.837	21325
847.972	21237
848.108	21359
848.244	21329
848.379	21150
848.515	21104
848.65	21093
848.786	21203
848.921	21104
849.057	21310
849.192	21233
849.328	21195
849.463	21157
849.598	21096
849.734	20921
849.869	21013
850.004	20887
850.14	20925
850.275	20899
850.41	20842
850.545	20921
850.68	20918
850.815	20876
850.95	20956
851.085	21123
851.22	20998
851.355	20937
851.49	20941
851.625	20895
851.76	20815
851.895	20735
852.03	20819
852.165	20899
852.299	20979
852.434	20994
852.569	20929
852.703	20982
852.838	20986
852.973	21077
853.107	20948
853.242	20689
853.376	20807
853.511	20602
853.645	20648
853.78	20815
853.914	20849
854.048	20670
854.183	20705
854.317	20758
854.451	20918
854.585	20792
854.72	20765
854.854	20906
854.988	20670
855.122	20724
855.256	20587
855.39	20765
855.524	20819
855.658	20819
855.792	20651
855.926	20659
856.06	20754
856.194	20864
856.327	20705
856.461	20735
856.595	20727
856.729	20701
856.862	20769
856.996	20727
857.13	20868
857.263	20792
857.397	20849
857.53	20686
857.664	20648
857.797	20750
857.931	20845
858.064	20632
858.197	20868
858.331	20560
858.464	20613
858.597	20613
858.731	20655
858.864	20689
858.997	20689
859.13	20769
859.263	20762
859.396	20842
859.529	20754
859.662	20701
859.795	20644
859.928	20682
860.061	20838
860.194	20967
860.327	20842
860.46	20826
860.592	20765
860.725	20864
860.858	20876
860.99	20629
861.123	20598
861.256	20769
861.388	20689
861.521	21214
861.653	20644
861.786	20431
861.918	20552
862.05	20640
862.183	20667
862.315	20758
862.447	20727
862.58	20678
862.712	20545
862.844	20545
862.976	20454
863.108	20579
863.24	20693
863.372	20370
863.504	20492
863.636	20476
863.768	20454
863.9	20393
864.032	20412
864.164	20492
864.296	20450
864.428	20526
864.559	20579
864.691	20495
864.823	20552
864.954	20522
865.086	20514
865.217	20301
865.349	20282
865.48	20271
865.612	20332
865.743	20518
865.875	20450
866.006	20351
866.137	20290
866.269	20351
866.4	20256
866.531	20324
866.662	20256
866.793	20294
866.924	20339
867.055	20233
867.186	20305
867.317	20259
867.448	20271
867.579	20240
867.71	20183
867.841	20145
867.972	20210
868.103	20256
868.233	20233
868.364	20286
868.495	20290
868.625	20473
868.756	20724
868.886	20511
869.017	20609
869.147	20648
869.278	20674
869.408	20541
869.539	20571
869.669	20625
869.799	20571
869.929	20769
870.06	20644
870.19	20785
870.32	20811
870.45	20815
870.58	20975
870.71	21005
870.84	20979
870.97	20910
871.1	21017
871.23	21043
871.36	21070
871.489	21047
871.619	21211
871.749	21131
871.879	21127
872.008	21131
872.138	21199
872.267	21180
872.397	21001
872.526	20914
872.656	21047
872.785	20857
872.915	21066
873.044	21275
873.173	21150
873.303	21287
873.432	21294
873.561	21173
873.69	21085
873.819	21176
873.948	21336
874.077	21123
874.206	21081
874.335	21116
874.464	21252
874.593	21469
874.722	21317
874.851	21424
874.979	21469
875.108	21332
875.237	21279
875.365	21241
875.494	21325
875.623	21397
875.751	21386
875.88	21557
876.008	21519
876.136	21618
876.265	21797
876.393	21876
876.521	21922
876.65	21915
876.778	21713
876.906	21736
877.034	21781
877.162	21823
877.29	21675
877.418	21759
877.546	21667
877.674	21808
877.802	21660
877.93	21789
878.058	21671
878.185	21717
878.313	21762
878.441	21739
878.568	21530
878.696	21652
878.824	21747
878.951	21789
879.079	21892
879.206	22044
879.333	22010
879.461	21660
879.588	21888
879.715	22017
879.842	21880
879.97	21903
880.097	21557
880.224	21614
880.351	21511
880.478	21660
880.605	21599
880.732	21583
880.859	21766
880.986	21606
881.112	21511
881.239	21614
881.366	21367
881.493	21218
881.619	21192
881.746	21207
881.872	21039
881.999	20998
882.125	21055
882.252	21237
882.378	21169
882.505	21146
882.631	21024
882.757	20861
882.883	20918
883.01	20758
883.136	20826
883.262	20667
883.388	20693
883.514	20872
883.64	20849
883.766	20609
883.892	20636
884.018	20621
884.143	20724
884.269	20868
884.395	20503
884.52	20545
884.646	20537
884.772	20423
884.897	20473
885.023	20511
885.148	20545
885.274	20632
885.399	20492
885.524	20530
885.65	20488
885.775	20629
885.9	20434
886.025	20648
886.15	20651
886.275	20503
886.4	20412
886.525	20427
886.65	20484
886.775	20355
886.9	20701
887.025	20590
887.149	20408
887.274	20267
887.399	20282
887.523	20301
887.648	20183
887.773	20248
887.897	20305
888.021	20396
888.146	20221
888.27	20393
888.395	20404
888.519	20263
888.643	20309
888.767	20358
888.891	20218
889.015	20031
889.139	20221
889.263	20149
889.387	20142
889.511	20233
889.635	20210
889.759	19974
889.883	20092
890.006	20054
890.13	20134
890.254	20069
890.377	20031
890.501	19818
890.624	19913
890.748	19871
890.871	19784
890.995	19715
891.118	19647
891.241	19723
891.364	19788
891.488	19677
891.611	19628
891.734	19685
891.857	19613
891.98	19601
892.103	19803
892.226	19628
892.349	19635
892.471	19544
892.594	19578
892.717	19655
892.839	19460
892.962	19624
893.085	19655
893.207	19510
893.33	19552
893.452	19460
893.575	19632
893.697	19616
893.819	19746
893.941	19723
894.064	19689
894.186	19491
894.308	19529
894.43	19685
894.552	19670
894.674	19693
894.796	19537
894.918	19453
895.04	19529
895.161	19609
895.283	19586
895.405	19491
895.526	19559
895.648	19575
895.769	19590
895.891	19616
896.012	19639
896.134	19670
896.255	19556
896.376	19529
896.498	19594
896.619	19605
896.74	19487
896.861	19590
896.982	19947
897.103	20065
897.224	19879
897.345	19742
897.466	19731
897.587	19830
897.708	19974
897.828	19868
897.949	19712
898.07	19643
898.19	19738
898.311	19906
898.431	19795
898.552	19841
898.672	19883
898.792	19936
898.913	19811
899.033	19708
899.153	19662
899.273	19438
899.393	19620
899.513	19655
899.633	19601
899.753	19567
899.873	19491
899.993	19559
900.113	19571
900.232	19556
900.352	19670
900.472	19400
900.591	19365
900.711	19460
900.83	19354
900.95	19411
901.069	19540
901.189	19301
901.308	19042
901.427	18993
901.546	18920
901.665	18977
901.784	18981
901.904	18837
902.023	18760
902.141	18513
902.26	18502
902.379	18494
902.498	18475
902.617	18441
902.735	18517
902.854	18479
902.973	18357
903.091	18239
903.21	18098
903.328	18057
903.446	18019
903.565	18015
903.683	18026
903.801	17805
903.919	17977
904.038	17939
904.156	17703
904.274	17794
904.392	17608
904.51	17687
904.627	17722
904.745	17843
904.863	17680
904.981	17554
905.098	17448
905.216	17360
905.334	17528
905.451	17334
905.569	17318
905.686	17395
905.803	17277
905.921	17197
906.038	17296
906.155	17315
906.272	17098
906.389	17166
906.506	16923
906.623	16961
906.74	16900
906.857	16793
906.974	16812
907.091	16957
907.208	16915
907.324	16957
907.441	16831
907.557	16660
907.674	16584
907.79	16596
907.907	16736
908.023	16736
908.139	16744
908.256	16550
908.372	16584
908.488	16462
908.604	16455
908.72	16246
908.836	16413
908.952	16360
909.068	16440
909.184	16516
909.3	16398
909.415	16413
909.531	16363
909.647	16055
909.762	16055
909.878	16082
909.993	16090
910.108	16124
910.224	16120
910.339	16124
910.454	15918
910.57	16097
910.685	15816
910.8	16116
910.915	16139
911.03	15808
911.145	15709
911.259	15686
911.374	15781
911.489	15686
911.604	15603
911.718	15473
911.833	15500
911.947	15405
912.062	15329
912.176	15374
912.291	15557
912.405	15466
912.519	15576
912.633	15660
912.748	15542
912.862	15424
912.976	15351
913.09	15108
913.204	15291
913.318	15230
913.431	15412
913.545	15329
913.659	15431
913.772	15138
913.886	15097
914	15062
914.113	15211
914.226	15199
914.34	15104
914.453	14952
914.566	15104
914.68	14921
914.793	14971
914.906	14819
915.019	14727
915.132	14598
915.245	14705
915.358	14765
915.47	14819
915.583	14678
915.696	14750
915.809	14762
915.921	14792
916.034	14564
916.146	14579
916.259	14541
916.371	14720
916.483	14606
916.595	14598
916.708	14579
916.82	14533
916.932	14450
917.044	14465
917.156	14423
917.268	14301
917.38	14351
917.491	14286
917.603	14408
917.715	14396
917.826	14480
917.938	14317
918.049	14111
918.161	14358
918.272	14377
918.384	14389
918.495	14248
918.606	14164
918.717	14081
918.828	14134
918.939	14123
919.05	14031
919.161	14134
919.272	13970
919.383	14027
919.494	14103
919.604	14301
919.715	14130
919.826	14012
919.936	14142
920.047	14164
920.157	14130
920.267	14290
920.378	14149
920.488	14088
920.598	14256
920.708	14412
920.818	14157
920.928	14221
921.038	14415
921.148	14431
921.258	14119
921.368	14043
921.477	13906
921.587	13913
921.697	13795
921.806	13875
921.916	13772
922.025	13518
922.134	13514
922.244	13567
922.353	13597
922.462	13449
922.571	13377
922.68	13171
922.789	13206
922.898	13171
923.007	13152
923.116	13232
923.224	13137
923.333	13080
923.442	13084
923.55	13012
923.659	13076
923.767	13076
923.876	12951
923.984	13099
924.092	12913
924.201	12905
924.309	13027
924.417	12962
924.525	12833
924.633	13027
924.741	13814
924.849	12722
924.956	12787
925.064	12673
925.172	12452
925.279	12620
925.387	12741
925.494	12544
925.602	12726
925.709	12673
925.816	12635
925.924	12582
926.031	12719
926.138	12601
926.245	12601
926.352	12540
926.459	12623
926.566	12631
926.673	12426
926.779	12426
926.886	12365
926.993	12277
927.099	12197
927.206	12133
927.312	12155
927.419	12232
927.525	12228
927.631	12216
927.737	12049
927.843	12102
927.95	12030
928.056	11992
928.162	12060
928.267	12060
928.373	12753
928.479	12110
928.585	11870
928.69	11988
928.796	11969
928.901	11870
929.007	11794
929.112	11893
929.218	11798
929.323	11821
929.428	11779
929.533	11939
929.638	11592
929.743	11767
929.848	11756
929.953	11722
930.058	11596
930.163	11490
930.267	11459
930.372	11551
930.477	11383
930.581	11627
930.685	11543
930.79	11299
930.894	11383
930.998	11307
931.103	11459
931.207	11037
931.311	11022
931.415	10946
931.519	10759
931.623	10805
