Data from test_V78500241_1837.txt Node
Date: Fri Mar 25 15:22:38 CST 2022
User: usil
Spectrometer: V785-0024
Trigger mode: 0
Integration Time (sec): 4.000000E-1
Scans to average: 1
Nonlinearity correction enabled: false
Boxcar width: 0
Storing dark spectrum: false
XAxis mode: Wavelengths
Number of Pixels in Spectrum: 1024
>>>>>Begin Spectral Data<<<<<
801.071	27770
801.214	27667
801.356	27488
801.499	27363
801.641	27310
801.783	27283
801.926	27332
802.068	27359
802.211	27055
802.353	27218
802.496	26937
802.638	27024
802.78	26960
802.923	26876
803.065	26823
803.208	26864
803.35	26956
803.492	27039
803.635	27176
803.777	27077
803.919	27062
804.061	27542
804.204	27245
804.346	27085
804.488	27009
804.63	27138
804.773	27192
804.915	27070
805.057	27161
805.199	27192
805.341	27119
805.483	27298
805.626	27272
805.768	27176
805.91	27268
806.052	27207
806.194	27169
806.336	27431
806.478	27359
806.62	27302
806.762	27374
806.904	27454
807.046	27694
807.188	27694
807.33	27652
807.472	27759
807.614	27663
807.756	27625
807.898	27507
808.04	27568
808.182	27416
808.324	27637
808.465	27542
808.607	27736
808.749	27850
808.891	27842
809.033	28101
809.174	27903
809.316	27842
809.458	27823
809.6	27930
809.741	28013
809.883	27911
810.025	28211
810.166	28093
810.308	28215
810.45	28139
810.591	27934
810.733	27888
810.875	27823
811.016	27759
811.158	27633
811.299	27880
811.441	28029
811.582	27816
811.724	27888
811.865	27739
812.007	27736
812.148	27907
812.29	27934
812.431	28070
812.573	28116
812.714	28314
812.855	28432
812.997	28462
813.138	28561
813.279	28489
813.421	28314
813.562	28310
813.703	28242
813.845	28101
813.986	27736
814.127	27698
814.268	27591
814.41	27580
814.551	27549
814.692	27751
814.833	27424
814.974	27477
815.115	27530
815.256	27553
815.397	27466
815.539	27393
815.68	27378
815.821	27275
815.962	27298
816.103	27344
816.244	27233
816.385	27146
816.526	27017
816.666	26982
816.807	26918
816.948	26918
817.089	26956
817.23	26762
817.371	26937
817.512	26773
817.653	26842
817.793	26750
817.934	26739
818.075	26765
818.216	26823
818.356	26872
818.497	26667
818.638	26465
818.778	26522
818.919	26701
819.06	26651
819.2	26613
819.341	26857
819.481	26785
819.622	26853
819.762	27047
819.903	27039
820.043	27013
820.184	26963
820.324	27043
820.465	26910
820.605	26994
820.746	26864
820.886	26868
821.026	26876
821.167	26792
821.307	26921
821.447	26773
821.588	26769
821.728	26537
821.868	26370
822.008	26377
822.149	26427
822.289	26290
822.429	25997
822.569	25966
822.709	25940
822.849	25860
822.99	25849
823.13	25845
823.27	25856
823.41	25510
823.55	25502
823.69	25575
823.83	25677
823.97	25559
824.11	25597
824.25	25392
824.389	25491
824.529	25495
824.669	25449
824.809	25643
824.949	25518
825.089	25533
825.228	25525
825.368	25274
825.508	25217
825.648	25346
825.787	25434
825.927	25369
826.067	25369
826.206	25343
826.346	25377
826.485	25460
826.625	25411
826.765	25449
826.904	25350
827.044	25004
827.183	25190
827.323	25012
827.462	25293
827.601	25152
827.741	24966
827.88	25141
828.02	24951
828.159	25053
828.298	24970
828.437	25076
828.577	25057
828.716	25126
828.855	24821
828.994	24791
829.134	24700
829.273	24760
829.412	24760
829.551	24734
829.69	24700
829.829	24734
829.968	24901
830.107	24916
830.246	24616
830.385	24760
830.524	24646
830.663	24536
830.802	24544
830.941	24342
831.08	24300
831.219	24418
831.357	24483
831.496	24475
831.635	24270
831.774	24292
831.913	24266
832.051	24140
832.19	24064
832.329	24194
832.467	24079
832.606	24045
832.744	24064
832.883	24007
833.022	24022
833.16	24079
833.299	24076
833.437	24098
833.576	24049
833.714	24190
833.852	24114
833.991	24213
834.129	24144
834.267	24182
834.406	24167
834.544	24136
834.682	24114
834.821	24003
834.959	24319
835.097	23992
835.235	24072
835.373	24106
835.511	24197
835.65	23958
835.788	23882
835.926	23722
836.064	23771
836.202	23752
836.34	24049
836.478	24133
836.615	23961
836.753	23977
836.891	24133
837.029	23946
837.167	23855
837.305	23950
837.443	23882
837.58	23824
837.718	23859
837.856	23764
837.993	23756
838.131	23718
838.269	23695
838.406	23737
838.544	23608
838.681	23474
838.819	23490
838.956	23395
839.094	23334
839.231	23326
839.369	23425
839.506	23745
839.643	23573
839.781	23284
839.918	23102
840.055	23322
840.193	23204
840.33	23246
840.467	23212
840.604	23162
840.742	23345
840.879	22957
841.016	23140
841.153	23086
841.29	23280
841.427	23159
841.564	23231
841.701	23200
841.838	23117
841.975	23121
842.112	23117
842.249	23086
842.385	22816
842.522	23147
842.659	23109
842.796	23029
842.933	23079
843.069	22873
843.206	22965
843.343	23132
843.479	22915
843.616	23006
843.752	22603
843.889	22774
844.025	22965
844.162	22847
844.298	22828
844.435	22710
844.571	22736
844.708	22752
844.844	22999
844.98	22812
845.117	22816
845.253	22565
845.389	22569
845.525	22736
845.661	22615
845.798	22550
845.934	22451
846.07	22440
846.206	22504
846.342	22672
846.478	22356
846.614	22287
846.75	22242
846.886	22105
847.022	22242
847.158	22272
847.294	22295
847.429	22219
847.565	22261
847.701	22386
847.837	22074
847.972	21880
848.108	22002
848.244	22105
848.379	21922
848.515	21846
848.65	21808
848.786	21808
848.921	21793
849.057	21827
849.192	21865
849.328	21667
849.463	21728
849.598	21751
849.734	21663
849.869	21553
850.004	21603
850.14	21576
850.275	21606
850.41	21530
850.545	21450
850.68	21618
850.815	21660
850.95	21549
851.085	21698
851.22	21686
851.355	21553
851.49	21454
851.625	21454
851.76	21408
851.895	21542
852.03	21355
852.165	21530
852.299	21557
852.434	21747
852.569	21572
852.703	21580
852.838	21576
852.973	21641
853.107	21568
853.242	21511
853.376	21534
853.511	21199
853.645	21370
853.78	21523
853.914	21374
854.048	21428
854.183	21310
854.317	21466
854.451	21553
854.585	21275
854.72	21340
854.854	21386
854.988	21348
855.122	21466
855.256	21249
855.39	21439
855.524	21325
855.658	21591
855.792	21412
855.926	21462
856.06	21405
856.194	21481
856.327	21363
856.461	21329
856.595	21329
856.729	21252
856.862	21507
856.996	21641
857.13	21405
857.263	21496
857.397	21428
857.53	21389
857.664	21462
857.797	21386
857.931	21458
858.064	21469
858.197	21504
858.331	21466
858.464	21340
858.597	21222
858.731	21351
858.864	21389
858.997	21466
859.13	21408
859.263	21287
859.396	21450
859.529	21370
859.662	21329
859.795	21294
859.928	21572
860.061	21557
860.194	21553
860.327	21397
860.46	21538
860.592	21469
860.725	21629
860.858	21583
860.99	21378
861.123	21393
861.256	21374
861.388	21340
861.521	22169
861.653	21302
861.786	21260
861.918	21214
862.05	21256
862.183	21412
862.315	21302
862.447	21298
862.58	21344
862.712	21070
862.844	21123
862.976	21157
863.108	21077
863.24	21545
863.372	21005
863.504	21142
863.636	21085
863.768	21287
863.9	21108
864.032	21024
864.164	21001
864.296	21096
864.428	21154
864.559	21214
864.691	21176
864.823	21089
864.954	21066
865.086	21096
865.217	21036
865.349	20834
865.48	21043
865.612	20842
865.743	21089
865.875	21077
866.006	21001
866.137	21043
866.269	21051
866.4	20948
866.531	20960
866.662	20986
866.793	20876
866.924	21066
867.055	21051
867.186	20941
867.317	20845
867.448	20830
867.579	20967
867.71	20853
867.841	20811
867.972	21013
868.103	20899
868.233	20979
868.364	20944
868.495	21119
868.625	21184
868.756	21287
868.886	21074
869.017	21123
869.147	21367
869.278	21306
869.408	21138
869.539	21306
869.669	21279
869.799	21241
869.929	21344
870.06	21408
870.19	21530
870.32	21519
870.45	21492
870.58	21557
870.71	21717
870.84	21542
870.97	21690
871.1	21660
871.23	21778
871.36	21778
871.489	21660
871.619	21728
871.749	21717
871.879	21732
872.008	21903
872.138	21709
872.267	21778
872.397	21633
872.526	21671
872.656	21625
872.785	21625
872.915	21797
873.044	21808
873.173	21823
873.303	21652
873.432	21846
873.561	21854
873.69	21724
873.819	21876
873.948	21785
874.077	21876
874.206	21766
874.335	21770
874.464	21953
874.593	22029
874.722	21922
874.851	22044
874.979	22131
875.108	22010
875.237	21945
875.365	21934
875.494	21911
875.623	22048
875.751	22025
875.88	21953
876.008	22238
876.136	22207
876.265	22348
876.393	22470
876.521	22443
876.65	22443
876.778	22402
876.906	22440
877.034	22417
877.162	22367
877.29	22310
877.418	22352
877.546	22386
877.674	22386
877.802	22333
877.93	22322
878.058	22352
878.185	22188
878.313	22238
878.441	22375
878.568	22268
878.696	22261
878.824	22466
878.951	22497
879.079	22550
879.206	22596
879.333	22478
879.461	22466
879.588	22478
879.715	22557
879.842	22569
879.97	22535
880.097	22173
880.224	22143
880.351	22230
880.478	22253
880.605	22051
880.732	22128
880.859	22481
880.986	22139
881.112	22253
881.239	22128
881.366	21903
881.493	21880
881.619	21751
881.746	21751
881.872	21850
881.999	21705
882.125	21671
882.252	21865
882.378	21667
882.505	21865
882.631	21572
882.757	21443
882.883	21618
883.01	21424
883.136	21496
883.262	21355
883.388	21275
883.514	21325
883.64	21492
883.766	21340
883.892	21135
884.018	21222
884.143	21496
884.269	21443
884.395	21294
884.52	21116
884.646	21108
884.772	21074
884.897	21062
885.023	21104
885.148	21370
885.274	21237
885.399	21165
885.524	20990
885.65	21127
885.775	21138
885.9	21058
886.025	21272
886.15	21161
886.275	21039
886.4	20925
886.525	21104
886.65	21043
886.775	20838
886.9	21188
887.025	21306
887.149	21039
887.274	20891
887.399	20914
887.523	20906
887.648	20823
887.773	20765
887.897	21047
888.021	20941
888.146	20648
888.27	21024
888.395	20868
888.519	20929
888.643	20830
888.767	20902
888.891	20720
889.015	20621
889.139	20804
889.263	20644
889.387	20743
889.511	20971
889.635	20785
889.759	20583
889.883	20655
890.006	20655
890.13	20807
890.254	20648
890.377	20686
890.501	20461
890.624	20404
890.748	20396
890.871	20381
890.995	20149
891.118	20103
891.241	20122
891.364	20214
891.488	20347
891.611	20240
891.734	20233
891.857	20225
891.98	20271
892.103	20332
892.226	20263
892.349	20202
892.471	19993
892.594	20161
892.717	20237
892.839	20020
892.962	20153
893.085	20153
893.207	20138
893.33	19993
893.452	20168
893.575	20100
893.697	20069
893.819	20195
893.941	20415
894.064	20214
894.186	20001
894.308	20031
894.43	20271
894.552	20214
894.674	20282
894.796	20035
894.918	20069
895.04	20107
895.161	20130
895.283	20202
895.405	20138
895.526	20046
895.648	20058
895.769	20092
895.891	20176
896.012	20298
896.134	20084
896.255	20172
896.376	20145
896.498	20084
896.619	20221
896.74	20092
896.861	20161
896.982	20499
897.103	20617
897.224	20503
897.345	20362
897.466	20324
897.587	20362
897.708	20499
897.828	20404
897.949	20286
898.07	20233
898.19	20301
898.311	20396
898.431	20320
898.552	20377
898.672	20484
898.792	20366
898.913	20328
899.033	20252
899.153	20145
899.273	20062
899.393	20020
899.513	20073
899.633	20183
899.753	20119
899.873	19974
899.993	20168
900.113	19970
900.232	20043
900.352	20016
900.472	19993
900.591	19913
900.711	19906
900.83	19864
900.95	19951
901.069	19986
901.189	19795
901.308	19457
901.427	19419
901.546	19480
901.665	19422
901.784	19548
901.904	19335
902.023	19316
902.141	18897
902.26	18939
902.379	19084
902.498	19008
902.617	18958
902.735	19000
902.854	18905
902.973	18878
903.091	18707
903.21	18608
903.328	18563
903.446	18623
903.565	18525
903.683	18464
903.801	18350
903.919	18384
904.038	18369
904.156	18304
904.274	18190
904.392	18190
904.51	18144
904.627	18121
904.745	18239
904.863	18266
904.981	17969
905.098	17996
905.216	17973
905.334	17889
905.451	17817
905.569	17821
905.686	17958
905.803	17908
905.921	17729
906.038	17935
906.155	17741
906.272	17497
906.389	17577
906.506	17440
906.623	17425
906.74	17482
906.857	17303
906.974	17353
907.091	17463
907.208	17558
907.324	17391
907.441	17280
907.557	17170
907.674	17181
907.79	17105
907.907	17113
908.023	17155
908.139	17083
908.256	16980
908.372	17018
908.488	16877
908.604	16896
908.72	16790
908.836	16873
908.952	16858
909.068	16816
909.184	16919
909.3	16873
909.415	16774
909.531	16881
909.647	16554
909.762	16618
909.878	16428
909.993	16618
910.108	16592
910.224	16386
910.339	16428
910.454	16478
910.57	16341
910.685	16211
910.8	16497
910.915	16497
911.03	16402
911.145	16257
911.259	16242
911.374	16143
911.489	16082
911.604	16048
911.718	15960
911.833	15880
911.947	15770
912.062	15686
912.176	15899
912.291	15907
912.405	15869
912.519	16109
912.633	15983
912.748	15884
912.862	15888
912.976	15755
913.09	15633
913.204	15652
913.318	15705
913.431	15854
913.545	15778
913.659	15781
913.772	15755
913.886	15637
914	15523
914.113	15591
914.226	15625
914.34	15614
914.453	15523
914.566	15545
914.68	15439
914.793	15336
914.906	15199
915.019	15138
915.132	15100
915.245	15207
915.358	15051
915.47	15127
915.583	15047
915.696	15165
915.809	15268
915.921	15245
916.034	15089
916.146	14952
916.259	15039
916.371	14971
916.483	15104
916.595	14849
916.708	14963
916.82	14933
916.932	14952
917.044	14880
917.156	14887
917.268	14716
917.38	14883
917.491	14773
917.603	14750
917.715	14830
917.826	14849
917.938	14712
918.049	14575
918.161	14720
918.272	14914
918.384	14804
918.495	14659
918.606	14617
918.717	14549
918.828	14594
918.939	14575
919.05	14507
919.161	14446
919.272	14332
919.383	14434
919.494	14560
919.604	14667
919.715	14545
919.826	14343
919.936	14488
920.047	14507
920.157	14484
920.267	14674
920.378	14610
920.488	14434
920.598	14594
920.708	14804
920.818	14667
920.928	14587
921.038	14845
921.148	14686
921.258	14305
921.368	14412
921.477	14244
921.587	14199
921.697	14081
921.806	14229
921.916	14157
922.025	13879
922.134	13883
922.244	13913
922.353	13909
922.462	13776
922.571	13681
922.68	13533
922.789	13502
922.898	13518
923.007	13476
923.116	13499
923.224	13521
923.333	13392
923.442	13388
923.55	13297
923.659	13400
923.767	13400
923.876	13266
923.984	13407
924.092	13194
924.201	13190
924.309	13358
924.417	13232
924.525	13126
924.633	13187
924.741	14058
924.849	13046
924.956	13187
925.064	12935
925.172	12825
925.279	12924
925.387	12951
925.494	12840
925.602	13023
925.709	12928
925.816	12871
925.924	12833
926.031	12947
926.138	12840
926.245	12924
926.352	12760
926.459	12882
926.566	12951
926.673	12753
926.779	12585
926.886	12741
926.993	12486
927.099	12445
927.206	12521
927.312	12403
927.419	12570
927.525	12536
927.631	12547
927.737	12445
927.843	12361
927.95	12262
928.056	12262
928.162	12228
928.267	12372
928.373	12878
928.479	12422
928.585	12129
928.69	12228
928.796	12384
928.901	12251
929.007	12060
929.112	12239
929.218	12079
929.323	12079
929.428	12091
929.533	12129
929.638	11912
929.743	11988
929.848	12045
929.953	11973
930.058	11961
930.163	11741
930.267	11802
930.372	11885
930.477	11653
930.581	11920
930.685	11786
930.79	11592
930.894	11611
930.998	11543
931.103	11760
931.207	11368
931.311	11292
931.415	11227
931.519	10968
931.623	10965
